EXPLAIN
TAG	CHRONOA
TITLE	LABEL	Chronoamperometry Scan	Test Identifier
DATE	LABEL	29/6/2022	Date
TIME	LABEL	11:09:30	Time
NOTES	NOTES	1	Notes...
	
PSTAT	PSTAT	IFC1010-21051	Potentiostat
VPRESTEP	POTEN	4.50000E-001	F	Pre-step Voltage (V)
TPRESTEP	QUANT	5.00000E-001	Pre-step Delay Time (s)
VSTEP1	POTEN	5.00000E-001	F	Step 1 Voltage (V)
TSTEP1	QUANT	3.00000E+002	Step 1 Time (s)
VSTEP2	POTEN	5.50000E-001	F	Step 2 Voltage (V)
TSTEP2	QUANT	1.00000E+000	Step 2 Time (s)
SAMPLETIME	QUANT	1.00000E-001	Sample Period (s)
DECIMATE	TOGGLE	T	Decimate
ILIMIT	QUANT	1.00000E+000	Limit I (mA/cm^2)
IMODE	SELECTOR	1	I/E Range Mode
IRANGE	QUANT	3.00000E-001	Max Current (mA)
EQDELAY	QUANT	5.00000E+000	Equil. Time (s)
SAMPLINGMODE	SELECTOR	1	Sampling Mode
AREA	QUANT	1.00000E+000	Sample Area (cm^2)
IRCOMP	SELECTOR	0	IRComp
PFCOR	QUANT	5.00000E+001	PF Corr. (ohm)
SEQUENCER	TOGGLE	TRUE	Run as Sequence
PSTATMODEL	IQUANT	64	Pstat Model
PSTATSECTION	LABEL	IFC1010-21051	Pstat Section
PSTATSERIALNO	LABEL	21051	Pstat Serial Number
CTRLMODE	IQUANT	1	Control Mode
ELECTROMETER	IQUANT	0	RE=0 or CS=1
IESTAB	IQUANT	0	I/E Stability
CASPEED	IQUANT	4	Control Amp Speed
CONVENTION	IQUANT	1	Current Convention
ICHRANGE	IQUANT	2	Ich Range
ICHRANGEMODE	TOGGLE	T	Ich Auto Range
ICHOFFSETENABLE	TOGGLE	F	Ich Offset Enable
ICHOFFSET	QUANT	0	Ich Offset (V)
ICHFILTER	IQUANT	3	Ich Filter
VCHRANGE	IQUANT	3	Vch Range
VCHRANGEMODE	TOGGLE	T	Vch Auto Range
VCHOFFSETENABLE	TOGGLE	F	Vch Offset Enable
VCHOFFSET	QUANT	0	Vch Offset (V)
VCHFILTER	IQUANT	3	Vch Filter
IERANGELOWERLIMIT	IQUANT	4	I/E Range Lower Limit
IERANGEMODE	TOGGLE	F	I/E AutoRange
IERANGE	IQUANT	9	I/E Range
ACHSELECT	IQUANT	0	Ach Select
ACHRANGE	IQUANT	2	Ach Range
ACHOFFSETENABLE	TOGGLE	F	Ach Offset Enable
ACHOFFSET	QUANT	0	Ach Offset (V)
ACHFILTER	IQUANT	1	Ach Filter
SENSECABLEID	IQUANT	14	Sense Cable ID
PWRCABLEID	IQUANT	14	Power Cable ID
DCCALDATE	LABEL	5/16/2022	DC Calibration Date
ACCALDATE	LABEL	4/2/2018	AC Calibration Date
FRAMEWORKVERSION	QUANT	7.06	Framework Version
INSTRUMENTVERSION	LABEL	4.30	Instrument Version
CURVE	TABLE	98
	Pt	T	Vf	Im	Vu	Sig	Ach	IERange	Over	Temp
	#	s	V vs. Ref.	A	V	V	V	#	bits	deg C
	0	-0.4	4.50574E-001	8.48802E-005	0.00000E+000	4.49889E-001	0.00000E+000	9	...........	1424.63
	1	-0.3	4.50637E-001	8.44115E-005	0.00000E+000	4.49889E-001	0.00000E+000	9	...........	1424.54
	2	-0.2	4.50620E-001	8.39359E-005	0.00000E+000	4.49889E-001	0.00000E+000	9	...........	1424.54
	3	-0.1	4.50632E-001	8.34572E-005	0.00000E+000	4.49889E-001	0.00000E+000	9	...........	1424.54
	4	0	4.50626E-001	8.30288E-005	0.00000E+000	4.49889E-001	0.00000E+000	9	...........	1424.54
	5	0.1	5.00629E-001	2.94568E-004	0.00000E+000	4.99889E-001	0.00000E+000	9	...........	1424.54
	6	0.2	5.00641E-001	2.84354E-004	0.00000E+000	4.99889E-001	0.00000E+000	9	...........	1424.54
	7	0.3	5.00639E-001	2.76684E-004	0.00000E+000	4.99889E-001	0.00000E+000	9	...........	1424.54
	8	0.4	5.00634E-001	2.70502E-004	0.00000E+000	4.99889E-001	0.00000E+000	9	...........	1424.54
	9	0.5	5.00638E-001	2.65356E-004	0.00000E+000	4.99889E-001	0.00000E+000	9	...........	1424.54
	10	0.6	5.00648E-001	2.60909E-004	0.00000E+000	4.99889E-001	0.00000E+000	9	...........	1424.54
	11	0.7	5.00627E-001	2.57008E-004	0.00000E+000	4.99889E-001	0.00000E+000	9	...........	1424.54
	12	0.8	5.00637E-001	2.53586E-004	0.00000E+000	4.99889E-001	0.00000E+000	9	...........	1424.54
	13	0.9	5.00649E-001	2.50478E-004	0.00000E+000	4.99889E-001	0.00000E+000	9	...........	1424.54
	14	1	5.00638E-001	2.47677E-004	0.00000E+000	4.99889E-001	0.00000E+000	9	...........	1424.54
	15	1.1	5.00641E-001	2.45089E-004	0.00000E+000	4.99889E-001	0.00000E+000	9	...........	1424.54
	16	1.2	5.00629E-001	2.42699E-004	0.00000E+000	4.99889E-001	0.00000E+000	9	...........	1424.54
	17	1.3	5.00636E-001	2.40462E-004	0.00000E+000	4.99889E-001	0.00000E+000	9	...........	1424.54
	18	1.4	5.00630E-001	2.38456E-004	0.00000E+000	4.99889E-001	0.00000E+000	9	...........	1424.54
	19	1.5	5.00642E-001	2.36497E-004	0.00000E+000	4.99889E-001	0.00000E+000	9	...........	1424.54
	20	1.6	5.00646E-001	2.34727E-004	0.00000E+000	4.99889E-001	0.00000E+000	9	...........	1424.54
	21	1.7	5.00637E-001	2.33016E-004	0.00000E+000	4.99889E-001	0.00000E+000	9	...........	1424.45
	22	1.8	5.00652E-001	2.31362E-004	0.00000E+000	4.99889E-001	0.00000E+000	9	...........	1424.45
	23	1.9	5.00635E-001	2.29795E-004	0.00000E+000	4.99889E-001	0.00000E+000	9	...........	1424.45
	24	2	5.00627E-001	2.28398E-004	0.00000E+000	4.99889E-001	0.00000E+000	9	...........	1424.45
	25	2.1	5.00633E-001	2.26981E-004	0.00000E+000	4.99889E-001	0.00000E+000	9	...........	1424.45
	26	2.2	5.00640E-001	2.25625E-004	0.00000E+000	4.99889E-001	0.00000E+000	9	...........	1424.45
	27	2.3	5.00630E-001	2.24370E-004	0.00000E+000	4.99889E-001	0.00000E+000	9	...........	1424.45
	28	2.4	5.00626E-001	2.23137E-004	0.00000E+000	4.99889E-001	0.00000E+000	9	...........	1424.45
	29	2.5	5.00635E-001	2.21934E-004	0.00000E+000	4.99889E-001	0.00000E+000	9	...........	1424.45
	30	2.6	5.00636E-001	2.20838E-004	0.00000E+000	4.99889E-001	0.00000E+000	9	...........	1424.45
	31	2.7	5.00629E-001	2.19710E-004	0.00000E+000	4.99889E-001	0.00000E+000	9	...........	1424.45
	32	2.8	5.00639E-001	2.18678E-004	0.00000E+000	4.99889E-001	0.00000E+000	9	...........	1424.45
	33	2.9	5.00637E-001	2.17658E-004	0.00000E+000	4.99889E-001	0.00000E+000	9	...........	1424.45
	34	3	5.00622E-001	2.16662E-004	0.00000E+000	4.99889E-001	0.00000E+000	9	...........	1424.45
	35	3.1	5.00629E-001	2.15732E-004	0.00000E+000	4.99889E-001	0.00000E+000	9	...........	1424.45
	36	3.2	5.00636E-001	2.14800E-004	0.00000E+000	4.99889E-001	0.00000E+000	9	...........	1424.45
	37	3.3	5.00638E-001	2.13844E-004	0.00000E+000	4.99889E-001	0.00000E+000	9	...........	1424.45
	38	3.4	5.00637E-001	2.13015E-004	0.00000E+000	4.99889E-001	0.00000E+000	9	...........	1424.45
	39	3.5	5.00636E-001	2.12130E-004	0.00000E+000	4.99889E-001	0.00000E+000	9	...........	1424.45
	40	3.6	5.00637E-001	2.11295E-004	0.00000E+000	4.99889E-001	0.00000E+000	9	...........	1424.45
	41	3.7	5.00630E-001	2.10507E-004	0.00000E+000	4.99889E-001	0.00000E+000	9	...........	1424.45
	42	3.8	5.00630E-001	2.09746E-004	0.00000E+000	4.99889E-001	0.00000E+000	9	...........	1424.45
	43	3.9	5.00635E-001	2.08954E-004	0.00000E+000	4.99889E-001	0.00000E+000	9	...........	1424.45
	44	4	5.00634E-001	2.08246E-004	0.00000E+000	4.99889E-001	0.00000E+000	9	...........	1424.45
	45	4.1	5.00646E-001	2.07502E-004	0.00000E+000	4.99889E-001	0.00000E+000	9	...........	1424.45
	46	4.2	5.00647E-001	2.06796E-004	0.00000E+000	4.99889E-001	0.00000E+000	9	...........	1424.45
	47	4.3	5.00645E-001	2.06071E-004	0.00000E+000	4.99889E-001	0.00000E+000	9	...........	1424.45
	48	4.4	5.00635E-001	2.05402E-004	0.00000E+000	4.99889E-001	0.00000E+000	9	...........	1424.45
	49	4.5	5.00640E-001	2.04754E-004	0.00000E+000	4.99889E-001	0.00000E+000	9	...........	1424.45
	50	4.6	5.00643E-001	2.04123E-004	0.00000E+000	4.99889E-001	0.00000E+000	9	...........	1424.45
	51	4.7	5.00646E-001	2.03488E-004	0.00000E+000	4.99889E-001	0.00000E+000	9	...........	1424.54
	52	4.8	5.00638E-001	2.02820E-004	0.00000E+000	4.99889E-001	0.00000E+000	9	...........	1424.54
	53	4.9	5.00640E-001	2.02240E-004	0.00000E+000	4.99889E-001	0.00000E+000	9	...........	1424.54
	54	5	5.00651E-001	2.01649E-004	0.00000E+000	4.99889E-001	0.00000E+000	9	...........	1424.54
	55	5.1	5.00644E-001	2.01074E-004	0.00000E+000	4.99889E-001	0.00000E+000	9	...........	1424.54
	56	5.2	5.00645E-001	2.00482E-004	0.00000E+000	4.99889E-001	0.00000E+000	9	...........	1424.54
	57	5.3	5.00651E-001	1.99894E-004	0.00000E+000	4.99889E-001	0.00000E+000	9	...........	1424.54
	58	5.4	5.00645E-001	1.99357E-004	0.00000E+000	4.99889E-001	0.00000E+000	9	...........	1424.54
	59	5.5	5.00637E-001	1.98816E-004	0.00000E+000	4.99889E-001	0.00000E+000	9	...........	1424.54
	60	5.6	5.00641E-001	1.98275E-004	0.00000E+000	4.99889E-001	0.00000E+000	9	...........	1424.54
	61	5.7	5.00637E-001	1.97742E-004	0.00000E+000	4.99889E-001	0.00000E+000	9	...........	1424.54
	62	5.8	5.00652E-001	1.97209E-004	0.00000E+000	4.99889E-001	0.00000E+000	9	...........	1424.54
	63	5.9	5.00643E-001	1.96721E-004	0.00000E+000	4.99889E-001	0.00000E+000	9	...........	1424.54
	64	6	5.00636E-001	1.96171E-004	0.00000E+000	4.99889E-001	0.00000E+000	9	...........	1424.54
	65	6.1	5.00630E-001	1.95734E-004	0.00000E+000	4.99889E-001	0.00000E+000	9	...........	1424.54
	66	7.1	5.00640E-001	1.91244E-004	0.00000E+000	4.99889E-001	0.00000E+000	9	...........	1424.45
	67	8.1	5.00627E-001	1.87365E-004	0.00000E+000	4.99889E-001	0.00000E+000	9	...........	1424.54
	68	9.1	5.00641E-001	1.83933E-004	0.00000E+000	4.99889E-001	0.00000E+000	9	...........	1424.54
	69	10.1	5.00642E-001	1.80894E-004	0.00000E+000	4.99889E-001	0.00000E+000	9	...........	1424.54
	70	11.1	5.00641E-001	1.78174E-004	0.00000E+000	4.99889E-001	0.00000E+000	9	...........	1424.54
	71	12.1	5.00629E-001	1.75779E-004	0.00000E+000	4.99889E-001	0.00000E+000	9	...........	1424.54
	72	13.1	5.00643E-001	1.73546E-004	0.00000E+000	4.99889E-001	0.00000E+000	9	...........	1424.54
	73	14.1	5.00633E-001	1.71557E-004	0.00000E+000	4.99889E-001	0.00000E+000	9	...........	1424.54
	74	15.1	5.00639E-001	1.69708E-004	0.00000E+000	4.99889E-001	0.00000E+000	9	...........	1424.54
	75	16.1	5.00637E-001	1.68046E-004	0.00000E+000	4.99889E-001	0.00000E+000	9	...........	1424.45
	76	26.1	5.00644E-001	1.57608E-004	0.00000E+000	4.99889E-001	0.00000E+000	9	...........	1424.54
	77	36.1	5.00636E-001	1.52547E-004	0.00000E+000	4.99889E-001	0.00000E+000	9	...........	1424.63
	78	46.1	5.00632E-001	1.49476E-004	0.00000E+000	4.99889E-001	0.00000E+000	9	...........	1424.54
	79	56.1	5.00630E-001	1.47508E-004	0.00000E+000	4.99889E-001	0.00000E+000	9	...........	1424.63
	80	66.1	5.00629E-001	1.46114E-004	0.00000E+000	4.99889E-001	0.00000E+000	9	...........	1424.63
	81	76.1	5.00633E-001	1.45095E-004	0.00000E+000	4.99889E-001	0.00000E+000	9	...........	1424.63
	82	86.1	5.00625E-001	1.44211E-004	0.00000E+000	4.99889E-001	0.00000E+000	9	...........	1424.63
	83	96.1	5.00637E-001	1.43510E-004	0.00000E+000	4.99889E-001	0.00000E+000	9	...........	1424.63
	84	106.1	5.00638E-001	1.42846E-004	0.00000E+000	4.99889E-001	0.00000E+000	9	...........	1424.63
	85	116.1	5.00631E-001	1.42186E-004	0.00000E+000	4.99889E-001	0.00000E+000	9	...........	1424.63
	86	216.1	5.00648E-001	1.37439E-004	0.00000E+000	4.99889E-001	0.00000E+000	9	...........	1424.63
	87	300	5.00646E-001	1.34926E-004	0.00000E+000	4.99889E-001	0.00000E+000	9	...........	1424.63
	88	300.1	5.50645E-001	3.52674E-004	0.00000E+000	5.49889E-001	0.00000E+000	9	...........	1424.63
	89	300.2	5.50642E-001	3.47187E-004	0.00000E+000	5.49889E-001	0.00000E+000	9	...........	1424.63
	90	300.3	5.50622E-001	3.43515E-004	0.00000E+000	5.49889E-001	0.00000E+000	9	...........	1424.63
	91	300.4	5.50639E-001	3.40753E-004	0.00000E+000	5.49889E-001	0.00000E+000	9	...........	1424.63
	92	300.5	5.50643E-001	3.38467E-004	0.00000E+000	5.49889E-001	0.00000E+000	9	...........	1424.63
	93	300.6	5.50628E-001	3.36599E-004	0.00000E+000	5.49889E-001	0.00000E+000	9	...........	1424.63
	94	300.7	5.50626E-001	3.34980E-004	0.00000E+000	5.49889E-001	0.00000E+000	9	...........	1424.72
	95	300.8	5.50631E-001	3.33519E-004	0.00000E+000	5.49889E-001	0.00000E+000	9	...........	1424.72
	96	300.9	5.50628E-001	3.32250E-004	0.00000E+000	5.49889E-001	0.00000E+000	9	...........	1424.72
	97	301	5.50631E-001	3.31070E-004	0.00000E+000	5.49889E-001	0.00000E+000	9	...........	1424.72
