EXPLAIN
TAG	CHRONOA
TITLE	LABEL	Chronoamperometry Scan	Test Identifier
DATE	LABEL	29/6/2022	Date
TIME	LABEL	10:49:04	Time
NOTES	NOTES	1	Notes...
	
PSTAT	PSTAT	IFC1010-21051	Potentiostat
VPRESTEP	POTEN	5.00000E-002	F	Pre-step Voltage (V)
TPRESTEP	QUANT	5.00000E-001	Pre-step Delay Time (s)
VSTEP1	POTEN	1.00000E-001	F	Step 1 Voltage (V)
TSTEP1	QUANT	3.00000E+002	Step 1 Time (s)
VSTEP2	POTEN	1.50000E-001	F	Step 2 Voltage (V)
TSTEP2	QUANT	1.00000E+000	Step 2 Time (s)
SAMPLETIME	QUANT	1.00000E-001	Sample Period (s)
DECIMATE	TOGGLE	T	Decimate
ILIMIT	QUANT	1.00000E+000	Limit I (mA/cm^2)
IMODE	SELECTOR	1	I/E Range Mode
IRANGE	QUANT	3.00000E-001	Max Current (mA)
EQDELAY	QUANT	5.00000E+000	Equil. Time (s)
SAMPLINGMODE	SELECTOR	1	Sampling Mode
AREA	QUANT	1.00000E+000	Sample Area (cm^2)
IRCOMP	SELECTOR	0	IRComp
PFCOR	QUANT	5.00000E+001	PF Corr. (ohm)
SEQUENCER	TOGGLE	TRUE	Run as Sequence
PSTATMODEL	IQUANT	64	Pstat Model
PSTATSECTION	LABEL	IFC1010-21051	Pstat Section
PSTATSERIALNO	LABEL	21051	Pstat Serial Number
CTRLMODE	IQUANT	1	Control Mode
ELECTROMETER	IQUANT	0	RE=0 or CS=1
IESTAB	IQUANT	0	I/E Stability
CASPEED	IQUANT	4	Control Amp Speed
CONVENTION	IQUANT	1	Current Convention
ICHRANGE	IQUANT	2	Ich Range
ICHRANGEMODE	TOGGLE	T	Ich Auto Range
ICHOFFSETENABLE	TOGGLE	F	Ich Offset Enable
ICHOFFSET	QUANT	0	Ich Offset (V)
ICHFILTER	IQUANT	3	Ich Filter
VCHRANGE	IQUANT	3	Vch Range
VCHRANGEMODE	TOGGLE	T	Vch Auto Range
VCHOFFSETENABLE	TOGGLE	F	Vch Offset Enable
VCHOFFSET	QUANT	0	Vch Offset (V)
VCHFILTER	IQUANT	3	Vch Filter
IERANGELOWERLIMIT	IQUANT	4	I/E Range Lower Limit
IERANGEMODE	TOGGLE	F	I/E AutoRange
IERANGE	IQUANT	9	I/E Range
ACHSELECT	IQUANT	0	Ach Select
ACHRANGE	IQUANT	2	Ach Range
ACHOFFSETENABLE	TOGGLE	F	Ach Offset Enable
ACHOFFSET	QUANT	0	Ach Offset (V)
ACHFILTER	IQUANT	1	Ach Filter
SENSECABLEID	IQUANT	14	Sense Cable ID
PWRCABLEID	IQUANT	14	Power Cable ID
DCCALDATE	LABEL	5/16/2022	DC Calibration Date
ACCALDATE	LABEL	4/2/2018	AC Calibration Date
FRAMEWORKVERSION	QUANT	7.06	Framework Version
INSTRUMENTVERSION	LABEL	4.30	Instrument Version
CURVE	TABLE	98
	Pt	T	Vf	Im	Vu	Sig	Ach	IERange	Over	Temp
	#	s	V vs. Ref.	A	V	V	V	#	bits	deg C
	0	-0.4	5.01291E-002	-6.79510E-007	0.00000E+000	4.98781E-002	0.00000E+000	9	...........	1424.01
	1	-0.3	5.00555E-002	-8.39108E-007	0.00000E+000	4.98781E-002	0.00000E+000	9	...........	1424.01
	2	-0.2	5.00585E-002	-9.83857E-007	0.00000E+000	4.98781E-002	0.00000E+000	9	...........	1424.01
	3	-0.1	5.00573E-002	-1.12514E-006	0.00000E+000	4.98781E-002	0.00000E+000	9	...........	1424.01
	4	0	5.00587E-002	-1.25060E-006	0.00000E+000	4.98781E-002	0.00000E+000	9	...........	1424.01
	5	0.1	1.00059E-001	1.87655E-004	0.00000E+000	9.98779E-002	0.00000E+000	9	...........	1424.01
	6	0.2	1.00060E-001	1.58940E-004	0.00000E+000	9.98779E-002	0.00000E+000	9	...........	1424.01
	7	0.3	1.00061E-001	1.35920E-004	0.00000E+000	9.98779E-002	0.00000E+000	9	...........	1424.01
	8	0.4	1.00059E-001	1.16954E-004	0.00000E+000	9.98779E-002	0.00000E+000	9	...........	1424.01
	9	0.5	1.00059E-001	1.01132E-004	0.00000E+000	9.98779E-002	0.00000E+000	9	...........	1424.01
	10	0.6	1.00060E-001	8.78545E-005	0.00000E+000	9.98779E-002	0.00000E+000	9	...........	1424.01
	11	0.7	1.00059E-001	7.66442E-005	0.00000E+000	9.98779E-002	0.00000E+000	9	...........	1424.01
	12	0.8	1.00059E-001	6.71366E-005	0.00000E+000	9.98779E-002	0.00000E+000	9	...........	1424.01
	13	0.9	1.00059E-001	5.90227E-005	0.00000E+000	9.98779E-002	0.00000E+000	9	...........	1424.01
	14	1	1.00059E-001	5.21037E-005	0.00000E+000	9.98779E-002	0.00000E+000	9	...........	1424.01
	15	1.1	1.00059E-001	4.61568E-005	0.00000E+000	9.98779E-002	0.00000E+000	9	...........	1424.01
	16	1.2	1.00059E-001	4.10553E-005	0.00000E+000	9.98779E-002	0.00000E+000	9	...........	1424.01
	17	1.3	1.00061E-001	3.66544E-005	0.00000E+000	9.98779E-002	0.00000E+000	9	...........	1423.66
	18	1.4	1.00061E-001	3.28479E-005	0.00000E+000	9.98779E-002	0.00000E+000	9	...........	1423.66
	19	1.5	1.00061E-001	2.95553E-005	0.00000E+000	9.98779E-002	0.00000E+000	9	...........	1423.66
	20	1.6	1.00061E-001	2.66789E-005	0.00000E+000	9.98779E-002	0.00000E+000	9	...........	1423.66
	21	1.7	1.00060E-001	2.41711E-005	0.00000E+000	9.98779E-002	0.00000E+000	9	...........	1423.66
	22	1.8	1.00061E-001	2.19790E-005	0.00000E+000	9.98779E-002	0.00000E+000	9	...........	1423.66
	23	1.9	1.00059E-001	2.00541E-005	0.00000E+000	9.98779E-002	0.00000E+000	9	...........	1423.66
	24	2	1.00060E-001	1.83685E-005	0.00000E+000	9.98779E-002	0.00000E+000	9	...........	1423.66
	25	2.1	1.00060E-001	1.68689E-005	0.00000E+000	9.98779E-002	0.00000E+000	9	...........	1423.66
	26	2.2	1.00060E-001	1.55483E-005	0.00000E+000	9.98779E-002	0.00000E+000	9	...........	1423.66
	27	2.3	1.00060E-001	1.43748E-005	0.00000E+000	9.98779E-002	0.00000E+000	9	...........	1423.92
	28	2.4	1.00059E-001	1.33319E-005	0.00000E+000	9.98779E-002	0.00000E+000	9	...........	1423.92
	29	2.5	1.00062E-001	1.23810E-005	0.00000E+000	9.98779E-002	0.00000E+000	9	...........	1423.92
	30	2.6	1.00060E-001	1.15522E-005	0.00000E+000	9.98779E-002	0.00000E+000	9	...........	1423.92
	31	2.7	1.00061E-001	1.07930E-005	0.00000E+000	9.98779E-002	0.00000E+000	9	...........	1423.92
	32	2.8	1.00060E-001	1.01099E-005	0.00000E+000	9.98779E-002	0.00000E+000	9	...........	1423.92
	33	2.9	1.00058E-001	9.49606E-006	0.00000E+000	9.98779E-002	0.00000E+000	9	...........	1423.92
	34	3	1.00060E-001	8.93745E-006	0.00000E+000	9.98779E-002	0.00000E+000	9	...........	1423.92
	35	3.1	1.00057E-001	8.43489E-006	0.00000E+000	9.98779E-002	0.00000E+000	9	...........	1423.92
	36	3.2	1.00059E-001	7.94909E-006	0.00000E+000	9.98779E-002	0.00000E+000	9	...........	1423.92
	37	3.3	1.00060E-001	7.52993E-006	0.00000E+000	9.98779E-002	0.00000E+000	9	...........	1424.10
	38	3.4	1.00059E-001	7.14013E-006	0.00000E+000	9.98779E-002	0.00000E+000	9	...........	1424.10
	39	3.5	1.00059E-001	6.77335E-006	0.00000E+000	9.98779E-002	0.00000E+000	9	...........	1424.10
	40	3.6	1.00058E-001	6.42706E-006	0.00000E+000	9.98779E-002	0.00000E+000	9	...........	1424.10
	41	3.7	1.00059E-001	6.13095E-006	0.00000E+000	9.98779E-002	0.00000E+000	9	...........	1424.10
	42	3.8	1.00061E-001	5.84055E-006	0.00000E+000	9.98779E-002	0.00000E+000	9	...........	1424.10
	43	3.9	1.00061E-001	5.56110E-006	0.00000E+000	9.98779E-002	0.00000E+000	9	...........	1424.10
	44	4	1.00058E-001	5.31324E-006	0.00000E+000	9.98779E-002	0.00000E+000	9	...........	1424.10
	45	4.1	1.00061E-001	5.07973E-006	0.00000E+000	9.98779E-002	0.00000E+000	9	...........	1424.10
	46	4.2	1.00059E-001	4.86478E-006	0.00000E+000	9.98779E-002	0.00000E+000	9	...........	1424.10
	47	4.3	1.00059E-001	4.65366E-006	0.00000E+000	9.98779E-002	0.00000E+000	9	...........	1423.66
	48	4.4	1.00058E-001	4.44952E-006	0.00000E+000	9.98779E-002	0.00000E+000	9	...........	1423.66
	49	4.5	1.00059E-001	4.27884E-006	0.00000E+000	9.98779E-002	0.00000E+000	9	...........	1423.66
	50	4.6	1.00061E-001	4.10249E-006	0.00000E+000	9.98779E-002	0.00000E+000	9	...........	1423.66
	51	4.7	1.00059E-001	3.92658E-006	0.00000E+000	9.98779E-002	0.00000E+000	9	...........	1423.66
	52	4.8	1.00059E-001	3.76481E-006	0.00000E+000	9.98779E-002	0.00000E+000	9	...........	1423.66
	53	4.9	1.00058E-001	3.61515E-006	0.00000E+000	9.98779E-002	0.00000E+000	9	...........	1423.66
	54	5	1.00061E-001	3.48519E-006	0.00000E+000	9.98779E-002	0.00000E+000	9	...........	1423.66
	55	5.1	1.00059E-001	3.33613E-006	0.00000E+000	9.98779E-002	0.00000E+000	9	...........	1423.66
	56	5.2	1.00058E-001	3.20773E-006	0.00000E+000	9.98779E-002	0.00000E+000	9	...........	1423.66
	57	5.3	1.00058E-001	3.08244E-006	0.00000E+000	9.98779E-002	0.00000E+000	9	...........	1424.01
	58	5.4	1.00058E-001	2.96041E-006	0.00000E+000	9.98779E-002	0.00000E+000	9	...........	1424.01
	59	5.5	1.00058E-001	2.85487E-006	0.00000E+000	9.98779E-002	0.00000E+000	9	...........	1424.01
	60	5.6	1.00060E-001	2.75143E-006	0.00000E+000	9.98779E-002	0.00000E+000	9	...........	1424.01
	61	5.7	1.00059E-001	2.63638E-006	0.00000E+000	9.98779E-002	0.00000E+000	9	...........	1424.01
	62	5.8	1.00058E-001	2.53160E-006	0.00000E+000	9.98779E-002	0.00000E+000	9	...........	1424.01
	63	5.9	1.00058E-001	2.43807E-006	0.00000E+000	9.98779E-002	0.00000E+000	9	...........	1424.01
	64	6	1.00059E-001	2.34574E-006	0.00000E+000	9.98779E-002	0.00000E+000	9	...........	1424.01
	65	6.1	1.00058E-001	2.26586E-006	0.00000E+000	9.98779E-002	0.00000E+000	9	...........	1424.01
	66	7.1	1.00058E-001	1.50915E-006	0.00000E+000	9.98779E-002	0.00000E+000	9	...........	1424.10
	67	8.1	1.00057E-001	9.38393E-007	0.00000E+000	9.98779E-002	0.00000E+000	9	...........	1424.01
	68	9.1	1.00059E-001	4.84124E-007	0.00000E+000	9.98779E-002	0.00000E+000	9	...........	1424.10
	69	10.1	1.00060E-001	1.28857E-007	0.00000E+000	9.98779E-002	0.00000E+000	9	...........	1424.19
	70	11.1	1.00060E-001	-1.65146E-007	0.00000E+000	9.98779E-002	0.00000E+000	9	...........	1424.19
	71	12.1	1.00060E-001	-4.23045E-007	0.00000E+000	9.98779E-002	0.00000E+000	9	...........	1424.19
	72	13.1	1.00058E-001	-6.40236E-007	0.00000E+000	9.98779E-002	0.00000E+000	9	...........	1424.10
	73	14.1	1.00059E-001	-8.14816E-007	0.00000E+000	9.98779E-002	0.00000E+000	9	...........	1424.10
	74	15.1	1.00059E-001	-9.99974E-007	0.00000E+000	9.98779E-002	0.00000E+000	9	...........	1424.10
	75	16.1	1.00060E-001	-1.12864E-006	0.00000E+000	9.98779E-002	0.00000E+000	9	...........	1424.10
	76	26.1	1.00057E-001	-2.07442E-006	0.00000E+000	9.98779E-002	0.00000E+000	9	...........	1424.19
	77	36.1	1.00059E-001	-2.49425E-006	0.00000E+000	9.98779E-002	0.00000E+000	9	...........	1424.19
	78	46.1	1.00058E-001	-2.75375E-006	0.00000E+000	9.98779E-002	0.00000E+000	9	...........	1424.19
	79	56.1	1.00060E-001	-2.90144E-006	0.00000E+000	9.98779E-002	0.00000E+000	9	...........	1424.19
	80	66.1	1.00058E-001	-3.02563E-006	0.00000E+000	9.98779E-002	0.00000E+000	9	...........	1424.27
	81	76.1	1.00058E-001	-3.10935E-006	0.00000E+000	9.98779E-002	0.00000E+000	9	...........	1424.27
	82	86.1	1.00058E-001	-3.12370E-006	0.00000E+000	9.98779E-002	0.00000E+000	9	...........	1424.27
	83	96.1	1.00060E-001	-3.15720E-006	0.00000E+000	9.98779E-002	0.00000E+000	9	...........	1424.27
	84	106.1	1.00059E-001	-3.17672E-006	0.00000E+000	9.98779E-002	0.00000E+000	9	...........	1424.27
	85	116.1	1.00057E-001	-3.17989E-006	0.00000E+000	9.98779E-002	0.00000E+000	9	...........	1424.27
	86	216.1	1.00056E-001	-3.04051E-006	0.00000E+000	9.98779E-002	0.00000E+000	9	...........	1424.36
	87	300	1.00056E-001	-2.87134E-006	0.00000E+000	9.98779E-002	0.00000E+000	9	...........	1424.36
	88	300.1	1.50051E-001	1.81469E-004	0.00000E+000	1.49878E-001	0.00000E+000	9	...........	1424.36
	89	300.2	1.50057E-001	1.49740E-004	0.00000E+000	1.49878E-001	0.00000E+000	9	...........	1424.36
	90	300.3	1.50060E-001	1.24876E-004	0.00000E+000	1.49878E-001	0.00000E+000	9	...........	1424.27
	91	300.4	1.50060E-001	1.04840E-004	0.00000E+000	1.49878E-001	0.00000E+000	9	...........	1424.27
	92	300.5	1.50059E-001	8.84871E-005	0.00000E+000	1.49878E-001	0.00000E+000	9	...........	1424.27
	93	300.6	1.50060E-001	7.50477E-005	0.00000E+000	1.49878E-001	0.00000E+000	9	...........	1424.27
	94	300.7	1.50059E-001	6.39377E-005	0.00000E+000	1.49878E-001	0.00000E+000	9	...........	1424.27
	95	300.8	1.50060E-001	5.47239E-005	0.00000E+000	1.49878E-001	0.00000E+000	9	...........	1424.27
	96	300.9	1.50059E-001	4.70101E-005	0.00000E+000	1.49878E-001	0.00000E+000	9	...........	1424.27
	97	301	1.50061E-001	4.05683E-005	0.00000E+000	1.49878E-001	0.00000E+000	9	...........	1424.27
