Data from AuAgCoreShell_UA_100uM_CRN_0uM_R6G_10uM_Scan_RamanShift__18__14-30-19-787.txt Node

Date: Thu Jun 23 14:30:19 BST 2022
User: TCL
Spectrometer: QEP01345
Trigger mode: 4
Integration Time (sec): 7.000000E0
Scans to average: 10
Electric dark correction enabled: true
Nonlinearity correction enabled: false
Boxcar width: 0
XAxis mode: Raman Shifts
Number of Pixels in Spectrum: 1044
>>>>>Begin Spectral Data<<<<<
46.04893	-1.5125
50.45542	-0.4125
54.85868	-0.0125
59.25871	-0.9125
63.6555	34.6875
68.04907	34.7875
72.43941	37.9875
76.82654	40.7875
81.21044	45.8875
85.59113	48.8875
89.96862	48.8875
94.34289	48.3875
98.71396	51.6875
103.08183	53.2875
107.4465	57.3875
111.80798	55.8875
116.16626	60.3875
120.52136	54.3875
124.87327	57.0875
129.222	54.8875
133.56755	53.4875
137.90993	51.3875
142.24913	50.9875
146.58517	49.0875
150.91804	52.8875
155.24774	52.3875
159.57429	54.5875
163.89768	56.6875
168.21792	61.8875
172.53501	72.2875
176.84895	82.4875
181.15975	96.5875
185.46741	122.7875
189.77193	158.3875
194.07331	199.6875
198.37157	250.3875
202.6667	297.6875
206.9587	346.5875
211.24758	393.2875
215.53334	445.0875
219.81599	494.0875
224.09553	544.4875
228.37195	597.1875
232.64527	673.5875
236.91549	736.7875
241.18261	798.1875
245.44663	863.1875
249.70755	930.4875
253.96539	995.0875
258.22014	1030.1875
262.4718	1063.7875
266.72039	1081.4875
270.96589	1095.3875
275.20832	1086.8875
279.44768	1080.3875
283.68397	1067.3875
287.91719	1034.7875
292.14735	1024.0875
296.37445	1004.8875
300.59849	999.7875
304.81948	993.0875
309.03742	988.6875
313.25231	985.1875
317.46415	980.3875
321.67296	968.2875
325.87872	967.4875
330.08145	970.0875
334.28114	974.0875
338.47781	981.8875
342.67145	994.0875
346.86207	1005.3875
351.04966	1023.9875
355.23424	1032.9875
359.4158	1048.8875
363.59435	1065.7875
367.76989	1079.3875
371.94243	1087.3875
376.11196	1098.3875
380.27849	1107.4875
384.44203	1109.5875
388.60257	1131.3875
392.76012	1134.1875
396.91468	1148.2875
401.06626	1153.0875
405.21485	1163.1875
409.36047	1165.8875
413.50311	1164.3875
417.64277	1161.2875
421.77947	1165.0875
425.9132	1169.9875
430.04396	1172.7875
434.17176	1182.8875
438.2966	1178.3875
442.41849	1193.5875
446.53742	1195.6875
450.6534	1211.6875
454.76644	1221.1875
458.87653	1223.9875
462.98368	1220.6875
467.08789	1232.7875
471.18916	1229.7875
475.2875	1231.7875
479.38291	1237.2875
483.4754	1231.8875
487.56496	1253.9875
491.6516	1254.7875
495.73531	1252.1875
499.81612	1246.6875
503.89401	1251.7875
507.96899	1238.7875
512.04106	1242.2875
516.11023	1235.8875
520.1765	1240.0875
524.23987	1245.3875
528.30034	1231.2875
532.35792	1234.1875
536.41261	1230.2875
540.46441	1218.9875
544.51333	1219.5875
548.55936	1215.5875
552.60252	1216.4875
556.64279	1209.3875
560.6802	1214.6875
564.71473	1221.0875
568.7464	1225.0875
572.7752	1224.2875
576.80114	1226.0875
580.82422	1219.1875
584.84444	1223.0875
588.86181	1236.5875
592.87633	1242.2875
596.888	1242.5875
600.89682	1264.4875
604.9028	1286.5875
608.90594	1321.8875
612.90624	1401.3875
616.90371	1393.8875
620.89834	1336.6875
624.89015	1314.7875
628.87913	1323.4875
632.86528	1342.7875
636.84862	1360.4875
640.82913	1343.1875
644.80683	1325.0875
648.78172	1298.3875
652.75379	1288.3875
656.72306	1280.3875
660.68952	1277.9875
664.65319	1276.6875
668.61405	1268.0875
672.57211	1273.7875
676.52738	1274.3875
680.47986	1287.5875
684.42955	1310.1875
688.37646	1327.1875
692.32058	1318.1875
696.26192	1298.5875
700.20048	1291.6875
704.13626	1277.9875
708.06928	1276.2875
711.99952	1269.6875
715.927	1271.0875
719.85171	1268.4875
723.77365	1263.6875
727.69284	1268.4875
731.60928	1267.9875
735.52295	1262.4875
739.43388	1251.5875
743.34206	1250.9875
747.24749	1253.3875
751.15017	1252.4875
755.05012	1250.4875
758.94733	1256.3875
762.8418	1268.6875
766.73354	1296.7875
770.62254	1318.3875
774.50882	1343.3875
778.39237	1325.0875
782.27321	1300.3875
786.15132	1277.3875
790.02671	1266.1875
793.89938	1258.0875
797.76935	1262.6875
801.6366	1276.5875
805.50115	1278.9875
809.36299	1285.6875
813.22213	1285.4875
817.07857	1290.5875
820.93231	1275.9875
824.78336	1254.2875
828.63172	1246.2875
832.47738	1237.3875
836.32036	1239.1875
840.16066	1244.1875
843.99827	1238.5875
847.8332	1243.0875
851.66546	1233.9875
855.49504	1221.1875
859.32195	1221.8875
863.1462	1218.3875
866.96777	1221.1875
870.78668	1217.6875
874.60293	1241.0875
878.41652	1246.6875
882.22745	1250.6875
886.03573	1267.3875
889.84136	1264.9875
893.64433	1267.8875
897.44466	1252.2875
901.24235	1248.5875
905.0374	1232.0875
908.8298	1228.3875
912.61957	1225.5875
916.40671	1240.0875
920.19121	1247.8875
923.97308	1251.0875
927.75233	1254.5875
931.52895	1252.1875
935.30295	1237.0875
939.07433	1232.5875
942.84309	1216.8875
946.60924	1213.4875
950.37278	1203.1875
954.13371	1194.2875
957.89203	1172.4875
961.64774	1174.6875
965.40086	1169.0875
969.15137	1163.6875
972.89929	1146.0875
976.64461	1159.2875
980.38733	1141.4875
984.12747	1136.2875
987.86502	1133.1875
991.59999	1137.6875
995.33237	1132.6875
999.06217	1139.2875
1002.78939	1140.2875
1006.51404	1161.1875
1010.23611	1169.1875
1013.95561	1175.0875
1017.67255	1178.1875
1021.38692	1172.5875
1025.09872	1171.1875
1028.80796	1155.0875
1032.51465	1158.5875
1036.21877	1153.4875
1039.92035	1144.9875
1043.61937	1134.4875
1047.31584	1132.0875
1051.00976	1131.1875
1054.70114	1123.4875
1058.38998	1129.4875
1062.07627	1127.8875
1065.76003	1136.2875
1069.44126	1145.0875
1073.11995	1149.0875
1076.79611	1148.4875
1080.46974	1151.4875
1084.14085	1140.8875
1087.80943	1134.5875
1091.47549	1132.5875
1095.13903	1113.3875
1098.80005	1102.4875
1102.45857	1108.2875
1106.11456	1089.5875
1109.76805	1098.0875
1113.41903	1096.9875
1117.06751	1107.9875
1120.71348	1142.1875
1124.35696	1137.6875
1127.99793	1182.5875
1131.63641	1208.2875
1135.2724	1205.7875
1138.90589	1212.8875
1142.5369	1181.4875
1146.16542	1148.8875
1149.79145	1128.5875
1153.415	1111.3875
1157.03607	1085.2875
1160.65467	1084.3875
1164.27079	1080.0875
1167.88443	1084.7875
1171.49561	1092.8875
1175.10432	1112.8875
1178.71056	1140.3875
1182.31434	1165.7875
1185.91565	1167.8875
1189.51451	1158.8875
1193.11091	1151.4875
1196.70485	1142.5875
1200.29634	1147.8875
1203.88538	1138.9875
1207.47197	1129.1875
1211.05612	1100.9875
1214.63782	1096.5875
1218.21708	1084.7875
1221.79391	1081.2875
1225.36829	1067.2875
1228.94024	1069.8875
1232.50976	1065.7875
1236.07685	1067.1875
1239.6415	1064.0875
1243.20374	1069.1875
1246.76355	1074.3875
1250.32093	1073.2875
1253.8759	1083.1875
1257.42845	1084.6875
1260.97859	1092.7875
1264.52631	1091.8875
1268.07163	1093.9875
1271.61453	1093.9875
1275.15503	1109.9875
1278.69312	1098.3875
1282.22882	1097.2875
1285.76211	1099.5875
1289.29301	1108.9875
1292.82151	1106.8875
1296.34761	1124.1875
1299.87133	1145.8875
1303.39266	1168.9875
1306.9116	1190.9875
1310.42815	1214.3875
1313.94233	1234.5875
1317.45412	1224.8875
1320.96354	1202.6875
1324.47058	1175.0875
1327.97525	1158.7875
1331.47754	1139.2875
1334.97747	1141.3875
1338.47502	1153.4875
1341.97022	1166.2875
1345.46305	1189.3875
1348.95352	1213.9875
1352.44163	1254.1875
1355.92738	1293.1875
1359.41078	1354.0875
1362.89183	1402.2875
1366.37053	1407.2875
1369.84688	1345.7875
1373.32088	1273.3875
1376.79254	1227.2875
1380.26186	1197.4875
1383.72883	1186.9875
1387.19347	1162.4875
1390.65578	1145.1875
1394.11575	1135.0875
1397.57339	1110.7875
1401.0287	1100.6875
1404.48168	1088.7875
1407.93234	1075.6875
1411.38068	1067.7875
1414.82669	1054.4875
1418.27039	1049.7875
1421.71177	1033.5875
1425.15083	1024.2875
1428.58758	1005.8875
1432.02203	998.9875
1435.45416	987.8875
1438.88399	983.2875
1442.31151	974.3875
1445.73673	972.3875
1449.15965	975.1875
1452.58027	972.1875
1455.9986	972.6875
1459.41463	968.5875
1462.82837	969.1875
1466.23982	967.5875
1469.64898	971.2875
1473.05586	974.7875
1476.46045	973.3875
1479.86276	978.4875
1483.26279	970.6875
1486.66054	985.0875
1490.05602	988.4875
1493.44922	989.6875
1496.84016	1006.7875
1500.22882	1022.1875
1503.61521	1057.7875
1506.99934	1115.2875
1510.38121	1138.8875
1513.76081	1157.6875
1517.13816	1121.8875
1520.51324	1073.9875
1523.88607	1030.8875
1527.25665	996.8875
1530.62498	979.7875
1533.99105	981.5875
1537.35488	965.2875
1540.71647	971.6875
1544.07581	971.9875
1547.4329	976.8875
1550.78776	985.5875
1554.14038	983.5875
1557.49077	993.7875
1560.83892	997.6875
1564.18484	1002.9875
1567.52853	1005.0875
1570.86999	1015.6875
1574.20922	1031.6875
1577.54624	1030.3875
1580.88103	1032.9875
1584.2136	1013.6875
1587.54395	992.9875
1590.87208	967.3875
1594.19801	950.8875
1597.52172	948.9875
1600.84321	953.6875
1604.16251	934.9875
1607.47959	925.7875
1610.79447	931.4875
1614.10715	917.0875
1617.41763	908.0875
1620.7259	907.9875
1624.03199	901.7875
1627.33587	898.7875
1630.63757	900.5875
1633.93707	900.7875
1637.23439	905.1875
1640.52951	907.2875
1643.82246	921.7875
1647.11321	943.8875
1650.40179	965.7875
1653.68819	961.1875
1656.97241	929.2875
1660.25446	905.0875
1663.53433	863.7875
1666.81203	841.6875
1670.08756	833.9875
1673.36092	819.3875
1676.63211	809.0875
1679.90115	812.3875
1683.16801	798.9875
1686.43272	796.5875
1689.69527	798.5875
1692.95567	786.7875
1696.2139	784.8875
1699.46999	785.3875
1702.72392	770.8875
1705.97571	763.9875
1709.22535	743.4875
1712.47284	725.6875
1715.71819	718.9875
1718.96139	713.0875
1722.20246	698.5875
1725.44139	689.2875
1728.67818	686.3875
1731.91284	670.4875
1735.14537	670.7875
1738.37576	670.0875
1741.60403	658.1875
1744.83017	649.5875
1748.05418	639.6875
1751.27607	640.1875
1754.49584	643.7875
1757.71349	638.6875
1760.92903	626.9875
1764.14244	630.2875
1767.35375	639.1875
1770.56294	627.6875
1773.77002	628.4875
1776.97499	619.9875
1780.17785	617.5875
1783.37861	619.9875
1786.57727	611.9875
1789.77382	607.3875
1792.96828	605.5875
1796.16064	604.4875
1799.3509	605.8875
1802.53907	603.4875
1805.72514	601.0875
1808.90913	594.7875
1812.09102	585.6875
1815.27083	591.7875
1818.44856	591.0875
1821.6242	582.9875
1824.79776	581.2875
1827.96924	576.9875
1831.13864	578.0875
1834.30597	585.6875
1837.47122	573.3875
1840.6344	570.7875
1843.7955	567.0875
1846.95454	571.7875
1850.11151	568.5875
1853.26642	562.1875
1856.41926	560.2875
1859.57004	564.4875
1862.71876	561.5875
1865.86542	558.6875
1869.01003	556.1875
1872.15258	551.5875
1875.29308	552.9875
1878.43152	547.4875
1881.56792	551.3875
1884.70227	544.7875
1887.83457	544.5875
1890.96482	549.3875
1894.09304	542.9875
1897.21921	537.7875
1900.34335	535.2875
1903.46544	538.9875
1906.58551	537.1875
1909.70353	537.1875
1912.81953	535.8875
1915.93349	537.8875
1919.04543	531.5875
1922.15534	528.7875
1925.26322	525.5875
1928.36908	523.3875
1931.47292	519.9875
1934.57473	525.0875
1937.67453	518.2875
1940.77232	516.4875
1943.86808	518.6875
1946.96184	516.9875
1950.05358	506.2875
1953.14331	511.9875
1956.23103	503.7875
1959.31675	509.5875
1962.40046	499.1875
1965.48217	499.9875
1968.56188	500.1875
1971.63959	495.8875
1974.7153	491.6875
1977.78901	493.0875
1980.86073	487.7875
1983.93046	484.2875
1986.99819	485.6875
1990.06394	480.3875
1993.1277	482.0875
1996.18947	480.0875
1999.24925	479.0875
2002.30706	474.4875
2005.36288	473.3875
2008.41672	473.8875
2011.46859	468.8875
2014.51848	459.9875
2017.56639	462.3875
2020.61233	461.0875
2023.6563	459.4875
2026.6983	454.3875
2029.73833	453.2875
2032.7764	457.6875
2035.8125	451.6875
2038.84664	451.1875
2041.87881	457.5875
2044.90903	449.3875
2047.93729	449.6875
2050.96359	447.4875
2053.98794	447.7875
2057.01034	446.8875
2060.03078	448.9875
2063.04927	443.8875
2066.06582	447.4875
2069.08042	440.6875
2072.09307	440.8875
2075.10378	437.4875
2078.11255	433.6875
2081.11938	444.3875
2084.12426	438.9875
2087.12722	440.9875
2090.12824	439.4875
2093.12732	433.7875
2096.12447	437.5875
2099.11969	434.7875
2102.11299	438.3875
2105.10435	432.8875
2108.09379	436.4875
2111.08131	430.1875
2114.0669	434.0875
2117.05057	435.1875
2120.03233	431.5875
2123.01216	435.3875
2125.99008	436.7875
2128.96609	440.0875
2131.94018	431.2875
2134.91236	437.7875
2137.88263	436.7875
2140.851	432.7875
2143.81746	441.2875
2146.78201	436.9875
2149.74466	436.7875
2152.7054	442.9875
2155.66425	439.2875
2158.6212	447.0875
2161.57625	447.1875
2164.52941	448.7875
2167.48067	445.0875
2170.43004	451.4875
2173.37752	450.8875
2176.32311	450.8875
2179.26681	442.5875
2182.20863	446.6875
2185.14856	443.1875
2188.08661	438.8875
2191.02278	435.1875
2193.95707	425.8875
2196.88948	420.8875
2199.82001	420.5875
2202.74867	413.5875
2205.67545	409.3875
2208.60037	405.8875
2211.52341	408.3875
2214.44458	397.2875
2217.36388	400.7875
2220.28132	404.2875
2223.1969	397.0875
2226.11061	398.8875
2229.02246	394.0875
2231.93245	394.1875
2234.84058	394.4875
2237.74686	390.5875
2240.65128	388.9875
2243.55385	388.2875
2246.45456	383.1875
2249.35343	386.3875
2252.25044	387.5875
2255.14561	383.4875
2258.03893	382.6875
2260.93041	377.9875
2263.82004	381.2875
2266.70783	374.0875
2269.59378	378.0875
2272.4779	368.5875
2275.36017	373.5875
2278.24061	368.5875
2281.11922	372.0875
2283.996	369.9875
2286.87094	366.6875
2289.74405	362.6875
2292.61534	363.5875
2295.4848	360.4875
2298.35243	368.9875
2301.21824	364.1875
2304.08223	355.8875
2306.94439	359.4875
2309.80474	358.1875
2312.66327	356.1875
2315.51999	351.9875
2318.37489	355.6875
2321.22797	353.9875
2324.07925	360.5875
2326.92871	356.3875
2329.77637	363.9875
2332.62222	355.2875
2335.46626	347.6875
2338.3085	347.5875
2341.14893	348.8875
2343.98756	339.5875
2346.8244	345.3875
2349.65943	340.0875
2352.49267	342.2875
2355.32411	338.3875
2358.15376	339.0875
2360.98161	340.3875
2363.80768	337.1875
2366.63195	334.5875
2369.45444	337.7875
2372.27514	338.9875
2375.09405	334.4875
2377.91118	334.8875
2380.72652	329.3875
2383.54009	332.0875
2386.35187	333.4875
2389.16188	325.1875
2391.97011	331.3875
2394.77657	328.8875
2397.58125	326.7875
2400.38416	327.8875
2403.18529	328.8875
2405.98466	321.5875
2408.78226	324.0875
2411.57809	318.7875
2414.37216	312.6875
2417.16446	317.4875
2419.955	322.9875
2422.74378	319.0875
2425.5308	316.6875
2428.31606	316.1875
2431.09956	318.6875
2433.88131	316.5875
2436.6613	310.0875
2439.43954	312.7875
2442.21603	310.4875
2444.99077	312.6875
2447.76377	309.7875
2450.53501	312.1875
2453.30451	306.7875
2456.07226	305.5875
2458.83827	311.2875
2461.60254	309.1875
2464.36507	303.1875
2467.12586	302.5875
2469.88492	303.4875
2472.64224	306.7875
2475.39782	296.1875
2478.15167	297.8875
2480.90379	296.8875
2483.65417	301.2875
2486.40283	295.7875
2489.14976	296.2875
2491.89497	298.1875
2494.63845	296.7875
2497.3802	298.0875
2500.12024	299.9875
2502.85855	295.8875
2505.59514	294.7875
2508.33002	289.5875
2511.06318	296.7875
2513.79462	295.0875
2516.52435	287.9875
2519.25237	289.5875
2521.97867	285.4875
2524.70327	284.4875
2527.42616	287.2875
2530.14734	288.2875
2532.86681	289.3875
2535.58458	286.7875
2538.30065	281.8875
2541.01501	282.8875
2543.72768	281.6875
2546.43864	285.7875
2549.14791	278.2875
2551.85548	284.6875
2554.56136	276.5875
2557.26554	275.0875
2559.96803	278.9875
2562.66883	275.4875
2565.36794	276.6875
2568.06536	274.3875
2570.7611	269.4875
2573.45514	271.5875
2576.14751	272.6875
2578.83819	270.3875
2581.52719	276.4875
2584.21451	266.7875
2586.90015	270.4875
2589.58411	267.3875
2592.2664	265.5875
2594.94701	267.6875
2597.62594	264.2875
2600.30321	267.5875
2602.9788	263.7875
2605.65273	263.9875
2608.32498	265.2875
2610.99557	262.6875
2613.66449	263.9875
2616.33175	260.8875
2618.99734	257.5875
2621.66128	260.4875
2624.32355	256.4875
2626.98416	256.1875
2629.64311	257.8875
2632.30041	255.4875
2634.95605	253.2875
2637.61004	260.6875
2640.26238	255.6875
2642.91306	254.0875
2645.56209	252.7875
2648.20948	253.9875
2650.85521	253.3875
2653.4993	252.0875
2656.14175	252.6875
2658.78255	250.9875
2661.42171	247.3875
2664.05923	253.0875
2666.6951	251.4875
2669.32934	251.1875
2671.96194	251.6875
2674.59291	248.7875
2677.22224	254.2875
2679.84993	250.5875
2682.476	253.6875
2685.10043	247.6875
2687.72324	246.0875
2690.34441	251.6875
2692.96396	246.7875
2695.58188	246.0875
2698.19818	250.0875
2700.81285	254.5875
2703.4259	249.0875
2706.03733	246.3875
2708.64714	250.8875
2711.25533	249.3875
2713.86191	245.5875
2716.46687	244.2875
2719.07021	240.8875
2721.67194	248.7875
2724.27206	248.9875
2726.87057	244.1875
2729.46747	245.7875
2732.06276	246.9875
2734.65644	250.7875
2737.24852	245.6875
2739.83899	249.0875
2742.42786	245.3875
2745.01513	242.7875
2747.60079	247.4875
2750.18486	247.8875
2752.76733	243.6875
2755.3482	242.5875
2757.92747	241.6875
2760.50515	238.6875
2763.08123	244.0875
2765.65573	245.0875
2768.22863	242.9875
2770.79994	241.8875
2773.36967	238.2875
2775.9378	240.0875
2778.50435	237.8875
2781.06932	237.0875
2783.6327	239.7875
2786.1945	236.3875
2788.75471	237.3875
2791.31335	239.3875
2793.87041	237.8875
2796.42589	235.1875
2798.97979	237.6875
2801.53212	235.1875
2804.08288	234.6875
2806.63206	235.9875
2809.17967	236.0875
2811.72571	233.7875
2814.27018	227.5875
2816.81308	233.8875
2819.35442	229.0875
2821.89419	229.8875
2824.43239	233.2875
2826.96904	227.7875
2829.50412	229.3875
2832.03763	227.3875
2834.56959	229.7875
2837.1	228.7875
2839.62884	223.1875
2842.15613	229.4875
2844.68186	225.8875
2847.20604	227.6875
2849.72867	228.7875
2852.24974	227.9875
2854.76927	224.6875
2857.28724	233.7875
2859.80367	227.4875
2862.31855	230.7875
2864.83189	228.6875
2867.34368	228.9875
2869.85393	235.9875
2872.36264	233.9875
2874.8698	228.3875
2877.37543	228.8875
2879.87952	231.2875
2882.38207	224.3875
2884.88308	231.6875
2887.38256	234.5875
2889.88051	231.8875
2892.37692	230.8875
2894.8718	234.3875
2897.36515	234.7875
2899.85698	235.5875
2902.34727	235.1875
2904.83604	237.5875
2907.32328	238.6875
2909.809	242.3875
2912.29319	243.2875
2914.77587	244.4875
2917.25702	241.3875
2919.73665	245.7875
2922.21476	246.5875
2924.69136	246.8875
2927.16644	247.9875
2929.64	242.6875
2932.11205	249.9875
2934.58258	249.6875
2937.05161	251.8875
2939.51912	250.5875
2941.98513	247.8875
2944.44962	253.5875
2946.91261	250.9875
2949.37409	251.4875
2951.83407	244.6875
2954.29254	253.9875
2956.74951	246.7875
2959.20498	250.1875
2961.65895	250.9875
2964.11142	246.7875
2966.56239	246.6875
2969.01186	249.7875
2971.45984	249.2875
2973.90632	245.7875
2976.35131	254.1875
2978.7948	250.7875
2981.23681	254.7875
2983.67732	254.5875
2986.11635	254.6875
2988.55388	248.1875
2990.98993	257.1875
2993.4245	252.0875
2995.85758	252.5875
2998.28917	258.0875
3000.71928	258.3875
3003.14791	261.8875
3005.57506	256.9875
3008.00073	262.5875
3010.42493	265.9875
3012.84764	264.8875
3015.26888	269.6875
3017.68865	267.7875
3020.10694	268.4875
3022.52376	266.0875
3024.9391	271.4875
3027.35298	277.0875
3029.76539	278.1875
3032.17632	278.7875
3034.5858	277.4875
3036.9938	284.2875
3039.40034	285.6875
3041.80542	284.0875
3044.20903	287.3875
3046.61118	293.0875
3049.01187	292.6875
3051.4111	295.5875
3053.80888	298.4875
3056.20519	299.7875
3058.60005	300.3875
3060.99345	307.0875
3063.3854	306.9875
3065.7759	314.1875
3068.16494	318.4875
3070.55254	313.6875
3072.93868	326.4875
3075.32338	318.6875
3077.70662	326.2875
3080.08842	326.0875
3082.46878	332.6875
3084.84769	336.5875
3087.22515	336.2875
3089.60118	345.2875
3091.97576	341.9875
3094.3489	356.3875
3096.72061	357.2875
3099.09087	364.6875
3101.4597	364.0875
3103.82709	371.3875
3106.19305	377.5875
3108.55757	379.6875
3110.92066	382.4875
3113.28232	392.5875
3115.64255	392.9875
3118.00134	398.2875
3120.35871	401.4875
3122.71466	409.0875
3125.06917	413.8875
3127.42226	416.4875
3129.77393	422.8875
3132.12417	431.1875
3134.47299	440.5875
3136.82039	440.5875
3139.16636	448.1875
3141.51092	450.6875
3143.85406	459.1875
3146.19579	462.5875
3148.53609	468.6875
3150.87499	476.9875
3153.21246	484.8875
3155.54853	486.2875
3157.88318	494.8875
3160.21642	505.6875
3162.54826	509.5875
3164.87868	515.3875
3167.2077	523.3875
3169.5353	527.0875
3171.86151	535.3875
3174.18631	539.3875
3176.5097	545.7875
3178.83169	545.6875
3181.15228	551.9875
3183.47147	564.1875
3185.78926	563.8875
3188.10565	576.2875
3190.42065	572.9875
3192.73424	582.5875
3195.04645	579.3875
3197.35725	589.5875
3199.66667	591.1875
3201.97469	600.5875
3204.28132	603.4875
3206.58656	605.6875
3208.8904	612.8875
3211.19287	616.3875
3213.49394	627.6875
3215.79363	626.2875
3218.09193	631.0875
3220.38884	629.0875
3222.68438	634.7875
3224.97853	639.1875
3227.2713	641.4875
3229.56269	646.9875
3231.8527	647.3875
3234.14133	647.5875
3236.42858	643.4875
3238.71446	643.6875
3240.99896	648.9875
3243.28209	650.4875
3245.56384	650.5875
3247.84423	649.1875
3250.12324	649.8875
3252.40088	649.4875
3254.67715	658.1875
3256.95205	647.6875
3259.22558	660.3875
3261.49775	655.3875
3263.76855	657.2875
3266.03799	660.2875
3268.30606	649.4875
3270.57277	661.2875
3272.83812	650.2875
3275.10211	657.4875
3277.36474	658.9875
3279.62601	657.6875
3281.88593	661.7875
3284.14448	658.8875
3286.40168	650.1875
3288.65753	661.8875
3290.91202	658.1875
3293.16516	657.1875
3295.41695	655.8875
3297.66738	646.8875
3299.91647	651.2875
3302.16421	649.6875
3304.4106	644.9875
3306.65564	648.4875
3308.89933	643.6875
3311.14169	639.1875
3313.38269	628.3875
3315.62236	635.4875
3317.86068	629.1875
3320.09766	622.8875
3322.3333	621.9875
3324.5676	618.8875
3326.80056	619.1875
3329.03219	609.5875
3331.26248	0.4875
3333.49143	0.3875
3335.71905	1.2875
