Data from AgNPs_APTES_FTO_UA_100uM_CRN_0uM_R6G_10uM_Scan_RamanShift__70__12-01-21-323.txt Node

Date: Wed Jun 29 12:01:21 BST 2022
User: TCL
Spectrometer: QEP01345
Trigger mode: 4
Integration Time (sec): 7.000000E0
Scans to average: 10
Electric dark correction enabled: true
Nonlinearity correction enabled: false
Boxcar width: 0
XAxis mode: Raman Shifts
Number of Pixels in Spectrum: 1044
>>>>>Begin Spectral Data<<<<<
46.04893	0.0625
50.45542	2.2625
54.85868	0.3625
59.25871	1.1625
63.6555	40.9625
68.04907	43.3625
72.43941	45.1625
76.82654	48.8625
81.21044	49.4625
85.59113	55.1625
89.96862	58.8625
94.34289	57.7625
98.71396	65.9625
103.08183	61.9625
107.4465	62.7625
111.80798	62.6625
116.16626	63.1625
120.52136	64.3625
124.87327	61.1625
129.222	59.5625
133.56755	56.3625
137.90993	62.0625
142.24913	58.1625
146.58517	58.8625
150.91804	60.5625
155.24774	61.8625
159.57429	68.8625
163.89768	73.7625
168.21792	86.8625
172.53501	104.4625
176.84895	133.3625
181.15975	172.6625
185.46741	225.6625
189.77193	294.0625
194.07331	382.5625
198.37157	489.1625
202.6667	604.0625
206.9587	712.1625
211.24758	825.8625
215.53334	959.6625
219.81599	1096.5625
224.09553	1243.4625
228.37195	1416.6625
232.64527	1606.6625
236.91549	1787.8625
241.18261	1926.9625
245.44663	2053.0625
249.70755	2149.7625
253.96539	2230.8625
258.22014	2308.2625
262.4718	2385.9625
266.72039	2423.5625
270.96589	2427.9625
275.20832	2385.3625
279.44768	2305.6625
283.68397	2240.9625
287.91719	2184.0625
292.14735	2186.2625
296.37445	2259.7625
300.59849	2394.1625
304.81948	2544.1625
309.03742	2662.6625
313.25231	2651.8625
317.46415	2528.3625
321.67296	2290.6625
325.87872	2124.9625
330.08145	2046.4625
334.28114	2049.6625
338.47781	2109.7625
342.67145	2183.8625
346.86207	2311.8625
351.04966	2477.1625
355.23424	2673.6625
359.4158	2805.7625
363.59435	2858.8625
367.76989	2862.6625
371.94243	2847.7625
376.11196	2838.8625
380.27849	2831.1625
384.44203	2778.1625
388.60257	2735.6625
392.76012	2716.5625
396.91468	2722.9625
401.06626	2786.0625
405.21485	2822.1625
409.36047	2737.6625
413.50311	2544.7625
417.64277	2371.4625
421.77947	2265.1625
425.9132	2211.9625
430.04396	2213.5625
434.17176	2230.6625
438.2966	2265.7625
442.41849	2328.9625
446.53742	2389.9625
450.6534	2455.6625
454.76644	2492.2625
458.87653	2491.2625
462.98368	2462.9625
467.08789	2419.3625
471.18916	2364.8625
475.2875	2307.5625
479.38291	2267.8625
483.4754	2221.4625
487.56496	2200.8625
491.6516	2199.9625
495.73531	2209.0625
499.81612	2212.1625
503.89401	2246.8625
507.96899	2273.2625
512.04106	2326.3625
516.11023	2387.3625
520.1765	2422.2625
524.23987	2435.8625
528.30034	2405.2625
532.35792	2364.6625
536.41261	2318.8625
540.46441	2281.8625
544.51333	2244.6625
548.55936	2259.1625
552.60252	2299.1625
556.64279	2350.7625
560.6802	2389.0625
564.71473	2462.4625
568.7464	2586.6625
572.7752	2609.3625
576.80114	2455.5625
580.82422	2314.1625
584.84444	2267.9625
588.86181	2270.7625
592.87633	2340.6625
596.888	2397.3625
600.89682	2529.2625
604.9028	2961.4625
608.90594	4088.8625
612.90624	5428.7625
616.90371	5088.8625
620.89834	3374.0625
624.89015	2588.6625
628.87913	2479.1625
632.86528	2539.8625
636.84862	2607.8625
640.82913	2556.6625
644.80683	2403.6625
648.78172	2280.4625
652.75379	2287.8625
656.72306	2396.2625
660.68952	2529.2625
664.65319	2477.2625
668.61405	2295.0625
672.57211	2217.6625
676.52738	2224.6625
680.47986	2209.8625
684.42955	2177.9625
688.37646	2169.9625
692.32058	2179.2625
696.26192	2202.9625
700.20048	2250.0625
704.13626	2250.1625
708.06928	2250.4625
711.99952	2226.0625
715.927	2234.6625
719.85171	2268.1625
723.77365	2278.1625
727.69284	2264.5625
731.60928	2255.4625
735.52295	2251.5625
739.43388	2258.4625
743.34206	2269.9625
747.24749	2252.4625
751.15017	2268.5625
755.05012	2268.7625
758.94733	2448.8625
762.8418	2823.5625
766.73354	3441.2625
770.62254	4029.4625
774.50882	4369.1625
778.39237	4228.8625
782.27321	3575.3625
786.15132	2931.1625
790.02671	2537.1625
793.89938	2372.9625
797.76935	2316.3625
801.6366	2288.1625
805.50115	2285.2625
809.36299	2278.8625
813.22213	2269.7625
817.07857	2262.7625
820.93231	2267.6625
824.78336	2256.2625
828.63172	2271.2625
832.47738	2271.1625
836.32036	2252.0625
840.16066	2234.3625
843.99827	2231.7625
847.8332	2217.7625
851.66546	2211.4625
855.49504	2212.3625
859.32195	2215.4625
863.1462	2207.4625
866.96777	2193.4625
870.78668	2203.2625
874.60293	2221.0625
878.41652	2246.5625
882.22745	2268.4625
886.03573	2295.5625
889.84136	2285.6625
893.64433	2289.7625
897.44466	2280.1625
901.24235	2272.7625
905.0374	2246.3625
908.8298	2219.4625
912.61957	2185.1625
916.40671	2186.1625
920.19121	2186.2625
923.97308	2206.6625
927.75233	2249.5625
931.52895	2303.2625
935.30295	2289.0625
939.07433	2207.5625
942.84309	2152.7625
946.60924	2101.0625
950.37278	2097.7625
954.13371	2076.6625
957.89203	2082.2625
961.64774	2061.1625
965.40086	2063.9625
969.15137	2054.5625
972.89929	2058.1625
976.64461	2065.9625
980.38733	2058.1625
984.12747	2064.3625
987.86502	2074.9625
991.59999	2089.6625
995.33237	2114.8625
999.06217	2151.6625
1002.78939	2203.9625
1006.51404	2244.2625
1010.23611	2296.0625
1013.95561	2308.6625
1017.67255	2299.8625
1021.38692	2280.7625
1025.09872	2237.8625
1028.80796	2220.4625
1032.51465	2227.7625
1036.21877	2247.0625
1039.92035	2261.4625
1043.61937	2275.8625
1047.31584	2262.3625
1051.00976	2245.4625
1054.70114	2231.4625
1058.38998	2219.1625
1062.07627	2235.6625
1065.76003	2230.7625
1069.44126	2233.9625
1073.11995	2266.2625
1076.79611	2323.8625
1080.46974	2413.8625
1084.14085	2517.9625
1087.80943	2616.9625
1091.47549	2623.5625
1095.13903	2545.4625
1098.80005	2438.2625
1102.45857	2374.2625
1106.11456	2360.5625
1109.76805	2416.4625
1113.41903	2511.9625
1117.06751	2664.7625
1120.71348	2846.2625
1124.35696	3074.2625
1127.99793	3232.7625
1131.63641	3132.6625
1135.2724	2912.7625
1138.90589	2712.7625
1142.5369	2572.3625
1146.16542	2473.8625
1149.79145	2410.8625
1153.415	2372.9625
1157.03607	2378.2625
1160.65467	2409.4625
1164.27079	2487.7625
1167.88443	2630.3625
1171.49561	2870.0625
1175.10432	3272.7625
1178.71056	3850.2625
1182.31434	4386.2625
1185.91565	4511.6625
1189.51451	4277.2625
1193.11091	3877.6625
1196.70485	3502.6625
1200.29634	3286.2625
1203.88538	3097.5625
1207.47197	2855.1625
1211.05612	2636.5625
1214.63782	2512.2625
1218.21708	2466.3625
1221.79391	2450.5625
1225.36829	2436.8625
1228.94024	2431.4625
1232.50976	2414.4625
1236.07685	2411.2625
1239.6415	2429.3625
1243.20374	2453.3625
1246.76355	2482.1625
1250.32093	2509.6625
1253.8759	2550.1625
1257.42845	2641.9625
1260.97859	2768.9625
1264.52631	2906.2625
1268.07163	3024.5625
1271.61453	3096.0625
1275.15503	3131.9625
1278.69312	3104.3625
1282.22882	3091.0625
1285.76211	3180.6625
1289.29301	3315.9625
1292.82151	3506.9625
1296.34761	3662.9625
1299.87133	3953.6625
1303.39266	4449.4625
1306.9116	5217.4625
1310.42815	5953.4625
1313.94233	6124.3625
1317.45412	5594.3625
1320.96354	4826.0625
1324.47058	4148.3625
1327.97525	3646.0625
1331.47754	3342.4625
1334.97747	3242.7625
1338.47502	3286.2625
1341.97022	3462.5625
1345.46305	3803.9625
1348.95352	4285.8625
1352.44163	4904.6625
1355.92738	5779.2625
1359.41078	7105.9625
1362.89183	8206.6625
1366.37053	7698.8625
1369.84688	6038.0625
1373.32088	4709.2625
1376.79254	3961.7625
1380.26186	3583.6625
1383.72883	3314.7625
1387.19347	3074.0625
1390.65578	2863.5625
1394.11575	2689.4625
1397.57339	2597.3625
1401.0287	2554.8625
1404.48168	2529.6625
1407.93234	2519.8625
1411.38068	2550.2625
1414.82669	2594.1625
1418.27039	2612.0625
1421.71177	2606.2625
1425.15083	2568.8625
1428.58758	2590.1625
1432.02203	2664.5625
1435.45416	2732.0625
1438.88399	2736.2625
1442.31151	2716.2625
1445.73673	2702.7625
1449.15965	2691.3625
1452.58027	2652.7625
1455.9986	2614.5625
1459.41463	2569.5625
1462.82837	2600.0625
1466.23982	2687.6625
1469.64898	2781.6625
1473.05586	2838.8625
1476.46045	2884.2625
1479.86276	2946.3625
1483.26279	3058.1625
1486.66054	3183.0625
1490.05602	3347.8625
1493.44922	3645.1625
1496.84016	4065.5625
1500.22882	4744.9625
1503.61521	5751.9625
1506.99934	6884.4625
1510.38121	7747.8625
1513.76081	7746.2625
1517.13816	6802.9625
1520.51324	5484.6625
1523.88607	4388.3625
1527.25665	3720.5625
1530.62498	3377.8625
1533.99105	3182.0625
1537.35488	3063.0625
1540.71647	2990.3625
1544.07581	2990.0625
1547.4329	3018.0625
1550.78776	3048.3625
1554.14038	3065.9625
1557.49077	3099.1625
1560.83892	3161.7625
1564.18484	3318.6625
1567.52853	3549.8625
1570.86999	3785.2625
1574.20922	3903.4625
1577.54624	3827.5625
1580.88103	3510.6625
1584.2136	3125.5625
1587.54395	2869.5625
1590.87208	2830.3625
1594.19801	2989.4625
1597.52172	3242.3625
1600.84321	3352.3625
1604.16251	3246.2625
1607.47959	3028.7625
1610.79447	2806.9625
1614.10715	2592.1625
1617.41763	2444.0625
1620.7259	2354.5625
1624.03199	2338.4625
1627.33587	2358.4625
1630.63757	2415.0625
1633.93707	2522.8625
1637.23439	2761.6625
1640.52951	3178.0625
1643.82246	3816.3625
1647.11321	4589.3625
1650.40179	5111.3625
1653.68819	4929.8625
1656.97241	4114.1625
1660.25446	3289.2625
1663.53433	2756.8625
1666.81203	2431.7625
1670.08756	2264.8625
1673.36092	2167.8625
1676.63211	2098.2625
1679.90115	2058.3625
1683.16801	2011.8625
1686.43272	1995.4625
1689.69527	1973.5625
1692.95567	1968.9625
1696.2139	1957.2625
1699.46999	1954.5625
1702.72392	1932.4625
1705.97571	1930.0625
1709.22535	1906.3625
1712.47284	1897.8625
1715.71819	1909.0625
1718.96139	1897.8625
1722.20246	1874.4625
1725.44139	1866.2625
1728.67818	1849.3625
1731.91284	1821.5625
1735.14537	1815.8625
1738.37576	1821.5625
1741.60403	1805.9625
1744.83017	1787.7625
1748.05418	1791.9625
1751.27607	1780.4625
1754.49584	1781.0625
1757.71349	1787.7625
1760.92903	1779.9625
1764.14244	1768.5625
1767.35375	1768.1625
1770.56294	1757.1625
1773.77002	1748.6625
1776.97499	1736.0625
1780.17785	1729.5625
1783.37861	1717.5625
1786.57727	1713.9625
1789.77382	1718.7625
1792.96828	1712.2625
1796.16064	1701.5625
1799.3509	1702.0625
1802.53907	1702.5625
1805.72514	1700.8625
1808.90913	1679.4625
1812.09102	1674.7625
1815.27083	1677.8625
1818.44856	1674.4625
1821.6242	1665.2625
1824.79776	1657.1625
1827.96924	1645.2625
1831.13864	1652.8625
1834.30597	1650.0625
1837.47122	1636.3625
1840.6344	1643.9625
1843.7955	1641.5625
1846.95454	1635.8625
1850.11151	1630.5625
1853.26642	1632.9625
1856.41926	1622.7625
1859.57004	1624.4625
1862.71876	1630.7625
1865.86542	1635.1625
1869.01003	1629.2625
1872.15258	1628.5625
1875.29308	1618.8625
1878.43152	1627.8625
1881.56792	1632.0625
1884.70227	1620.8625
1887.83457	1617.1625
1890.96482	1603.6625
1894.09304	1618.1625
1897.21921	1605.8625
1900.34335	1604.7625
1903.46544	1607.6625
1906.58551	1604.4625
1909.70353	1608.4625
1912.81953	1615.8625
1915.93349	1610.9625
1919.04543	1614.9625
1922.15534	1603.5625
1925.26322	1595.4625
1928.36908	1592.2625
1931.47292	1583.8625
1934.57473	1586.0625
1937.67453	1575.6625
1940.77232	1581.8625
1943.86808	1574.0625
1946.96184	1569.2625
1950.05358	1570.2625
1953.14331	1557.3625
1956.23103	1556.6625
1959.31675	1553.2625
1962.40046	1544.6625
1965.48217	1540.3625
1968.56188	1539.8625
1971.63959	1540.3625
1974.7153	1523.5625
1977.78901	1525.5625
1980.86073	1514.9625
1983.93046	1517.6625
1986.99819	1510.2625
1990.06394	1506.6625
1993.1277	1501.7625
1996.18947	1488.1625
1999.24925	1488.8625
2002.30706	1482.7625
2005.36288	1484.0625
2008.41672	1477.8625
2011.46859	1464.5625
2014.51848	1469.1625
2017.56639	1458.3625
2020.61233	1462.2625
2023.6563	1456.1625
2026.6983	1439.5625
2029.73833	1447.4625
2032.7764	1443.7625
2035.8125	1448.5625
2038.84664	1443.6625
2041.87881	1447.8625
2044.90903	1438.2625
2047.93729	1431.7625
2050.96359	1433.8625
2053.98794	1426.0625
2057.01034	1425.8625
2060.03078	1422.4625
2063.04927	1423.0625
2066.06582	1427.0625
2069.08042	1426.9625
2072.09307	1429.2625
2075.10378	1421.9625
2078.11255	1415.6625
2081.11938	1415.8625
2084.12426	1419.2625
2087.12722	1428.1625
2090.12824	1423.2625
2093.12732	1419.1625
2096.12447	1422.9625
2099.11969	1415.3625
2102.11299	1430.8625
2105.10435	1421.5625
2108.09379	1419.7625
2111.08131	1418.8625
2114.0669	1429.1625
2117.05057	1440.3625
2120.03233	1432.3625
2123.01216	1443.9625
2125.99008	1432.5625
2128.96609	1434.2625
2131.94018	1439.2625
2134.91236	1420.2625
2137.88263	1442.6625
2140.851	1441.0625
2143.81746	1439.3625
2146.78201	1431.1625
2149.74466	1433.9625
2152.7054	1431.5625
2155.66425	1431.1625
2158.6212	1441.0625
2161.57625	1427.6625
2164.52941	1427.6625
2167.48067	1426.6625
2170.43004	1421.4625
2173.37752	1422.8625
2176.32311	1432.6625
2179.26681	1425.9625
2182.20863	1427.0625
2185.14856	1432.8625
2188.08661	1426.3625
2191.02278	1433.4625
2193.95707	1429.3625
2196.88948	1419.8625
2199.82001	1421.8625
2202.74867	1422.2625
2205.67545	1418.5625
2208.60037	1421.2625
2211.52341	1424.6625
2214.44458	1417.5625
2217.36388	1410.4625
2220.28132	1413.8625
2223.1969	1413.2625
2226.11061	1407.6625
2229.02246	1401.9625
2231.93245	1398.8625
2234.84058	1387.3625
2237.74686	1399.4625
2240.65128	1390.0625
2243.55385	1397.3625
2246.45456	1392.6625
2249.35343	1391.2625
2252.25044	1390.4625
2255.14561	1399.5625
2258.03893	1403.2625
2260.93041	1396.1625
2263.82004	1398.3625
2266.70783	1392.8625
2269.59378	1393.5625
2272.4779	1385.1625
2275.36017	1389.1625
2278.24061	1376.7625
2281.11922	1376.3625
2283.996	1366.1625
2286.87094	1369.9625
2289.74405	1366.5625
2292.61534	1367.3625
2295.4848	1365.1625
2298.35243	1364.0625
2301.21824	1360.8625
2304.08223	1359.8625
2306.94439	1359.1625
2309.80474	1359.7625
2312.66327	1356.0625
2315.51999	1360.7625
2318.37489	1355.4625
2321.22797	1352.2625
2324.07925	1361.5625
2326.92871	1353.4625
2329.77637	1360.0625
2332.62222	1344.1625
2335.46626	1349.2625
2338.3085	1343.2625
2341.14893	1350.0625
2343.98756	1348.3625
2346.8244	1347.9625
2349.65943	1347.8625
2352.49267	1353.0625
2355.32411	1345.1625
2358.15376	1343.2625
2360.98161	1355.0625
2363.80768	1359.3625
2366.63195	1356.9625
2369.45444	1367.4625
2372.27514	1366.7625
2375.09405	1364.9625
2377.91118	1359.4625
2380.72652	1357.3625
2383.54009	1357.9625
2386.35187	1341.3625
2389.16188	1345.6625
2391.97011	1342.4625
2394.77657	1328.5625
2397.58125	1331.7625
2400.38416	1323.3625
2403.18529	1313.0625
2405.98466	1317.8625
2408.78226	1311.5625
2411.57809	1314.3625
2414.37216	1312.4625
2417.16446	1310.3625
2419.955	1308.1625
2422.74378	1315.4625
2425.5308	1315.5625
2428.31606	1311.6625
2431.09956	1314.9625
2433.88131	1309.1625
2436.6613	1313.2625
2439.43954	1310.7625
2442.21603	1307.3625
2444.99077	1312.9625
2447.76377	1322.7625
2450.53501	1325.8625
2453.30451	1315.3625
2456.07226	1317.0625
2458.83827	1307.1625
2461.60254	1305.8625
2464.36507	1312.6625
2467.12586	1311.9625
2469.88492	1308.7625
2472.64224	1308.8625
2475.39782	1318.1625
2478.15167	1319.1625
2480.90379	1324.5625
2483.65417	1328.7625
2486.40283	1326.2625
2489.14976	1333.3625
2491.89497	1331.3625
2494.63845	1334.5625
2497.3802	1331.0625
2500.12024	1330.6625
2502.85855	1323.6625
2505.59514	1310.3625
2508.33002	1312.0625
2511.06318	1309.6625
2513.79462	1304.9625
2516.52435	1300.7625
2519.25237	1287.7625
2521.97867	1285.5625
2524.70327	1282.5625
2527.42616	1283.5625
2530.14734	1279.4625
2532.86681	1289.0625
2535.58458	1286.8625
2538.30065	1280.6625
2541.01501	1289.0625
2543.72768	1279.2625
2546.43864	1282.9625
2549.14791	1279.0625
2551.85548	1283.2625
2554.56136	1278.2625
2557.26554	1277.0625
2559.96803	1274.4625
2562.66883	1269.6625
2565.36794	1277.3625
2568.06536	1275.6625
2570.7611	1272.2625
2573.45514	1267.3625
2576.14751	1260.5625
2578.83819	1258.9625
2581.52719	1268.2625
2584.21451	1252.1625
2586.90015	1248.3625
2589.58411	1247.4625
2592.2664	1256.5625
2594.94701	1256.6625
2597.62594	1249.4625
2600.30321	1259.8625
2602.9788	1255.2625
2605.65273	1249.6625
2608.32498	1250.7625
2610.99557	1243.1625
2613.66449	1243.5625
2616.33175	1243.4625
2618.99734	1245.9625
2621.66128	1247.7625
2624.32355	1251.7625
2626.98416	1247.3625
2629.64311	1237.8625
2632.30041	1244.9625
2634.95605	1236.1625
2637.61004	1233.2625
2640.26238	1236.3625
2642.91306	1223.7625
2645.56209	1222.4625
2648.20948	1226.9625
2650.85521	1218.3625
2653.4993	1229.4625
2656.14175	1231.9625
2658.78255	1230.0625
2661.42171	1227.9625
2664.05923	1228.2625
2666.6951	1224.8625
2669.32934	1234.7625
2671.96194	1243.0625
2674.59291	1242.0625
2677.22224	1232.6625
2679.84993	1246.5625
2682.476	1241.5625
2685.10043	1241.6625
2687.72324	1244.7625
2690.34441	1231.6625
2692.96396	1238.3625
2695.58188	1236.7625
2698.19818	1229.5625
2700.81285	1235.7625
2703.4259	1243.8625
2706.03733	1246.9625
2708.64714	1238.0625
2711.25533	1235.1625
2713.86191	1240.4625
2716.46687	1249.9625
2719.07021	1241.3625
2721.67194	1252.7625
2724.27206	1251.3625
2726.87057	1245.8625
2729.46747	1250.0625
2732.06276	1257.8625
2734.65644	1251.5625
2737.24852	1243.7625
2739.83899	1244.8625
2742.42786	1238.8625
2745.01513	1236.6625
2747.60079	1245.6625
2750.18486	1227.7625
2752.76733	1233.6625
2755.3482	1228.0625
2757.92747	1231.3625
2760.50515	1228.1625
2763.08123	1221.3625
2765.65573	1225.2625
2768.22863	1230.6625
2770.79994	1226.5625
2773.36967	1226.3625
2775.9378	1233.0625
2778.50435	1224.0625
2781.06932	1229.7625
2783.6327	1227.4625
2786.1945	1236.8625
2788.75471	1227.2625
2791.31335	1227.3625
2793.87041	1232.2625
2796.42589	1231.3625
2798.97979	1226.1625
2801.53212	1224.3625
2804.08288	1222.4625
2806.63206	1223.9625
2809.17967	1224.7625
2811.72571	1219.9625
2814.27018	1223.3625
2816.81308	1217.5625
2819.35442	1223.2625
2821.89419	1218.0625
2824.43239	1228.3625
2826.96904	1222.5625
2829.50412	1220.1625
2832.03763	1217.9625
2834.56959	1222.5625
2837.1	1232.0625
2839.62884	1231.4625
2842.15613	1227.2625
2844.68186	1222.7625
2847.20604	1223.7625
2849.72867	1230.6625
2852.24974	1232.7625
2854.76927	1247.7625
2857.28724	1252.5625
2859.80367	1238.8625
2862.31855	1247.9625
2864.83189	1250.2625
2867.34368	1253.9625
2869.85393	1246.4625
2872.36264	1243.7625
2874.8698	1255.1625
2877.37543	1245.4625
2879.87952	1245.8625
2882.38207	1242.5625
2884.88308	1246.1625
2887.38256	1258.1625
2889.88051	1240.0625
2892.37692	1252.2625
2894.8718	1247.9625
2897.36515	1251.6625
2899.85698	1254.0625
2902.34727	1251.5625
2904.83604	1256.2625
2907.32328	1256.7625
2909.809	1255.5625
2912.29319	1257.6625
2914.77587	1261.4625
2917.25702	1261.1625
2919.73665	1265.7625
2922.21476	1261.6625
2924.69136	1257.3625
2927.16644	1259.0625
2929.64	1247.7625
2932.11205	1253.1625
2934.58258	1258.6625
2937.05161	1256.3625
2939.51912	1239.7625
2941.98513	1242.7625
2944.44962	1242.8625
2946.91261	1242.6625
2949.37409	1238.6625
2951.83407	1235.5625
2954.29254	1251.4625
2956.74951	1246.1625
2959.20498	1242.7625
2961.65895	1245.7625
2964.11142	1248.0625
2966.56239	1245.2625
2969.01186	1245.6625
2971.45984	1239.0625
2973.90632	1248.2625
2976.35131	1244.5625
2978.7948	1241.5625
2981.23681	1239.2625
2983.67732	1242.9625
2986.11635	1239.0625
2988.55388	1231.9625
2990.98993	1226.5625
2993.4245	1227.7625
2995.85758	1241.8625
2998.28917	1234.4625
3000.71928	1236.4625
3003.14791	1238.1625
3005.57506	1244.0625
3008.00073	1235.8625
3010.42493	1235.6625
3012.84764	1235.8625
3015.26888	1245.8625
3017.68865	1246.5625
3020.10694	1238.8625
3022.52376	1241.5625
3024.9391	1247.3625
3027.35298	1241.6625
3029.76539	1246.5625
3032.17632	1245.3625
3034.5858	1235.4625
3036.9938	1244.4625
3039.40034	1248.2625
3041.80542	1247.1625
3044.20903	1259.3625
3046.61118	1259.8625
3049.01187	1255.0625
3051.4111	1257.9625
3053.80888	1267.8625
3056.20519	1256.5625
3058.60005	1269.0625
3060.99345	1269.2625
3063.3854	1264.0625
3065.7759	1258.8625
3068.16494	1264.0625
3070.55254	1268.6625
3072.93868	1263.9625
3075.32338	1264.5625
3077.70662	1272.0625
3080.08842	1267.6625
3082.46878	1279.6625
3084.84769	1272.3625
3087.22515	1279.5625
3089.60118	1292.4625
3091.97576	1294.0625
3094.3489	1286.8625
3096.72061	1291.0625
3099.09087	1297.9625
3101.4597	1313.2625
3103.82709	1324.7625
3106.19305	1320.0625
3108.55757	1330.3625
3110.92066	1335.2625
3113.28232	1343.4625
3115.64255	1348.2625
3118.00134	1345.9625
3120.35871	1359.3625
3122.71466	1353.0625
3125.06917	1350.8625
3127.42226	1353.2625
3129.77393	1373.0625
3132.12417	1367.4625
3134.47299	1377.1625
3136.82039	1388.4625
3139.16636	1399.0625
3141.51092	1399.7625
3143.85406	1402.4625
3146.19579	1412.5625
3148.53609	1422.6625
3150.87499	1425.0625
3153.21246	1426.2625
3155.54853	1440.1625
3157.88318	1454.5625
3160.21642	1468.9625
3162.54826	1472.0625
3164.87868	1472.9625
3167.2077	1479.3625
3169.5353	1481.7625
3171.86151	1498.9625
3174.18631	1497.5625
3176.5097	1505.6625
3178.83169	1509.5625
3181.15228	1520.1625
3183.47147	1514.5625
3185.78926	1527.2625
3188.10565	1534.7625
3190.42065	1543.6625
3192.73424	1546.2625
3195.04645	1539.4625
3197.35725	1543.7625
3199.66667	1544.9625
3201.97469	1559.8625
3204.28132	1566.5625
3206.58656	1580.5625
3208.8904	1579.4625
3211.19287	1585.2625
3213.49394	1595.1625
3215.79363	1594.3625
3218.09193	1610.1625
3220.38884	1615.0625
3222.68438	1614.5625
3224.97853	1614.4625
3227.2713	1622.0625
3229.56269	1613.6625
3231.8527	1626.9625
3234.14133	1625.1625
3236.42858	1614.8625
3238.71446	1626.2625
3240.99896	1615.6625
3243.28209	1609.3625
3245.56384	1612.9625
3247.84423	1620.6625
3250.12324	1614.8625
3252.40088	1612.4625
3254.67715	1623.6625
3256.95205	1619.6625
3259.22558	1622.4625
3261.49775	1620.7625
3263.76855	1634.8625
3266.03799	1629.3625
3268.30606	1625.4625
3270.57277	1632.6625
3272.83812	1626.1625
3275.10211	1630.1625
3277.36474	1622.3625
3279.62601	1624.4625
3281.88593	1622.7625
3284.14448	1619.1625
3286.40168	1627.7625
3288.65753	1627.8625
3290.91202	1633.2625
3293.16516	1625.4625
3295.41695	1624.4625
3297.66738	1617.2625
3299.91647	1618.4625
3302.16421	1598.9625
3304.4106	1587.7625
3306.65564	1576.4625
3308.89933	1568.9625
3311.14169	1556.3625
3313.38269	1555.5625
3315.62236	1535.2625
3317.86068	1523.6625
3320.09766	1509.4625
3322.3333	1506.7625
3324.5676	1491.8625
3326.80056	1482.7625
3329.03219	1467.8625
3331.26248	-0.1375
3333.49143	0.4625
3335.71905	-3.3375
