EXPLAIN
TAG	CHRONOA
TITLE	LABEL	Chronoamperometry Scan	Test Identifier
DATE	LABEL	21/12/2021	Date
TIME	LABEL	11:05:30	Time
NOTES	NOTES	1	Notes...
	
PSTAT	PSTAT	IFC1010-21051	Potentiostat
VPRESTEP	POTEN	1.00000E-001	F	Pre-step Voltage (V)
TPRESTEP	QUANT	5.00000E-001	Pre-step Delay Time (s)
VSTEP1	POTEN	0.00000E+000	F	Step 1 Voltage (V)
TSTEP1	QUANT	6.00000E+001	Step 1 Time (s)
VSTEP2	POTEN	1.00000E-001	F	Step 2 Voltage (V)
TSTEP2	QUANT	1.00000E+000	Step 2 Time (s)
SAMPLETIME	QUANT	1.00000E-002	Sample Period (s)
DECIMATE	TOGGLE	T	Decimate
ILIMIT	QUANT	1.00000E+000	Limit I (mA/cm^2)
IMODE	SELECTOR	1	I/E Range Mode
IRANGE	QUANT	3.00000E-001	Max Current (mA)
EQDELAY	QUANT	5.00000E+000	Equil. Time (s)
SAMPLINGMODE	SELECTOR	1	Sampling Mode
AREA	QUANT	1.00000E+000	Sample Area (cm^2)
IRCOMP	SELECTOR	0	IRComp
PFCOR	QUANT	5.00000E+001	PF Corr. (ohm)
SEQUENCER	TOGGLE	TRUE	Run as Sequence
PSTATMODEL	IQUANT	64	Pstat Model
PSTATSECTION	LABEL	IFC1010-21051	Pstat Section
PSTATSERIALNO	LABEL	21051	Pstat Serial Number
CTRLMODE	IQUANT	1	Control Mode
ELECTROMETER	IQUANT	0	RE=0 or CS=1
IESTAB	IQUANT	0	I/E Stability
CASPEED	IQUANT	4	Control Amp Speed
CONVENTION	IQUANT	1	Current Convention
ICHRANGE	IQUANT	2	Ich Range
ICHRANGEMODE	TOGGLE	T	Ich Auto Range
ICHOFFSETENABLE	TOGGLE	F	Ich Offset Enable
ICHOFFSET	QUANT	0	Ich Offset (V)
ICHFILTER	IQUANT	3	Ich Filter
VCHRANGE	IQUANT	3	Vch Range
VCHRANGEMODE	TOGGLE	T	Vch Auto Range
VCHOFFSETENABLE	TOGGLE	F	Vch Offset Enable
VCHOFFSET	QUANT	0	Vch Offset (V)
VCHFILTER	IQUANT	3	Vch Filter
IERANGELOWERLIMIT	IQUANT	4	I/E Range Lower Limit
IERANGEMODE	TOGGLE	F	I/E AutoRange
IERANGE	IQUANT	9	I/E Range
ACHSELECT	IQUANT	0	Ach Select
ACHRANGE	IQUANT	2	Ach Range
ACHOFFSETENABLE	TOGGLE	F	Ach Offset Enable
ACHOFFSET	QUANT	0	Ach Offset (V)
ACHFILTER	IQUANT	1	Ach Filter
SENSECABLEID	IQUANT	14	Sense Cable ID
PWRCABLEID	IQUANT	14	Power Cable ID
DCCALDATE	LABEL	10/1/2020	DC Calibration Date
ACCALDATE	LABEL	4/2/2018	AC Calibration Date
FRAMEWORKVERSION	QUANT	7.06	Framework Version
INSTRUMENTVERSION	LABEL	4.30	Instrument Version
CURVE	TABLE	201
	Pt	T	Vf	Im	Vu	Sig	Ach	IERange	Over	Temp
	#	s	V vs. Ref.	A	V	V	V	#	bits	deg C
	0	-0.49	9.97458E-002	-3.66579E-005	0.00000E+000	9.99387E-002	0.00000E+000	9	...........	1425.42
	1	-0.48	9.99447E-002	-3.85326E-005	0.00000E+000	9.99387E-002	0.00000E+000	9	...........	1425.42
	2	-0.47	1.00003E-001	-3.65461E-005	0.00000E+000	9.99387E-002	0.00000E+000	9	...........	1425.42
	3	-0.46	1.00001E-001	-3.84469E-005	0.00000E+000	9.99387E-002	0.00000E+000	9	...........	1425.42
	4	-0.45	1.00002E-001	-3.63934E-005	0.00000E+000	9.99387E-002	0.00000E+000	9	...........	1425.42
	5	-0.44	1.00002E-001	-3.83716E-005	0.00000E+000	9.99387E-002	0.00000E+000	9	...........	1425.42
	6	-0.43	1.00002E-001	-3.62814E-005	0.00000E+000	9.99387E-002	0.00000E+000	9	...........	1425.42
	7	-0.42	1.00003E-001	-3.82762E-005	0.00000E+000	9.99387E-002	0.00000E+000	9	...........	1425.42
	8	-0.41	1.00005E-001	-3.61679E-005	0.00000E+000	9.99387E-002	0.00000E+000	9	...........	1425.42
	9	-0.4	1.00002E-001	-3.81550E-005	0.00000E+000	9.99387E-002	0.00000E+000	9	...........	1425.42
	10	-0.39	1.00001E-001	-3.60614E-005	0.00000E+000	9.99387E-002	0.00000E+000	9	...........	1425.42
	11	-0.38	1.00000E-001	-3.80543E-005	0.00000E+000	9.99387E-002	0.00000E+000	9	...........	1425.42
	12	-0.37	1.00003E-001	-3.59713E-005	0.00000E+000	9.99387E-002	0.00000E+000	9	...........	1425.42
	13	-0.36	1.00004E-001	-3.79517E-005	0.00000E+000	9.99387E-002	0.00000E+000	9	...........	1425.42
	14	-0.35	1.00002E-001	-3.58604E-005	0.00000E+000	9.99387E-002	0.00000E+000	9	...........	1425.42
	15	-0.34	1.00000E-001	-3.78388E-005	0.00000E+000	9.99387E-002	0.00000E+000	9	...........	1425.42
	16	-0.33	1.00001E-001	-3.57903E-005	0.00000E+000	9.99387E-002	0.00000E+000	9	...........	1425.42
	17	-0.32	1.00004E-001	-3.77001E-005	0.00000E+000	9.99387E-002	0.00000E+000	9	...........	1425.42
	18	-0.31	1.00003E-001	-3.57069E-005	0.00000E+000	9.99387E-002	0.00000E+000	9	...........	1425.42
	19	-0.3	1.00003E-001	-3.75861E-005	0.00000E+000	9.99387E-002	0.00000E+000	9	...........	1425.42
	20	-0.29	1.00003E-001	-3.56240E-005	0.00000E+000	9.99387E-002	0.00000E+000	9	...........	1425.42
	21	-0.28	1.00002E-001	-3.74651E-005	0.00000E+000	9.99387E-002	0.00000E+000	9	...........	1425.42
	22	-0.27	1.00000E-001	-3.55392E-005	0.00000E+000	9.99387E-002	0.00000E+000	9	...........	1425.42
	23	-0.26	1.00003E-001	-3.73375E-005	0.00000E+000	9.99387E-002	0.00000E+000	9	...........	1425.42
	24	-0.25	1.00000E-001	-3.54366E-005	0.00000E+000	9.99387E-002	0.00000E+000	9	...........	1425.42
	25	-0.24	1.00005E-001	-3.72107E-005	0.00000E+000	9.99387E-002	0.00000E+000	9	...........	1425.42
	26	-0.23	9.99984E-002	-3.53677E-005	0.00000E+000	9.99387E-002	0.00000E+000	9	...........	1425.42
	27	-0.22	1.00001E-001	-3.70955E-005	0.00000E+000	9.99387E-002	0.00000E+000	9	...........	1425.42
	28	-0.21	1.00002E-001	-3.52703E-005	0.00000E+000	9.99387E-002	0.00000E+000	9	...........	1425.42
	29	-0.2	1.00004E-001	-3.69999E-005	0.00000E+000	9.99387E-002	0.00000E+000	9	...........	1425.42
	30	-0.19	1.00002E-001	-3.51724E-005	0.00000E+000	9.99387E-002	0.00000E+000	9	...........	1425.42
	31	-0.18	1.00001E-001	-3.68942E-005	0.00000E+000	9.99387E-002	0.00000E+000	9	...........	1425.42
	32	-0.17	1.00002E-001	-3.50879E-005	0.00000E+000	9.99387E-002	0.00000E+000	9	...........	1425.42
	33	-0.16	1.00005E-001	-3.67838E-005	0.00000E+000	9.99387E-002	0.00000E+000	9	...........	1425.42
	34	-0.15	1.00002E-001	-3.49747E-005	0.00000E+000	9.99387E-002	0.00000E+000	9	...........	1425.42
	35	-0.14	9.99987E-002	-3.67157E-005	0.00000E+000	9.99387E-002	0.00000E+000	9	...........	1425.42
	36	-0.13	1.00002E-001	-3.48591E-005	0.00000E+000	9.99387E-002	0.00000E+000	9	...........	1425.42
	37	-0.12	1.00006E-001	-3.66131E-005	0.00000E+000	9.99387E-002	0.00000E+000	9	...........	1425.42
	38	-0.11	1.00001E-001	-3.47587E-005	0.00000E+000	9.99387E-002	0.00000E+000	9	...........	1425.42
	39	-0.1	1.00000E-001	-3.65230E-005	0.00000E+000	9.99387E-002	0.00000E+000	9	...........	1425.42
	40	-0.09	1.00005E-001	-3.46444E-005	0.00000E+000	9.99387E-002	0.00000E+000	9	...........	1425.42
	41	-0.08	1.00005E-001	-3.64454E-005	0.00000E+000	9.99387E-002	0.00000E+000	9	...........	1425.42
	42	-0.07	1.00003E-001	-3.45426E-005	0.00000E+000	9.99387E-002	0.00000E+000	9	...........	1425.42
	43	-0.06	1.00003E-001	-3.63567E-005	0.00000E+000	9.99387E-002	0.00000E+000	9	...........	1425.42
	44	-0.05	9.99977E-002	-3.44567E-005	0.00000E+000	9.99387E-002	0.00000E+000	9	...........	1425.42
	45	-0.04	9.99997E-002	-3.62689E-005	0.00000E+000	9.99387E-002	0.00000E+000	9	...........	1425.42
	46	-0.03	9.99988E-002	-3.43580E-005	0.00000E+000	9.99387E-002	0.00000E+000	9	...........	1425.42
	47	-0.02	1.00007E-001	-3.61638E-005	0.00000E+000	9.99387E-002	0.00000E+000	9	...........	1425.42
	48	-0.01	1.00003E-001	-3.42532E-005	0.00000E+000	9.99387E-002	0.00000E+000	9	...........	1425.42
	49	0	1.00003E-001	-3.60820E-005	0.00000E+000	9.99387E-002	0.00000E+000	9	...........	1425.42
	50	0.01	-6.13616E-006	-5.44063E-004	0.00000E+000	-6.08154E-005	0.00000E+000	9	...........	1425.42
	51	0.02	-1.09431E-005	-4.94612E-004	0.00000E+000	-6.08154E-005	0.00000E+000	9	...........	1425.42
	52	0.03	-1.30623E-005	-4.55947E-004	0.00000E+000	-6.08154E-005	0.00000E+000	9	...........	1425.42
	53	0.04	-9.95017E-006	-4.27843E-004	0.00000E+000	-6.08154E-005	0.00000E+000	9	...........	1425.42
	54	0.05	-1.25200E-005	-4.00754E-004	0.00000E+000	-6.08154E-005	0.00000E+000	9	...........	1425.42
	55	0.06	-8.11458E-006	-3.80623E-004	0.00000E+000	-6.08154E-005	0.00000E+000	9	...........	1425.42
	56	0.07	-1.16606E-005	-3.59671E-004	0.00000E+000	-6.08154E-005	0.00000E+000	9	...........	1425.42
	57	0.08	-1.21946E-005	-3.44372E-004	0.00000E+000	-6.08154E-005	0.00000E+000	9	...........	1425.42
	58	0.09	-1.16105E-005	-3.27388E-004	0.00000E+000	-6.08154E-005	0.00000E+000	9	...........	1425.42
	59	0.1	-8.36489E-006	-3.15335E-004	0.00000E+000	-6.08154E-005	0.00000E+000	9	...........	1425.42
	60	0.11	-1.06260E-005	-3.01152E-004	0.00000E+000	-6.08154E-005	0.00000E+000	9	...........	1425.42
	61	0.12	-1.01004E-005	-2.91378E-004	0.00000E+000	-6.08154E-005	0.00000E+000	9	...........	1425.42
	62	0.13	-8.53176E-006	-2.79215E-004	0.00000E+000	-6.08154E-005	0.00000E+000	9	...........	1425.42
	63	0.14	-9.82502E-006	-2.71128E-004	0.00000E+000	-6.08154E-005	0.00000E+000	9	...........	1425.42
	64	0.15	-1.25200E-005	-2.60524E-004	0.00000E+000	-6.08154E-005	0.00000E+000	9	...........	1425.42
	65	0.16	-8.66526E-006	-2.53701E-004	0.00000E+000	-6.08154E-005	0.00000E+000	9	...........	1425.42
	66	0.17	-9.67483E-006	-2.44332E-004	0.00000E+000	-6.08154E-005	0.00000E+000	9	...........	1425.42
	67	0.18	-1.13853E-005	-2.38507E-004	0.00000E+000	-6.08154E-005	0.00000E+000	9	...........	1425.42
	68	0.19	-1.11767E-005	-2.30104E-004	0.00000E+000	-6.08154E-005	0.00000E+000	9	...........	1425.42
	69	0.2	-1.18609E-005	-2.25085E-004	0.00000E+000	-6.08154E-005	0.00000E+000	9	...........	1425.42
	70	0.21	-1.09764E-005	-2.17470E-004	0.00000E+000	-6.08154E-005	0.00000E+000	9	...........	1425.42
	71	0.22	-1.03340E-005	-2.13081E-004	0.00000E+000	-6.08154E-005	0.00000E+000	9	...........	1425.42
	72	0.23	-9.09912E-006	-2.06159E-004	0.00000E+000	-6.08154E-005	0.00000E+000	9	...........	1425.42
	73	0.24	-9.84170E-006	-2.02322E-004	0.00000E+000	-6.08154E-005	0.00000E+000	9	...........	1425.42
	74	0.25	-1.12267E-005	-1.95962E-004	0.00000E+000	-6.08154E-005	0.00000E+000	9	...........	1425.42
	75	0.26	-1.05342E-005	-1.92551E-004	0.00000E+000	-6.08154E-005	0.00000E+000	9	...........	1425.42
	76	0.27	-1.12768E-005	-1.86694E-004	0.00000E+000	-6.08154E-005	0.00000E+000	9	...........	1425.42
	77	0.28	-5.46131E-006	-1.83647E-004	0.00000E+000	-6.08154E-005	0.00000E+000	9	...........	1425.42
	78	0.29	-1.33126E-005	-1.78265E-004	0.00000E+000	-6.08154E-005	0.00000E+000	9	...........	1425.42
	79	0.3	-1.07261E-005	-1.75558E-004	0.00000E+000	-6.08154E-005	0.00000E+000	9	...........	1425.42
	80	0.31	-1.27036E-005	-1.70552E-004	0.00000E+000	-6.08154E-005	0.00000E+000	9	...........	1425.42
	81	0.32	-9.39115E-006	-1.68135E-004	0.00000E+000	-6.08154E-005	0.00000E+000	9	...........	1425.42
	82	0.33	-1.08513E-005	-1.63497E-004	0.00000E+000	-6.08154E-005	0.00000E+000	9	...........	1425.42
	83	0.34	-1.12434E-005	-1.61362E-004	0.00000E+000	-6.08154E-005	0.00000E+000	9	...........	1425.42
	84	0.35	-1.09514E-005	-1.57033E-004	0.00000E+000	-6.08154E-005	0.00000E+000	9	...........	1425.42
	85	0.36	-1.18692E-005	-1.55146E-004	0.00000E+000	-6.08154E-005	0.00000E+000	9	...........	1425.42
	86	0.37	-1.12518E-005	-1.51140E-004	0.00000E+000	-6.08154E-005	0.00000E+000	9	...........	1425.42
	87	0.38	-9.34109E-006	-1.49399E-004	0.00000E+000	-6.08154E-005	0.00000E+000	9	...........	1425.42
	88	0.39	-9.94182E-006	-1.45679E-004	0.00000E+000	-6.08154E-005	0.00000E+000	9	...........	1425.42
	89	0.4	-1.07762E-005	-1.44134E-004	0.00000E+000	-6.08154E-005	0.00000E+000	9	...........	1425.42
	90	0.41	-1.03507E-005	-1.40665E-004	0.00000E+000	-6.08154E-005	0.00000E+000	9	...........	1425.42
	91	0.42	-9.09912E-006	-1.39286E-004	0.00000E+000	-6.08154E-005	0.00000E+000	9	...........	1425.42
	92	0.43	-1.16606E-005	-1.36053E-004	0.00000E+000	-6.08154E-005	0.00000E+000	9	...........	1425.42
	93	0.44	-1.21028E-005	-1.34819E-004	0.00000E+000	-6.08154E-005	0.00000E+000	9	...........	1425.42
	94	0.45	-1.46643E-005	-1.31799E-004	0.00000E+000	-6.08154E-005	0.00000E+000	9	...........	1425.42
	95	0.46	-1.04174E-005	-1.30653E-004	0.00000E+000	-6.08154E-005	0.00000E+000	9	...........	1425.42
	96	0.47	-1.06594E-005	-1.27807E-004	0.00000E+000	-6.08154E-005	0.00000E+000	9	...........	1425.42
	97	0.48	-1.00837E-005	-1.26823E-004	0.00000E+000	-6.08154E-005	0.00000E+000	9	...........	1425.42
	98	0.49	-9.15753E-006	-1.24127E-004	0.00000E+000	-6.08154E-005	0.00000E+000	9	...........	1425.42
	99	0.5	-9.97520E-006	-1.23239E-004	0.00000E+000	-6.08154E-005	0.00000E+000	9	...........	1425.42
	100	0.51	-9.18256E-006	-1.20685E-004	0.00000E+000	-6.08154E-005	0.00000E+000	9	...........	1425.42
	101	0.52	-1.00086E-005	-1.19923E-004	0.00000E+000	-6.08154E-005	0.00000E+000	9	...........	1425.42
	102	0.53	-1.01504E-005	-1.17483E-004	0.00000E+000	-6.08154E-005	0.00000E+000	9	...........	1425.42
	103	0.54	-9.59139E-006	-1.16812E-004	0.00000E+000	-6.08154E-005	0.00000E+000	9	...........	1425.42
	104	0.55	-1.49980E-005	-1.14517E-004	0.00000E+000	-6.08154E-005	0.00000E+000	9	...........	1425.42
	105	0.56	-1.05843E-005	-1.13926E-004	0.00000E+000	-6.08154E-005	0.00000E+000	9	...........	1425.42
	106	0.57	-1.08346E-005	-1.11722E-004	0.00000E+000	-6.08154E-005	0.00000E+000	9	...........	1425.42
	107	0.58	-1.16105E-005	-1.11227E-004	0.00000E+000	-6.08154E-005	0.00000E+000	9	...........	1425.42
	108	0.59	-9.53299E-006	-1.09096E-004	0.00000E+000	-6.08154E-005	0.00000E+000	9	...........	1425.42
	109	0.6	-1.18024E-005	-1.08683E-004	0.00000E+000	-6.08154E-005	0.00000E+000	9	...........	1425.42
	110	0.61	-1.33460E-005	-1.06651E-004	0.00000E+000	-6.08154E-005	0.00000E+000	9	...........	1425.42
	111	0.71	-1.48395E-005	-9.63756E-005	0.00000E+000	-6.08154E-005	0.00000E+000	9	...........	1425.42
	112	0.81	-1.38466E-005	-8.85278E-005	0.00000E+000	-6.08154E-005	0.00000E+000	9	...........	1425.42
	113	0.91	-1.22697E-005	-8.23572E-005	0.00000E+000	-6.08154E-005	0.00000E+000	9	...........	1425.42
	114	1.01	-1.27369E-005	-7.73863E-005	0.00000E+000	-6.08154E-005	0.00000E+000	9	...........	1425.42
	115	1.11	-1.43973E-005	-7.33085E-005	0.00000E+000	-6.08154E-005	0.00000E+000	9	...........	1425.42
	116	1.21	-1.20027E-005	-6.97954E-005	0.00000E+000	-6.08154E-005	0.00000E+000	9	...........	1425.42
	117	1.31	-1.07261E-005	-6.67303E-005	0.00000E+000	-6.08154E-005	0.00000E+000	9	...........	1425.25
	118	1.41	-1.23615E-005	-6.40603E-005	0.00000E+000	-6.08154E-005	0.00000E+000	9	...........	1425.25
	119	1.51	-1.33460E-005	-6.17154E-005	0.00000E+000	-6.08154E-005	0.00000E+000	9	...........	1425.25
	120	1.61	-1.24366E-005	-5.96018E-005	0.00000E+000	-6.08154E-005	0.00000E+000	9	...........	1425.25
	121	2.61	-1.48479E-005	-4.70803E-005	0.00000E+000	-6.08154E-005	0.00000E+000	9	...........	1425.60
	122	3.61	-1.25784E-005	-4.08972E-005	0.00000E+000	-6.08154E-005	0.00000E+000	9	...........	1425.78
	123	4.61	-1.10515E-005	-3.57394E-005	0.00000E+000	-6.08154E-005	0.00000E+000	9	...........	1425.78
	124	5.61	-1.22780E-005	-3.24591E-005	0.00000E+000	-6.08154E-005	0.00000E+000	9	...........	1425.78
	125	6.61	-1.38383E-005	-2.94888E-005	0.00000E+000	-6.08154E-005	0.00000E+000	9	...........	1425.78
	126	7.61	-1.21195E-005	-2.67240E-005	0.00000E+000	-6.08154E-005	0.00000E+000	9	...........	1425.78
	127	8.61	-1.53068E-005	-2.51785E-005	0.00000E+000	-6.08154E-005	0.00000E+000	9	...........	1425.78
	128	9.61	-1.27787E-005	-2.40941E-005	0.00000E+000	-6.08154E-005	0.00000E+000	9	...........	1425.69
	129	10.61	-1.40552E-005	-2.28959E-005	0.00000E+000	-6.08154E-005	0.00000E+000	9	...........	1425.78
	130	11.61	-1.24449E-005	-2.28703E-005	0.00000E+000	-6.08154E-005	0.00000E+000	9	...........	1425.78
	131	21.61	-1.23031E-005	-1.64284E-005	0.00000E+000	-6.08154E-005	0.00000E+000	9	...........	1425.78
	132	31.61	-1.27870E-005	-1.33978E-005	0.00000E+000	-6.08154E-005	0.00000E+000	9	...........	1425.78
	133	41.61	-1.20695E-005	-1.06402E-005	0.00000E+000	-6.08154E-005	0.00000E+000	9	...........	1425.78
	134	51.61	-1.44390E-005	-9.71118E-006	0.00000E+000	-6.08154E-005	0.00000E+000	9	...........	1425.69
	135	60	-1.16523E-005	-1.02904E-005	0.00000E+000	-6.08154E-005	0.00000E+000	9	...........	1425.69
	136	60.01	3.27136E-002	4.98045E-004	0.00000E+000	9.99387E-002	0.00000E+000	9	.........v.	1425.69
	137	60.02	9.88147E-002	4.41174E-004	0.00000E+000	9.99387E-002	0.00000E+000	9	...........	1425.69
	138	60.03	9.97754E-002	4.03090E-004	0.00000E+000	9.99387E-002	0.00000E+000	9	...........	1425.69
	139	60.04	9.99434E-002	3.68644E-004	0.00000E+000	9.99387E-002	0.00000E+000	9	...........	1425.69
	140	60.05	9.99739E-002	3.42567E-004	0.00000E+000	9.99387E-002	0.00000E+000	9	...........	1425.69
	141	60.06	9.99842E-002	3.16427E-004	0.00000E+000	9.99387E-002	0.00000E+000	9	...........	1425.69
	142	60.07	9.99897E-002	2.96707E-004	0.00000E+000	9.99387E-002	0.00000E+000	9	...........	1425.69
	143	60.08	9.99864E-002	2.75603E-004	0.00000E+000	9.99387E-002	0.00000E+000	9	...........	1425.69
	144	60.09	9.99922E-002	2.60055E-004	0.00000E+000	9.99387E-002	0.00000E+000	9	...........	1425.69
	145	60.1	9.99892E-002	2.42440E-004	0.00000E+000	9.99387E-002	0.00000E+000	9	...........	1425.69
	146	60.11	9.99949E-002	2.29880E-004	0.00000E+000	9.99387E-002	0.00000E+000	9	...........	1425.69
	147	60.12	9.99934E-002	2.14838E-004	0.00000E+000	9.99387E-002	0.00000E+000	9	...........	1425.69
	148	60.13	9.99953E-002	2.04552E-004	0.00000E+000	9.99387E-002	0.00000E+000	9	...........	1425.69
	149	60.14	9.99976E-002	1.91508E-004	0.00000E+000	9.99387E-002	0.00000E+000	9	...........	1425.69
	150	60.15	9.99965E-002	1.82985E-004	0.00000E+000	9.99387E-002	0.00000E+000	9	...........	1425.69
	151	60.16	9.99984E-002	1.71526E-004	0.00000E+000	9.99387E-002	0.00000E+000	9	...........	1425.69
	152	60.17	9.99987E-002	1.64454E-004	0.00000E+000	9.99387E-002	0.00000E+000	9	...........	1425.69
	153	60.18	9.99993E-002	1.54294E-004	0.00000E+000	9.99387E-002	0.00000E+000	9	...........	1425.69
	154	60.19	1.00001E-001	1.48413E-004	0.00000E+000	9.99387E-002	0.00000E+000	9	...........	1425.69
	155	60.2	1.00001E-001	1.39295E-004	0.00000E+000	9.99387E-002	0.00000E+000	9	...........	1425.69
	156	60.21	1.00003E-001	1.34431E-004	0.00000E+000	9.99387E-002	0.00000E+000	9	...........	1425.69
	157	60.22	9.99987E-002	1.26199E-004	0.00000E+000	9.99387E-002	0.00000E+000	9	...........	1425.69
	158	60.23	9.99959E-002	1.22127E-004	0.00000E+000	9.99387E-002	0.00000E+000	9	...........	1425.69
	159	60.24	9.99966E-002	1.14712E-004	0.00000E+000	9.99387E-002	0.00000E+000	9	...........	1425.69
	160	60.25	1.00002E-001	1.11372E-004	0.00000E+000	9.99387E-002	0.00000E+000	9	...........	1425.69
	161	60.26	9.99988E-002	1.04566E-004	0.00000E+000	9.99387E-002	0.00000E+000	9	...........	1425.69
	162	60.27	1.00001E-001	1.01820E-004	0.00000E+000	9.99387E-002	0.00000E+000	9	...........	1425.69
	163	60.28	1.00004E-001	9.56292E-005	0.00000E+000	9.99387E-002	0.00000E+000	9	...........	1425.69
	164	60.29	9.99987E-002	9.33752E-005	0.00000E+000	9.99387E-002	0.00000E+000	9	...........	1425.69
	165	60.3	1.00002E-001	8.76715E-005	0.00000E+000	9.99387E-002	0.00000E+000	9	...........	1425.72
	166	60.31	1.00003E-001	8.58747E-005	0.00000E+000	9.99387E-002	0.00000E+000	9	...........	1425.78
	167	60.32	1.00002E-001	8.06031E-005	0.00000E+000	9.99387E-002	0.00000E+000	9	...........	1425.78
	168	60.33	9.99980E-002	7.91633E-005	0.00000E+000	9.99387E-002	0.00000E+000	9	...........	1425.78
	169	60.34	1.00002E-001	7.42852E-005	0.00000E+000	9.99387E-002	0.00000E+000	9	...........	1425.78
	170	60.35	1.00003E-001	7.31663E-005	0.00000E+000	9.99387E-002	0.00000E+000	9	...........	1425.78
	171	60.36	1.00003E-001	6.86430E-005	0.00000E+000	9.99387E-002	0.00000E+000	9	...........	1425.78
	172	60.37	1.00003E-001	6.77841E-005	0.00000E+000	9.99387E-002	0.00000E+000	9	...........	1425.78
	173	60.38	1.00002E-001	6.35739E-005	0.00000E+000	9.99387E-002	0.00000E+000	9	...........	1425.78
	174	60.39	1.00000E-001	6.29310E-005	0.00000E+000	9.99387E-002	0.00000E+000	9	...........	1425.78
	175	60.4	1.00006E-001	5.90270E-005	0.00000E+000	9.99387E-002	0.00000E+000	9	...........	1425.78
	176	60.41	9.99983E-002	5.85871E-005	0.00000E+000	9.99387E-002	0.00000E+000	9	...........	1425.78
	177	60.42	1.00003E-001	5.49294E-005	0.00000E+000	9.99387E-002	0.00000E+000	9	...........	1425.78
	178	60.43	1.00002E-001	5.46758E-005	0.00000E+000	9.99387E-002	0.00000E+000	9	...........	1425.78
	179	60.44	9.99991E-002	5.12159E-005	0.00000E+000	9.99387E-002	0.00000E+000	9	...........	1425.78
	180	60.45	1.00002E-001	5.11296E-005	0.00000E+000	9.99387E-002	0.00000E+000	9	...........	1425.78
	181	60.46	1.00005E-001	4.78946E-005	0.00000E+000	9.99387E-002	0.00000E+000	9	...........	1425.78
	182	60.47	9.99990E-002	4.79047E-005	0.00000E+000	9.99387E-002	0.00000E+000	9	...........	1425.78
	183	60.48	1.00001E-001	4.48496E-005	0.00000E+000	9.99387E-002	0.00000E+000	9	...........	1425.78
	184	60.49	1.00002E-001	4.50106E-005	0.00000E+000	9.99387E-002	0.00000E+000	9	...........	1425.78
	185	60.5	1.00002E-001	4.21126E-005	0.00000E+000	9.99387E-002	0.00000E+000	9	...........	1425.78
	186	60.51	9.99981E-002	4.23297E-005	0.00000E+000	9.99387E-002	0.00000E+000	9	...........	1425.78
	187	60.52	1.00001E-001	3.96144E-005	0.00000E+000	9.99387E-002	0.00000E+000	9	...........	1425.78
	188	60.53	9.99978E-002	3.99081E-005	0.00000E+000	9.99387E-002	0.00000E+000	9	...........	1425.78
	189	60.54	9.99987E-002	3.73135E-005	0.00000E+000	9.99387E-002	0.00000E+000	9	...........	1425.78
	190	60.55	9.99981E-002	3.76913E-005	0.00000E+000	9.99387E-002	0.00000E+000	9	...........	1425.78
	191	60.56	1.00002E-001	3.52377E-005	0.00000E+000	9.99387E-002	0.00000E+000	9	...........	1425.78
	192	60.57	1.00002E-001	3.56754E-005	0.00000E+000	9.99387E-002	0.00000E+000	9	...........	1425.78
	193	60.58	1.00001E-001	3.33238E-005	0.00000E+000	9.99387E-002	0.00000E+000	9	...........	1425.78
	194	60.59	1.00001E-001	3.38143E-005	0.00000E+000	9.99387E-002	0.00000E+000	9	...........	1425.78
	195	60.6	1.00002E-001	3.15703E-005	0.00000E+000	9.99387E-002	0.00000E+000	9	...........	1425.78
	196	60.61	9.99968E-002	3.21078E-005	0.00000E+000	9.99387E-002	0.00000E+000	9	...........	1425.78
	197	60.71	9.99977E-002	2.53645E-005	0.00000E+000	9.99387E-002	0.00000E+000	9	...........	1425.78
	198	60.81	1.00001E-001	2.07272E-005	0.00000E+000	9.99387E-002	0.00000E+000	9	...........	1425.78
	199	60.91	9.99978E-002	1.73904E-005	0.00000E+000	9.99387E-002	0.00000E+000	9	...........	1425.78
	200	61	1.00002E-001	1.43353E-005	0.00000E+000	9.99387E-002	0.00000E+000	9	...........	1425.78
