EXPLAIN
TAG	CHRONOA
TITLE	LABEL	Chronoamperometry Scan	Test Identifier
DATE	LABEL	21/12/2021	Date
TIME	LABEL	16:16:20	Time
NOTES	NOTES	1	Notes...
	
PSTAT	PSTAT	IFC1010-21051	Potentiostat
VPRESTEP	POTEN	-7.00000E-001	F	Pre-step Voltage (V)
TPRESTEP	QUANT	5.00000E-001	Pre-step Delay Time (s)
VSTEP1	POTEN	-8.00000E-001	F	Step 1 Voltage (V)
TSTEP1	QUANT	3.00000E+002	Step 1 Time (s)
VSTEP2	POTEN	-7.00000E-001	F	Step 2 Voltage (V)
TSTEP2	QUANT	1.00000E+000	Step 2 Time (s)
SAMPLETIME	QUANT	1.00000E-001	Sample Period (s)
DECIMATE	TOGGLE	T	Decimate
ILIMIT	QUANT	1.00000E+000	Limit I (mA/cm^2)
IMODE	SELECTOR	1	I/E Range Mode
IRANGE	QUANT	3.00000E-001	Max Current (mA)
EQDELAY	QUANT	5.00000E+000	Equil. Time (s)
SAMPLINGMODE	SELECTOR	1	Sampling Mode
AREA	QUANT	1.00000E+000	Sample Area (cm^2)
IRCOMP	SELECTOR	0	IRComp
PFCOR	QUANT	5.00000E+001	PF Corr. (ohm)
SEQUENCER	TOGGLE	TRUE	Run as Sequence
PSTATMODEL	IQUANT	64	Pstat Model
PSTATSECTION	LABEL	IFC1010-21051	Pstat Section
PSTATSERIALNO	LABEL	21051	Pstat Serial Number
CTRLMODE	IQUANT	1	Control Mode
ELECTROMETER	IQUANT	0	RE=0 or CS=1
IESTAB	IQUANT	0	I/E Stability
CASPEED	IQUANT	4	Control Amp Speed
CONVENTION	IQUANT	1	Current Convention
ICHRANGE	IQUANT	2	Ich Range
ICHRANGEMODE	TOGGLE	T	Ich Auto Range
ICHOFFSETENABLE	TOGGLE	F	Ich Offset Enable
ICHOFFSET	QUANT	0	Ich Offset (V)
ICHFILTER	IQUANT	3	Ich Filter
VCHRANGE	IQUANT	3	Vch Range
VCHRANGEMODE	TOGGLE	T	Vch Auto Range
VCHOFFSETENABLE	TOGGLE	F	Vch Offset Enable
VCHOFFSET	QUANT	0	Vch Offset (V)
VCHFILTER	IQUANT	3	Vch Filter
IERANGELOWERLIMIT	IQUANT	4	I/E Range Lower Limit
IERANGEMODE	TOGGLE	F	I/E AutoRange
IERANGE	IQUANT	9	I/E Range
ACHSELECT	IQUANT	0	Ach Select
ACHRANGE	IQUANT	2	Ach Range
ACHOFFSETENABLE	TOGGLE	F	Ach Offset Enable
ACHOFFSET	QUANT	0	Ach Offset (V)
ACHFILTER	IQUANT	1	Ach Filter
SENSECABLEID	IQUANT	14	Sense Cable ID
PWRCABLEID	IQUANT	14	Power Cable ID
DCCALDATE	LABEL	10/1/2020	DC Calibration Date
ACCALDATE	LABEL	4/2/2018	AC Calibration Date
FRAMEWORKVERSION	QUANT	7.06	Framework Version
INSTRUMENTVERSION	LABEL	4.30	Instrument Version
CURVE	TABLE	98
	Pt	T	Vf	Im	Vu	Sig	Ach	IERange	Over	Temp
	#	s	V vs. Ref.	A	V	V	V	#	bits	deg C
	0	-0.4	-7.01189E-001	-1.28986E-004	0.00000E+000	-7.00083E-001	0.00000E+000	9	...........	1426.31
	1	-0.3	-7.01105E-001	-1.28946E-004	0.00000E+000	-7.00083E-001	0.00000E+000	9	...........	1426.31
	2	-0.2	-7.01100E-001	-1.28789E-004	0.00000E+000	-7.00083E-001	0.00000E+000	9	...........	1426.31
	3	-0.1	-7.01101E-001	-1.28697E-004	0.00000E+000	-7.00083E-001	0.00000E+000	9	...........	1426.31
	4	0	-7.01088E-001	-1.28494E-004	0.00000E+000	-7.00083E-001	0.00000E+000	9	...........	1426.31
	5	0.1	-8.01123E-001	-5.78742E-004	0.00000E+000	-8.00083E-001	0.00000E+000	9	...........	1426.31
	6	0.2	-8.01118E-001	-4.36387E-004	0.00000E+000	-8.00083E-001	0.00000E+000	9	...........	1426.31
	7	0.3	-8.01115E-001	-3.69088E-004	0.00000E+000	-8.00083E-001	0.00000E+000	9	...........	1426.31
	8	0.4	-8.01128E-001	-3.28412E-004	0.00000E+000	-8.00083E-001	0.00000E+000	9	...........	1426.31
	9	0.5	-8.01138E-001	-2.99498E-004	0.00000E+000	-8.00083E-001	0.00000E+000	9	...........	1426.31
	10	0.6	-8.01127E-001	-2.76920E-004	0.00000E+000	-8.00083E-001	0.00000E+000	9	...........	1426.31
	11	0.7	-8.01124E-001	-2.58898E-004	0.00000E+000	-8.00083E-001	0.00000E+000	9	...........	1426.20
	12	0.8	-8.01126E-001	-2.44154E-004	0.00000E+000	-8.00083E-001	0.00000E+000	9	...........	1426.04
	13	0.9	-8.01116E-001	-2.31995E-004	0.00000E+000	-8.00083E-001	0.00000E+000	9	...........	1426.04
	14	1	-8.01138E-001	-2.22210E-004	0.00000E+000	-8.00083E-001	0.00000E+000	9	...........	1426.04
	15	1.1	-8.01128E-001	-2.14067E-004	0.00000E+000	-8.00083E-001	0.00000E+000	9	...........	1426.04
	16	1.2	-8.01127E-001	-2.07099E-004	0.00000E+000	-8.00083E-001	0.00000E+000	9	...........	1426.04
	17	1.3	-8.01126E-001	-2.01298E-004	0.00000E+000	-8.00083E-001	0.00000E+000	9	...........	1426.04
	18	1.4	-8.01142E-001	-1.96452E-004	0.00000E+000	-8.00083E-001	0.00000E+000	9	...........	1426.04
	19	1.5	-8.01140E-001	-1.92341E-004	0.00000E+000	-8.00083E-001	0.00000E+000	9	...........	1426.04
	20	1.6	-8.01135E-001	-1.88716E-004	0.00000E+000	-8.00083E-001	0.00000E+000	9	...........	1426.04
	21	1.7	-8.01125E-001	-1.85549E-004	0.00000E+000	-8.00083E-001	0.00000E+000	9	...........	1426.04
	22	1.8	-8.01133E-001	-1.82719E-004	0.00000E+000	-8.00083E-001	0.00000E+000	9	...........	1426.04
	23	1.9	-8.01131E-001	-1.80227E-004	0.00000E+000	-8.00083E-001	0.00000E+000	9	...........	1426.04
	24	2	-8.01125E-001	-1.77966E-004	0.00000E+000	-8.00083E-001	0.00000E+000	9	...........	1426.04
	25	2.1	-8.01121E-001	-1.76063E-004	0.00000E+000	-8.00083E-001	0.00000E+000	9	...........	1426.04
	26	2.2	-8.01121E-001	-1.74274E-004	0.00000E+000	-8.00083E-001	0.00000E+000	9	...........	1426.04
	27	2.3	-8.01125E-001	-1.72527E-004	0.00000E+000	-8.00083E-001	0.00000E+000	9	...........	1426.04
	28	2.4	-8.01118E-001	-1.70941E-004	0.00000E+000	-8.00083E-001	0.00000E+000	9	...........	1426.04
	29	2.5	-8.01123E-001	-1.69741E-004	0.00000E+000	-8.00083E-001	0.00000E+000	9	...........	1426.04
	30	2.6	-8.01115E-001	-1.68430E-004	0.00000E+000	-8.00083E-001	0.00000E+000	9	...........	1426.04
	31	2.7	-8.01116E-001	-1.67239E-004	0.00000E+000	-8.00083E-001	0.00000E+000	9	...........	1426.00
	32	2.8	-8.01121E-001	-1.66267E-004	0.00000E+000	-8.00083E-001	0.00000E+000	9	...........	1425.95
	33	2.9	-8.01101E-001	-1.65179E-004	0.00000E+000	-8.00083E-001	0.00000E+000	9	...........	1425.95
	34	3	-8.01113E-001	-1.64180E-004	0.00000E+000	-8.00083E-001	0.00000E+000	9	...........	1425.95
	35	3.1	-8.01120E-001	-1.63432E-004	0.00000E+000	-8.00083E-001	0.00000E+000	9	...........	1425.95
	36	3.2	-8.01124E-001	-1.62658E-004	0.00000E+000	-8.00083E-001	0.00000E+000	9	...........	1425.95
	37	3.3	-8.01113E-001	-1.61756E-004	0.00000E+000	-8.00083E-001	0.00000E+000	9	...........	1425.95
	38	3.4	-8.01128E-001	-1.61154E-004	0.00000E+000	-8.00083E-001	0.00000E+000	9	...........	1425.95
	39	3.5	-8.01127E-001	-1.60532E-004	0.00000E+000	-8.00083E-001	0.00000E+000	9	...........	1425.95
	40	3.6	-8.01130E-001	-1.59844E-004	0.00000E+000	-8.00083E-001	0.00000E+000	9	...........	1425.95
	41	3.7	-8.01130E-001	-1.59285E-004	0.00000E+000	-8.00083E-001	0.00000E+000	9	...........	1425.95
	42	3.8	-8.01127E-001	-1.58654E-004	0.00000E+000	-8.00083E-001	0.00000E+000	9	...........	1425.95
	43	3.9	-8.01126E-001	-1.58240E-004	0.00000E+000	-8.00083E-001	0.00000E+000	9	...........	1425.95
	44	4	-8.01127E-001	-1.57709E-004	0.00000E+000	-8.00083E-001	0.00000E+000	9	...........	1425.95
	45	4.1	-8.01125E-001	-1.57164E-004	0.00000E+000	-8.00083E-001	0.00000E+000	9	...........	1425.95
	46	4.2	-8.01122E-001	-1.56683E-004	0.00000E+000	-8.00083E-001	0.00000E+000	9	...........	1425.95
	47	4.3	-8.01124E-001	-1.56257E-004	0.00000E+000	-8.00083E-001	0.00000E+000	9	...........	1425.95
	48	4.4	-8.01128E-001	-1.55893E-004	0.00000E+000	-8.00083E-001	0.00000E+000	9	...........	1425.95
	49	4.5	-8.01116E-001	-1.55394E-004	0.00000E+000	-8.00083E-001	0.00000E+000	9	...........	1425.95
	50	4.6	-8.01137E-001	-1.54918E-004	0.00000E+000	-8.00083E-001	0.00000E+000	9	...........	1425.95
	51	4.7	-8.01123E-001	-1.54716E-004	0.00000E+000	-8.00083E-001	0.00000E+000	9	...........	1425.99
	52	4.8	-8.01124E-001	-1.54380E-004	0.00000E+000	-8.00083E-001	0.00000E+000	9	...........	1426.04
	53	4.9	-8.01121E-001	-1.53995E-004	0.00000E+000	-8.00083E-001	0.00000E+000	9	...........	1426.04
	54	5	-8.01121E-001	-1.53667E-004	0.00000E+000	-8.00083E-001	0.00000E+000	9	...........	1426.04
	55	5.1	-8.01123E-001	-1.53287E-004	0.00000E+000	-8.00083E-001	0.00000E+000	9	...........	1426.04
	56	5.2	-8.01134E-001	-1.53001E-004	0.00000E+000	-8.00083E-001	0.00000E+000	9	...........	1426.04
	57	5.3	-8.01126E-001	-1.52647E-004	0.00000E+000	-8.00083E-001	0.00000E+000	9	...........	1426.04
	58	5.4	-8.01113E-001	-1.52391E-004	0.00000E+000	-8.00083E-001	0.00000E+000	9	...........	1426.04
	59	5.5	-8.01126E-001	-1.52174E-004	0.00000E+000	-8.00083E-001	0.00000E+000	9	...........	1426.04
	60	5.6	-8.01131E-001	-1.51958E-004	0.00000E+000	-8.00083E-001	0.00000E+000	9	...........	1426.04
	61	5.7	-8.01122E-001	-1.51651E-004	0.00000E+000	-8.00083E-001	0.00000E+000	9	...........	1426.00
	62	5.8	-8.01133E-001	-1.51415E-004	0.00000E+000	-8.00083E-001	0.00000E+000	9	...........	1425.95
	63	5.9	-8.01115E-001	-1.51101E-004	0.00000E+000	-8.00083E-001	0.00000E+000	9	...........	1425.95
	64	6	-8.01133E-001	-1.50989E-004	0.00000E+000	-8.00083E-001	0.00000E+000	9	...........	1425.95
	65	6.1	-8.01137E-001	-1.50613E-004	0.00000E+000	-8.00083E-001	0.00000E+000	9	...........	1425.95
	66	7.1	-8.01127E-001	-1.48636E-004	0.00000E+000	-8.00083E-001	0.00000E+000	9	...........	1426.13
	67	8.1	-8.01131E-001	-1.47572E-004	0.00000E+000	-8.00083E-001	0.00000E+000	9	...........	1426.13
	68	9.1	-8.01127E-001	-1.46661E-004	0.00000E+000	-8.00083E-001	0.00000E+000	9	...........	1426.22
	69	10.1	-8.01128E-001	-1.45820E-004	0.00000E+000	-8.00083E-001	0.00000E+000	9	...........	1426.22
	70	11.1	-8.01137E-001	-1.44915E-004	0.00000E+000	-8.00083E-001	0.00000E+000	9	...........	1426.22
	71	12.1	-8.01119E-001	-1.44068E-004	0.00000E+000	-8.00083E-001	0.00000E+000	9	...........	1426.22
	72	13.1	-8.01133E-001	-1.43454E-004	0.00000E+000	-8.00083E-001	0.00000E+000	9	...........	1426.13
	73	14.1	-8.01138E-001	-1.42936E-004	0.00000E+000	-8.00083E-001	0.00000E+000	9	...........	1426.22
	74	15.1	-8.01123E-001	-1.42460E-004	0.00000E+000	-8.00083E-001	0.00000E+000	9	...........	1426.13
	75	16.1	-8.01122E-001	-1.42035E-004	0.00000E+000	-8.00083E-001	0.00000E+000	9	...........	1426.22
	76	26.1	-8.01130E-001	-1.40003E-004	0.00000E+000	-8.00083E-001	0.00000E+000	9	...........	1426.22
	77	36.1	-8.01135E-001	-1.38450E-004	0.00000E+000	-8.00083E-001	0.00000E+000	9	...........	1426.22
	78	46.1	-8.01128E-001	-1.37947E-004	0.00000E+000	-8.00083E-001	0.00000E+000	9	...........	1426.22
	79	56.1	-8.01125E-001	-1.37327E-004	0.00000E+000	-8.00083E-001	0.00000E+000	9	...........	1426.22
	80	66.1	-8.01125E-001	-1.36594E-004	0.00000E+000	-8.00083E-001	0.00000E+000	9	...........	1426.22
	81	76.1	-8.01126E-001	-1.36677E-004	0.00000E+000	-8.00083E-001	0.00000E+000	9	...........	1426.22
	82	86.1	-8.01125E-001	-1.36214E-004	0.00000E+000	-8.00083E-001	0.00000E+000	9	...........	1426.22
	83	96.1	-8.01126E-001	-1.35640E-004	0.00000E+000	-8.00083E-001	0.00000E+000	9	...........	1426.22
	84	106.1	-8.01119E-001	-1.35880E-004	0.00000E+000	-8.00083E-001	0.00000E+000	9	...........	1426.22
	85	116.1	-8.01119E-001	-1.35689E-004	0.00000E+000	-8.00083E-001	0.00000E+000	9	...........	1426.13
	86	216.1	-8.01129E-001	-1.35129E-004	0.00000E+000	-8.00083E-001	0.00000E+000	9	...........	1426.13
	87	300	-8.01125E-001	-1.38343E-004	0.00000E+000	-8.00083E-001	0.00000E+000	9	...........	1426.22
	88	300.1	-7.01104E-001	2.31685E-004	0.00000E+000	-7.00083E-001	0.00000E+000	9	...........	1426.22
	89	300.2	-7.01099E-001	7.76591E-005	0.00000E+000	-7.00083E-001	0.00000E+000	9	...........	1426.22
	90	300.3	-7.01092E-001	3.57832E-006	0.00000E+000	-7.00083E-001	0.00000E+000	9	...........	1426.22
	91	300.4	-7.01098E-001	-3.60511E-005	0.00000E+000	-7.00083E-001	0.00000E+000	9	...........	1426.22
	92	300.5	-7.01090E-001	-5.87840E-005	0.00000E+000	-7.00083E-001	0.00000E+000	9	...........	1426.22
	93	300.6	-7.01085E-001	-7.26140E-005	0.00000E+000	-7.00083E-001	0.00000E+000	9	...........	1426.22
	94	300.7	-7.01099E-001	-8.18260E-005	0.00000E+000	-7.00083E-001	0.00000E+000	9	...........	1426.22
	95	300.8	-7.01112E-001	-8.80557E-005	0.00000E+000	-7.00083E-001	0.00000E+000	9	...........	1426.22
	96	300.9	-7.01111E-001	-9.25248E-005	0.00000E+000	-7.00083E-001	0.00000E+000	9	...........	1426.22
	97	301	-7.01115E-001	-9.57603E-005	0.00000E+000	-7.00083E-001	0.00000E+000	9	...........	1426.22
