EXPLAIN
TAG	CHRONOA
TITLE	LABEL	Chronoamperometry Scan	Test Identifier
DATE	LABEL	21/12/2021	Date
TIME	LABEL	12:05:56	Time
NOTES	NOTES	1	Notes...
	
PSTAT	PSTAT	IFC1010-21051	Potentiostat
VPRESTEP	POTEN	-7.00000E-001	F	Pre-step Voltage (V)
TPRESTEP	QUANT	5.00000E-001	Pre-step Delay Time (s)
VSTEP1	POTEN	-8.00000E-001	F	Step 1 Voltage (V)
TSTEP1	QUANT	3.00000E+002	Step 1 Time (s)
VSTEP2	POTEN	-7.00000E-001	F	Step 2 Voltage (V)
TSTEP2	QUANT	1.00000E+000	Step 2 Time (s)
SAMPLETIME	QUANT	1.00000E-001	Sample Period (s)
DECIMATE	TOGGLE	T	Decimate
ILIMIT	QUANT	1.00000E+000	Limit I (mA/cm^2)
IMODE	SELECTOR	1	I/E Range Mode
IRANGE	QUANT	3.00000E-001	Max Current (mA)
EQDELAY	QUANT	5.00000E+000	Equil. Time (s)
SAMPLINGMODE	SELECTOR	1	Sampling Mode
AREA	QUANT	1.00000E+000	Sample Area (cm^2)
IRCOMP	SELECTOR	0	IRComp
PFCOR	QUANT	5.00000E+001	PF Corr. (ohm)
SEQUENCER	TOGGLE	TRUE	Run as Sequence
PSTATMODEL	IQUANT	64	Pstat Model
PSTATSECTION	LABEL	IFC1010-21051	Pstat Section
PSTATSERIALNO	LABEL	21051	Pstat Serial Number
CTRLMODE	IQUANT	1	Control Mode
ELECTROMETER	IQUANT	0	RE=0 or CS=1
IESTAB	IQUANT	0	I/E Stability
CASPEED	IQUANT	4	Control Amp Speed
CONVENTION	IQUANT	1	Current Convention
ICHRANGE	IQUANT	2	Ich Range
ICHRANGEMODE	TOGGLE	T	Ich Auto Range
ICHOFFSETENABLE	TOGGLE	F	Ich Offset Enable
ICHOFFSET	QUANT	0	Ich Offset (V)
ICHFILTER	IQUANT	3	Ich Filter
VCHRANGE	IQUANT	3	Vch Range
VCHRANGEMODE	TOGGLE	T	Vch Auto Range
VCHOFFSETENABLE	TOGGLE	F	Vch Offset Enable
VCHOFFSET	QUANT	0	Vch Offset (V)
VCHFILTER	IQUANT	3	Vch Filter
IERANGELOWERLIMIT	IQUANT	4	I/E Range Lower Limit
IERANGEMODE	TOGGLE	F	I/E AutoRange
IERANGE	IQUANT	9	I/E Range
ACHSELECT	IQUANT	0	Ach Select
ACHRANGE	IQUANT	2	Ach Range
ACHOFFSETENABLE	TOGGLE	F	Ach Offset Enable
ACHOFFSET	QUANT	0	Ach Offset (V)
ACHFILTER	IQUANT	1	Ach Filter
SENSECABLEID	IQUANT	14	Sense Cable ID
PWRCABLEID	IQUANT	14	Power Cable ID
DCCALDATE	LABEL	10/1/2020	DC Calibration Date
ACCALDATE	LABEL	4/2/2018	AC Calibration Date
FRAMEWORKVERSION	QUANT	7.06	Framework Version
INSTRUMENTVERSION	LABEL	4.30	Instrument Version
CURVE	TABLE	98
	Pt	T	Vf	Im	Vu	Sig	Ach	IERange	Over	Temp
	#	s	V vs. Ref.	A	V	V	V	#	bits	deg C
	0	-0.4	-7.01118E-001	-1.19566E-004	0.00000E+000	-7.00083E-001	0.00000E+000	9	...........	1425.78
	1	-0.3	-7.01077E-001	-1.19350E-004	0.00000E+000	-7.00083E-001	0.00000E+000	9	...........	1425.78
	2	-0.2	-7.01081E-001	-1.19163E-004	0.00000E+000	-7.00083E-001	0.00000E+000	9	...........	1425.78
	3	-0.1	-7.01075E-001	-1.18949E-004	0.00000E+000	-7.00083E-001	0.00000E+000	9	...........	1425.78
	4	0	-7.01079E-001	-1.18698E-004	0.00000E+000	-7.00083E-001	0.00000E+000	9	...........	1425.78
	5	0.1	-8.01101E-001	-5.51154E-004	0.00000E+000	-8.00083E-001	0.00000E+000	9	...........	1425.78
	6	0.2	-8.01109E-001	-4.60942E-004	0.00000E+000	-8.00083E-001	0.00000E+000	9	...........	1425.78
	7	0.3	-8.01105E-001	-4.10020E-004	0.00000E+000	-8.00083E-001	0.00000E+000	9	...........	1425.78
	8	0.4	-8.01096E-001	-3.74810E-004	0.00000E+000	-8.00083E-001	0.00000E+000	9	...........	1425.78
	9	0.5	-8.01096E-001	-3.47741E-004	0.00000E+000	-8.00083E-001	0.00000E+000	9	...........	1425.95
	10	0.6	-8.01101E-001	-3.25849E-004	0.00000E+000	-8.00083E-001	0.00000E+000	9	...........	1425.95
	11	0.7	-8.01098E-001	-3.07522E-004	0.00000E+000	-8.00083E-001	0.00000E+000	9	...........	1425.95
	12	0.8	-8.01110E-001	-2.91859E-004	0.00000E+000	-8.00083E-001	0.00000E+000	9	...........	1425.95
	13	0.9	-8.01098E-001	-2.78192E-004	0.00000E+000	-8.00083E-001	0.00000E+000	9	...........	1425.95
	14	1	-8.01087E-001	-2.66271E-004	0.00000E+000	-8.00083E-001	0.00000E+000	9	...........	1425.95
	15	1.1	-8.01104E-001	-2.55853E-004	0.00000E+000	-8.00083E-001	0.00000E+000	9	...........	1425.95
	16	1.2	-8.01109E-001	-2.46503E-004	0.00000E+000	-8.00083E-001	0.00000E+000	9	...........	1425.95
	17	1.3	-8.01102E-001	-2.38182E-004	0.00000E+000	-8.00083E-001	0.00000E+000	9	...........	1425.95
	18	1.4	-8.01096E-001	-2.30710E-004	0.00000E+000	-8.00083E-001	0.00000E+000	9	...........	1425.95
	19	1.5	-8.01099E-001	-2.23980E-004	0.00000E+000	-8.00083E-001	0.00000E+000	9	...........	1425.42
	20	1.6	-8.01099E-001	-2.17927E-004	0.00000E+000	-8.00083E-001	0.00000E+000	9	...........	1425.42
	21	1.7	-8.01100E-001	-2.12405E-004	0.00000E+000	-8.00083E-001	0.00000E+000	9	...........	1425.42
	22	1.8	-8.01097E-001	-2.07390E-004	0.00000E+000	-8.00083E-001	0.00000E+000	9	...........	1425.42
	23	1.9	-8.01096E-001	-2.02768E-004	0.00000E+000	-8.00083E-001	0.00000E+000	9	...........	1425.42
	24	2	-8.01099E-001	-1.98570E-004	0.00000E+000	-8.00083E-001	0.00000E+000	9	...........	1425.42
	25	2.1	-8.01101E-001	-1.94704E-004	0.00000E+000	-8.00083E-001	0.00000E+000	9	...........	1425.42
	26	2.2	-8.01103E-001	-1.91312E-004	0.00000E+000	-8.00083E-001	0.00000E+000	9	...........	1425.42
	27	2.3	-8.01102E-001	-1.87985E-004	0.00000E+000	-8.00083E-001	0.00000E+000	9	...........	1425.42
	28	2.4	-8.01094E-001	-1.84957E-004	0.00000E+000	-8.00083E-001	0.00000E+000	9	...........	1425.42
	29	2.5	-8.01093E-001	-1.82247E-004	0.00000E+000	-8.00083E-001	0.00000E+000	9	...........	1425.42
	30	2.6	-8.01098E-001	-1.79729E-004	0.00000E+000	-8.00083E-001	0.00000E+000	9	...........	1425.42
	31	2.7	-8.01111E-001	-1.77326E-004	0.00000E+000	-8.00083E-001	0.00000E+000	9	...........	1425.42
	32	2.8	-8.01107E-001	-1.75147E-004	0.00000E+000	-8.00083E-001	0.00000E+000	9	...........	1425.42
	33	2.9	-8.01102E-001	-1.73021E-004	0.00000E+000	-8.00083E-001	0.00000E+000	9	...........	1425.42
	34	3	-8.01110E-001	-1.71225E-004	0.00000E+000	-8.00083E-001	0.00000E+000	9	...........	1425.42
	35	3.1	-8.01117E-001	-1.69420E-004	0.00000E+000	-8.00083E-001	0.00000E+000	9	...........	1425.42
	36	3.2	-8.01110E-001	-1.67696E-004	0.00000E+000	-8.00083E-001	0.00000E+000	9	...........	1425.42
	37	3.3	-8.01112E-001	-1.66207E-004	0.00000E+000	-8.00083E-001	0.00000E+000	9	...........	1425.42
	38	3.4	-8.01120E-001	-1.64694E-004	0.00000E+000	-8.00083E-001	0.00000E+000	9	...........	1425.42
	39	3.5	-8.01105E-001	-1.63307E-004	0.00000E+000	-8.00083E-001	0.00000E+000	9	...........	1425.51
	40	3.6	-8.01106E-001	-1.62042E-004	0.00000E+000	-8.00083E-001	0.00000E+000	9	...........	1425.51
	41	3.7	-8.01094E-001	-1.60799E-004	0.00000E+000	-8.00083E-001	0.00000E+000	9	...........	1425.51
	42	3.8	-8.01104E-001	-1.59638E-004	0.00000E+000	-8.00083E-001	0.00000E+000	9	...........	1425.51
	43	3.9	-8.01117E-001	-1.58612E-004	0.00000E+000	-8.00083E-001	0.00000E+000	9	...........	1425.51
	44	4	-8.01123E-001	-1.57575E-004	0.00000E+000	-8.00083E-001	0.00000E+000	9	...........	1425.51
	45	4.1	-8.01102E-001	-1.56605E-004	0.00000E+000	-8.00083E-001	0.00000E+000	9	...........	1425.51
	46	4.2	-8.01098E-001	-1.55673E-004	0.00000E+000	-8.00083E-001	0.00000E+000	9	...........	1425.51
	47	4.3	-8.01099E-001	-1.54758E-004	0.00000E+000	-8.00083E-001	0.00000E+000	9	...........	1425.51
	48	4.4	-8.01101E-001	-1.53963E-004	0.00000E+000	-8.00083E-001	0.00000E+000	9	...........	1425.51
	49	4.5	-8.01100E-001	-1.53160E-004	0.00000E+000	-8.00083E-001	0.00000E+000	9	...........	1425.78
	50	4.6	-8.01111E-001	-1.52483E-004	0.00000E+000	-8.00083E-001	0.00000E+000	9	...........	1425.78
	51	4.7	-8.01110E-001	-1.51760E-004	0.00000E+000	-8.00083E-001	0.00000E+000	9	...........	1425.78
	52	4.8	-8.01099E-001	-1.51015E-004	0.00000E+000	-8.00083E-001	0.00000E+000	9	...........	1425.78
	53	4.9	-8.01110E-001	-1.50463E-004	0.00000E+000	-8.00083E-001	0.00000E+000	9	...........	1425.78
	54	5	-8.01094E-001	-1.49780E-004	0.00000E+000	-8.00083E-001	0.00000E+000	9	...........	1425.78
	55	5.1	-8.01100E-001	-1.49281E-004	0.00000E+000	-8.00083E-001	0.00000E+000	9	...........	1425.78
	56	5.2	-8.01100E-001	-1.48656E-004	0.00000E+000	-8.00083E-001	0.00000E+000	9	...........	1425.78
	57	5.3	-8.01096E-001	-1.48052E-004	0.00000E+000	-8.00083E-001	0.00000E+000	9	...........	1425.78
	58	5.4	-8.01114E-001	-1.47671E-004	0.00000E+000	-8.00083E-001	0.00000E+000	9	...........	1425.78
	59	5.5	-8.01114E-001	-1.47195E-004	0.00000E+000	-8.00083E-001	0.00000E+000	9	...........	1425.42
	60	5.6	-8.01100E-001	-1.46661E-004	0.00000E+000	-8.00083E-001	0.00000E+000	9	...........	1425.42
	61	5.7	-8.01101E-001	-1.46326E-004	0.00000E+000	-8.00083E-001	0.00000E+000	9	...........	1425.42
	62	5.8	-8.01108E-001	-1.45899E-004	0.00000E+000	-8.00083E-001	0.00000E+000	9	...........	1425.42
	63	5.9	-8.01106E-001	-1.45443E-004	0.00000E+000	-8.00083E-001	0.00000E+000	9	...........	1425.42
	64	6	-8.01103E-001	-1.45039E-004	0.00000E+000	-8.00083E-001	0.00000E+000	9	...........	1425.42
	65	6.1	-8.01096E-001	-1.44724E-004	0.00000E+000	-8.00083E-001	0.00000E+000	9	...........	1425.42
	66	7.1	-8.01105E-001	-1.41664E-004	0.00000E+000	-8.00083E-001	0.00000E+000	9	...........	1425.42
	67	8.1	-8.01116E-001	-1.39538E-004	0.00000E+000	-8.00083E-001	0.00000E+000	9	...........	1425.87
	68	9.1	-8.01101E-001	-1.37764E-004	0.00000E+000	-8.00083E-001	0.00000E+000	9	...........	1425.87
	69	10.1	-8.01110E-001	-1.36283E-004	0.00000E+000	-8.00083E-001	0.00000E+000	9	...........	1425.87
	70	11.1	-8.01100E-001	-1.35365E-004	0.00000E+000	-8.00083E-001	0.00000E+000	9	...........	1425.87
	71	12.1	-8.01096E-001	-1.34274E-004	0.00000E+000	-8.00083E-001	0.00000E+000	9	...........	1425.87
	72	13.1	-8.01104E-001	-1.33430E-004	0.00000E+000	-8.00083E-001	0.00000E+000	9	...........	1425.87
	73	14.1	-8.01093E-001	-1.32624E-004	0.00000E+000	-8.00083E-001	0.00000E+000	9	...........	1425.87
	74	15.1	-8.01109E-001	-1.32180E-004	0.00000E+000	-8.00083E-001	0.00000E+000	9	...........	1425.87
	75	16.1	-8.01102E-001	-1.31795E-004	0.00000E+000	-8.00083E-001	0.00000E+000	9	...........	1425.87
	76	26.1	-8.01111E-001	-1.29157E-004	0.00000E+000	-8.00083E-001	0.00000E+000	9	...........	1425.87
	77	36.1	-8.01101E-001	-1.27934E-004	0.00000E+000	-8.00083E-001	0.00000E+000	9	...........	1425.87
	78	46.1	-8.01101E-001	-1.26846E-004	0.00000E+000	-8.00083E-001	0.00000E+000	9	...........	1425.95
	79	56.1	-8.01100E-001	-1.26480E-004	0.00000E+000	-8.00083E-001	0.00000E+000	9	...........	1425.87
	80	66.1	-8.01130E-001	-1.25733E-004	0.00000E+000	-8.00083E-001	0.00000E+000	9	...........	1425.87
	81	76.1	-8.01096E-001	-1.25454E-004	0.00000E+000	-8.00083E-001	0.00000E+000	9	...........	1425.87
	82	86.1	-8.01105E-001	-1.25398E-004	0.00000E+000	-8.00083E-001	0.00000E+000	9	...........	1425.87
	83	96.1	-8.01093E-001	-1.24738E-004	0.00000E+000	-8.00083E-001	0.00000E+000	9	...........	1425.87
	84	106.1	-8.01100E-001	-1.24442E-004	0.00000E+000	-8.00083E-001	0.00000E+000	9	...........	1425.87
	85	116.1	-8.01103E-001	-1.24944E-004	0.00000E+000	-8.00083E-001	0.00000E+000	9	...........	1425.87
	86	216.1	-8.01106E-001	-1.25015E-004	0.00000E+000	-8.00083E-001	0.00000E+000	9	...........	1425.87
	87	300	-8.01111E-001	-1.25779E-004	0.00000E+000	-8.00083E-001	0.00000E+000	9	...........	1425.87
	88	300.1	-7.01102E-001	2.48462E-004	0.00000E+000	-7.00083E-001	0.00000E+000	9	...........	1425.87
	89	300.2	-7.01078E-001	1.23703E-004	0.00000E+000	-7.00083E-001	0.00000E+000	9	...........	1425.87
	90	300.3	-7.01091E-001	5.30193E-005	0.00000E+000	-7.00083E-001	0.00000E+000	9	...........	1425.87
	91	300.4	-7.01089E-001	9.89704E-006	0.00000E+000	-7.00083E-001	0.00000E+000	9	...........	1425.87
	92	300.5	-7.01086E-001	-1.77185E-005	0.00000E+000	-7.00083E-001	0.00000E+000	9	...........	1425.87
	93	300.6	-7.01086E-001	-3.62256E-005	0.00000E+000	-7.00083E-001	0.00000E+000	9	...........	1425.87
	94	300.7	-7.01065E-001	-4.89714E-005	0.00000E+000	-7.00083E-001	0.00000E+000	9	...........	1425.87
	95	300.8	-7.01073E-001	-5.82291E-005	0.00000E+000	-7.00083E-001	0.00000E+000	9	...........	1425.87
	96	300.9	-7.01077E-001	-6.51299E-005	0.00000E+000	-7.00083E-001	0.00000E+000	9	...........	1425.87
	97	301	-7.01082E-001	-7.03163E-005	0.00000E+000	-7.00083E-001	0.00000E+000	9	...........	1425.87
