EXPLAIN
TAG	CHRONOA
TITLE	LABEL	Chronoamperometry Scan	Test Identifier
DATE	LABEL	21/12/2021	Date
TIME	LABEL	15:49:40	Time
NOTES	NOTES	1	Notes...
	
PSTAT	PSTAT	IFC1010-21051	Potentiostat
VPRESTEP	POTEN	1.00000E-001	F	Pre-step Voltage (V)
TPRESTEP	QUANT	5.00000E-001	Pre-step Delay Time (s)
VSTEP1	POTEN	2.00000E-001	F	Step 1 Voltage (V)
TSTEP1	QUANT	3.00000E+002	Step 1 Time (s)
VSTEP2	POTEN	3.00000E-001	F	Step 2 Voltage (V)
TSTEP2	QUANT	1.00000E+000	Step 2 Time (s)
SAMPLETIME	QUANT	1.00000E-001	Sample Period (s)
DECIMATE	TOGGLE	T	Decimate
ILIMIT	QUANT	1.00000E+000	Limit I (mA/cm^2)
IMODE	SELECTOR	1	I/E Range Mode
IRANGE	QUANT	3.00000E-001	Max Current (mA)
EQDELAY	QUANT	5.00000E+000	Equil. Time (s)
SAMPLINGMODE	SELECTOR	1	Sampling Mode
AREA	QUANT	1.00000E+000	Sample Area (cm^2)
IRCOMP	SELECTOR	0	IRComp
PFCOR	QUANT	5.00000E+001	PF Corr. (ohm)
SEQUENCER	TOGGLE	TRUE	Run as Sequence
PSTATMODEL	IQUANT	64	Pstat Model
PSTATSECTION	LABEL	IFC1010-21051	Pstat Section
PSTATSERIALNO	LABEL	21051	Pstat Serial Number
CTRLMODE	IQUANT	1	Control Mode
ELECTROMETER	IQUANT	0	RE=0 or CS=1
IESTAB	IQUANT	0	I/E Stability
CASPEED	IQUANT	4	Control Amp Speed
CONVENTION	IQUANT	1	Current Convention
ICHRANGE	IQUANT	2	Ich Range
ICHRANGEMODE	TOGGLE	T	Ich Auto Range
ICHOFFSETENABLE	TOGGLE	F	Ich Offset Enable
ICHOFFSET	QUANT	0	Ich Offset (V)
ICHFILTER	IQUANT	3	Ich Filter
VCHRANGE	IQUANT	3	Vch Range
VCHRANGEMODE	TOGGLE	T	Vch Auto Range
VCHOFFSETENABLE	TOGGLE	F	Vch Offset Enable
VCHOFFSET	QUANT	0	Vch Offset (V)
VCHFILTER	IQUANT	3	Vch Filter
IERANGELOWERLIMIT	IQUANT	4	I/E Range Lower Limit
IERANGEMODE	TOGGLE	F	I/E AutoRange
IERANGE	IQUANT	9	I/E Range
ACHSELECT	IQUANT	0	Ach Select
ACHRANGE	IQUANT	2	Ach Range
ACHOFFSETENABLE	TOGGLE	F	Ach Offset Enable
ACHOFFSET	QUANT	0	Ach Offset (V)
ACHFILTER	IQUANT	1	Ach Filter
SENSECABLEID	IQUANT	14	Sense Cable ID
PWRCABLEID	IQUANT	14	Power Cable ID
DCCALDATE	LABEL	10/1/2020	DC Calibration Date
ACCALDATE	LABEL	4/2/2018	AC Calibration Date
FRAMEWORKVERSION	QUANT	7.06	Framework Version
INSTRUMENTVERSION	LABEL	4.30	Instrument Version
CURVE	TABLE	98
	Pt	T	Vf	Im	Vu	Sig	Ach	IERange	Over	Temp
	#	s	V vs. Ref.	A	V	V	V	#	bits	deg C
	0	-0.4	9.98743E-002	6.77697E-007	0.00000E+000	1.00006E-001	0.00000E+000	9	...........	1426.04
	1	-0.3	1.00162E-001	6.36888E-007	0.00000E+000	1.00006E-001	0.00000E+000	9	...........	1426.04
	2	-0.2	1.00232E-001	5.98515E-007	0.00000E+000	1.00006E-001	0.00000E+000	9	...........	1426.04
	3	-0.1	1.00232E-001	5.48430E-007	0.00000E+000	1.00006E-001	0.00000E+000	9	...........	1426.04
	4	0	1.00232E-001	5.12160E-007	0.00000E+000	1.00006E-001	0.00000E+000	9	...........	1426.04
	5	0.1	2.00229E-001	2.17371E-004	0.00000E+000	2.00005E-001	0.00000E+000	9	...........	1426.04
	6	0.2	2.00229E-001	9.49755E-005	0.00000E+000	2.00005E-001	0.00000E+000	9	...........	1426.04
	7	0.3	2.00230E-001	5.07916E-005	0.00000E+000	2.00005E-001	0.00000E+000	9	...........	1426.04
	8	0.4	2.00229E-001	3.21234E-005	0.00000E+000	2.00005E-001	0.00000E+000	9	...........	1426.04
	9	0.5	2.00227E-001	2.31599E-005	0.00000E+000	2.00005E-001	0.00000E+000	9	...........	1426.04
	10	0.6	2.00228E-001	1.82937E-005	0.00000E+000	2.00005E-001	0.00000E+000	9	...........	1426.04
	11	0.7	2.00226E-001	1.53441E-005	0.00000E+000	2.00005E-001	0.00000E+000	9	...........	1426.04
	12	0.8	2.00226E-001	1.33595E-005	0.00000E+000	2.00005E-001	0.00000E+000	9	...........	1426.04
	13	0.9	2.00227E-001	1.19487E-005	0.00000E+000	2.00005E-001	0.00000E+000	9	...........	1426.04
	14	1	2.00225E-001	1.08787E-005	0.00000E+000	2.00005E-001	0.00000E+000	9	...........	1426.04
	15	1.1	2.00225E-001	1.00021E-005	0.00000E+000	2.00005E-001	0.00000E+000	9	...........	1426.04
	16	1.2	2.00228E-001	9.31204E-006	0.00000E+000	2.00005E-001	0.00000E+000	9	...........	1426.04
	17	1.3	2.00227E-001	8.70571E-006	0.00000E+000	2.00005E-001	0.00000E+000	9	...........	1426.04
	18	1.4	2.00227E-001	8.20813E-006	0.00000E+000	2.00005E-001	0.00000E+000	9	...........	1426.04
	19	1.5	2.00226E-001	7.75567E-006	0.00000E+000	2.00005E-001	0.00000E+000	9	...........	1426.04
	20	1.6	2.00226E-001	7.37397E-006	0.00000E+000	2.00005E-001	0.00000E+000	9	...........	1425.87
	21	1.7	2.00226E-001	7.01060E-006	0.00000E+000	2.00005E-001	0.00000E+000	9	...........	1425.87
	22	1.8	2.00226E-001	6.70779E-006	0.00000E+000	2.00005E-001	0.00000E+000	9	...........	1425.87
	23	1.9	2.00225E-001	6.42973E-006	0.00000E+000	2.00005E-001	0.00000E+000	9	...........	1425.87
	24	2	2.00225E-001	6.18832E-006	0.00000E+000	2.00005E-001	0.00000E+000	9	...........	1425.87
	25	2.1	2.00228E-001	5.95027E-006	0.00000E+000	2.00005E-001	0.00000E+000	9	...........	1425.87
	26	2.2	2.00228E-001	5.75524E-006	0.00000E+000	2.00005E-001	0.00000E+000	9	...........	1425.87
	27	2.3	2.00228E-001	5.56097E-006	0.00000E+000	2.00005E-001	0.00000E+000	9	...........	1425.87
	28	2.4	2.00228E-001	5.36914E-006	0.00000E+000	2.00005E-001	0.00000E+000	9	...........	1425.87
	29	2.5	2.00227E-001	5.18048E-006	0.00000E+000	2.00005E-001	0.00000E+000	9	...........	1425.87
	30	2.6	2.00227E-001	5.03503E-006	0.00000E+000	2.00005E-001	0.00000E+000	9	...........	1426.31
	31	2.7	2.00229E-001	4.87873E-006	0.00000E+000	2.00005E-001	0.00000E+000	9	...........	1426.31
	32	2.8	2.00227E-001	4.72304E-006	0.00000E+000	2.00005E-001	0.00000E+000	9	...........	1426.31
	33	2.9	2.00228E-001	4.57285E-006	0.00000E+000	2.00005E-001	0.00000E+000	9	...........	1426.31
	34	3	2.00227E-001	4.44996E-006	0.00000E+000	2.00005E-001	0.00000E+000	9	...........	1426.31
	35	3.1	2.00227E-001	4.29706E-006	0.00000E+000	2.00005E-001	0.00000E+000	9	...........	1426.31
	36	3.2	2.00228E-001	4.18668E-006	0.00000E+000	2.00005E-001	0.00000E+000	9	...........	1426.31
	37	3.3	2.00228E-001	4.07033E-006	0.00000E+000	2.00005E-001	0.00000E+000	9	...........	1426.31
	38	3.4	2.00229E-001	3.97687E-006	0.00000E+000	2.00005E-001	0.00000E+000	9	...........	1426.31
	39	3.5	2.00229E-001	3.86028E-006	0.00000E+000	2.00005E-001	0.00000E+000	9	...........	1426.31
	40	3.6	2.00227E-001	3.79685E-006	0.00000E+000	2.00005E-001	0.00000E+000	9	...........	1426.31
	41	3.7	2.00228E-001	3.71036E-006	0.00000E+000	2.00005E-001	0.00000E+000	9	...........	1426.31
	42	3.8	2.00229E-001	3.59060E-006	0.00000E+000	2.00005E-001	0.00000E+000	9	...........	1426.31
	43	3.9	2.00228E-001	3.52891E-006	0.00000E+000	2.00005E-001	0.00000E+000	9	...........	1426.31
	44	4	2.00227E-001	3.43838E-006	0.00000E+000	2.00005E-001	0.00000E+000	9	...........	1426.31
	45	4.1	2.00228E-001	3.36924E-006	0.00000E+000	2.00005E-001	0.00000E+000	9	...........	1426.31
	46	4.2	2.00228E-001	3.30180E-006	0.00000E+000	2.00005E-001	0.00000E+000	9	...........	1426.31
	47	4.3	2.00228E-001	3.23046E-006	0.00000E+000	2.00005E-001	0.00000E+000	9	...........	1426.31
	48	4.4	2.00228E-001	3.17351E-006	0.00000E+000	2.00005E-001	0.00000E+000	9	...........	1426.31
	49	4.5	2.00228E-001	3.10570E-006	0.00000E+000	2.00005E-001	0.00000E+000	9	...........	1426.31
	50	4.6	2.00227E-001	3.04207E-006	0.00000E+000	2.00005E-001	0.00000E+000	9	...........	1426.31
	51	4.7	2.00226E-001	2.97907E-006	0.00000E+000	2.00005E-001	0.00000E+000	9	...........	1426.31
	52	4.8	2.00226E-001	2.95772E-006	0.00000E+000	2.00005E-001	0.00000E+000	9	...........	1426.31
	53	4.9	2.00227E-001	2.92241E-006	0.00000E+000	2.00005E-001	0.00000E+000	9	...........	1426.31
	54	5	2.00227E-001	2.89739E-006	0.00000E+000	2.00005E-001	0.00000E+000	9	...........	1426.31
	55	5.1	2.00227E-001	2.85391E-006	0.00000E+000	2.00005E-001	0.00000E+000	9	...........	1426.31
	56	5.2	2.00228E-001	2.84530E-006	0.00000E+000	2.00005E-001	0.00000E+000	9	...........	1426.31
	57	5.3	2.00225E-001	2.81297E-006	0.00000E+000	2.00005E-001	0.00000E+000	9	...........	1426.31
	58	5.4	2.00227E-001	2.78617E-006	0.00000E+000	2.00005E-001	0.00000E+000	9	...........	1426.31
	59	5.5	2.00225E-001	2.73599E-006	0.00000E+000	2.00005E-001	0.00000E+000	9	...........	1426.31
	60	5.6	2.00227E-001	2.70999E-006	0.00000E+000	2.00005E-001	0.00000E+000	9	...........	1426.31
	61	5.7	2.00225E-001	2.68133E-006	0.00000E+000	2.00005E-001	0.00000E+000	9	...........	1426.31
	62	5.8	2.00226E-001	2.67803E-006	0.00000E+000	2.00005E-001	0.00000E+000	9	...........	1426.31
	63	5.9	2.00229E-001	2.65170E-006	0.00000E+000	2.00005E-001	0.00000E+000	9	...........	1426.31
	64	6	2.00227E-001	2.64126E-006	0.00000E+000	2.00005E-001	0.00000E+000	9	...........	1426.31
	65	6.1	2.00227E-001	2.60579E-006	0.00000E+000	2.00005E-001	0.00000E+000	9	...........	1426.31
	66	7.1	2.00228E-001	2.34275E-006	0.00000E+000	2.00005E-001	0.00000E+000	9	...........	1426.31
	67	8.1	2.00226E-001	2.10177E-006	0.00000E+000	2.00005E-001	0.00000E+000	9	...........	1426.31
	68	9.1	2.00228E-001	1.98174E-006	0.00000E+000	2.00005E-001	0.00000E+000	9	...........	1426.31
	69	10.1	2.00227E-001	1.83276E-006	0.00000E+000	2.00005E-001	0.00000E+000	9	...........	1426.40
	70	11.1	2.00228E-001	1.54139E-006	0.00000E+000	2.00005E-001	0.00000E+000	9	...........	1426.22
	71	12.1	2.00227E-001	1.24455E-006	0.00000E+000	2.00005E-001	0.00000E+000	9	...........	1426.22
	72	13.1	2.00226E-001	1.12636E-006	0.00000E+000	2.00005E-001	0.00000E+000	9	...........	1426.31
	73	14.1	2.00227E-001	1.04117E-006	0.00000E+000	2.00005E-001	0.00000E+000	9	...........	1426.40
	74	15.1	2.00226E-001	8.60018E-007	0.00000E+000	2.00005E-001	0.00000E+000	9	...........	1426.40
	75	16.1	2.00230E-001	7.56578E-007	0.00000E+000	2.00005E-001	0.00000E+000	9	...........	1426.40
	76	26.1	2.00228E-001	6.04088E-007	0.00000E+000	2.00005E-001	0.00000E+000	9	...........	1426.40
	77	36.1	2.00228E-001	7.76779E-008	0.00000E+000	2.00005E-001	0.00000E+000	9	...........	1426.40
	78	46.1	2.00227E-001	3.81425E-007	0.00000E+000	2.00005E-001	0.00000E+000	9	...........	1426.40
	79	56.1	2.00227E-001	-3.62730E-008	0.00000E+000	2.00005E-001	0.00000E+000	9	...........	1426.40
	80	66.1	2.00227E-001	4.92152E-008	0.00000E+000	2.00005E-001	0.00000E+000	9	...........	1426.40
	81	76.1	2.00229E-001	8.27164E-008	0.00000E+000	2.00005E-001	0.00000E+000	9	...........	1426.40
	82	86.1	2.00228E-001	-2.30640E-007	0.00000E+000	2.00005E-001	0.00000E+000	9	...........	1426.40
	83	96.1	2.00228E-001	1.22157E-007	0.00000E+000	2.00005E-001	0.00000E+000	9	...........	1426.40
	84	106.1	2.00229E-001	-1.93335E-007	0.00000E+000	2.00005E-001	0.00000E+000	9	...........	1426.40
	85	116.1	2.00226E-001	3.13430E-009	0.00000E+000	2.00005E-001	0.00000E+000	9	...........	1426.40
	86	216.1	2.00229E-001	-6.27337E-008	0.00000E+000	2.00005E-001	0.00000E+000	9	...........	1426.40
	87	300	2.00228E-001	-3.36583E-007	0.00000E+000	2.00005E-001	0.00000E+000	9	...........	1426.40
	88	300.1	3.00246E-001	2.38635E-004	0.00000E+000	3.00005E-001	0.00000E+000	9	...........	1426.40
	89	300.2	3.00203E-001	1.33258E-004	0.00000E+000	3.00005E-001	0.00000E+000	9	...........	1426.40
	90	300.3	3.00204E-001	9.44425E-005	0.00000E+000	3.00005E-001	0.00000E+000	9	...........	1426.40
	91	300.4	3.00203E-001	7.59267E-005	0.00000E+000	3.00005E-001	0.00000E+000	9	...........	1426.40
	92	300.5	3.00195E-001	6.54513E-005	0.00000E+000	3.00005E-001	0.00000E+000	9	...........	1426.40
	93	300.6	3.00202E-001	5.87492E-005	0.00000E+000	3.00005E-001	0.00000E+000	9	...........	1426.40
	94	300.7	3.00213E-001	5.40188E-005	0.00000E+000	3.00005E-001	0.00000E+000	9	...........	1426.40
	95	300.8	3.00209E-001	5.04676E-005	0.00000E+000	3.00005E-001	0.00000E+000	9	...........	1426.40
	96	300.9	3.00203E-001	4.76450E-005	0.00000E+000	3.00005E-001	0.00000E+000	9	...........	1426.40
	97	301	3.00213E-001	4.53281E-005	0.00000E+000	3.00005E-001	0.00000E+000	9	...........	1426.40
