EXPLAIN
TAG	CHRONOA
TITLE	LABEL	Chronoamperometry Scan	Test Identifier
DATE	LABEL	21/12/2021	Date
TIME	LABEL	12:19:25	Time
NOTES	NOTES	1	Notes...
	
PSTAT	PSTAT	IFC1010-21051	Potentiostat
VPRESTEP	POTEN	1.00000E-001	F	Pre-step Voltage (V)
TPRESTEP	QUANT	5.00000E-001	Pre-step Delay Time (s)
VSTEP1	POTEN	2.00000E-001	F	Step 1 Voltage (V)
TSTEP1	QUANT	3.00000E+002	Step 1 Time (s)
VSTEP2	POTEN	3.00000E-001	F	Step 2 Voltage (V)
TSTEP2	QUANT	1.00000E+000	Step 2 Time (s)
SAMPLETIME	QUANT	1.00000E-001	Sample Period (s)
DECIMATE	TOGGLE	T	Decimate
ILIMIT	QUANT	1.00000E+000	Limit I (mA/cm^2)
IMODE	SELECTOR	1	I/E Range Mode
IRANGE	QUANT	3.00000E-001	Max Current (mA)
EQDELAY	QUANT	5.00000E+000	Equil. Time (s)
SAMPLINGMODE	SELECTOR	1	Sampling Mode
AREA	QUANT	1.00000E+000	Sample Area (cm^2)
IRCOMP	SELECTOR	0	IRComp
PFCOR	QUANT	5.00000E+001	PF Corr. (ohm)
SEQUENCER	TOGGLE	TRUE	Run as Sequence
PSTATMODEL	IQUANT	64	Pstat Model
PSTATSECTION	LABEL	IFC1010-21051	Pstat Section
PSTATSERIALNO	LABEL	21051	Pstat Serial Number
CTRLMODE	IQUANT	1	Control Mode
ELECTROMETER	IQUANT	0	RE=0 or CS=1
IESTAB	IQUANT	0	I/E Stability
CASPEED	IQUANT	4	Control Amp Speed
CONVENTION	IQUANT	1	Current Convention
ICHRANGE	IQUANT	2	Ich Range
ICHRANGEMODE	TOGGLE	T	Ich Auto Range
ICHOFFSETENABLE	TOGGLE	F	Ich Offset Enable
ICHOFFSET	QUANT	0	Ich Offset (V)
ICHFILTER	IQUANT	3	Ich Filter
VCHRANGE	IQUANT	3	Vch Range
VCHRANGEMODE	TOGGLE	T	Vch Auto Range
VCHOFFSETENABLE	TOGGLE	F	Vch Offset Enable
VCHOFFSET	QUANT	0	Vch Offset (V)
VCHFILTER	IQUANT	3	Vch Filter
IERANGELOWERLIMIT	IQUANT	4	I/E Range Lower Limit
IERANGEMODE	TOGGLE	F	I/E AutoRange
IERANGE	IQUANT	9	I/E Range
ACHSELECT	IQUANT	0	Ach Select
ACHRANGE	IQUANT	2	Ach Range
ACHOFFSETENABLE	TOGGLE	F	Ach Offset Enable
ACHOFFSET	QUANT	0	Ach Offset (V)
ACHFILTER	IQUANT	1	Ach Filter
SENSECABLEID	IQUANT	14	Sense Cable ID
PWRCABLEID	IQUANT	14	Power Cable ID
DCCALDATE	LABEL	10/1/2020	DC Calibration Date
ACCALDATE	LABEL	4/2/2018	AC Calibration Date
FRAMEWORKVERSION	QUANT	7.06	Framework Version
INSTRUMENTVERSION	LABEL	4.30	Instrument Version
CURVE	TABLE	98
	Pt	T	Vf	Im	Vu	Sig	Ach	IERange	Over	Temp
	#	s	V vs. Ref.	A	V	V	V	#	bits	deg C
	0	-0.4	9.99347E-002	2.11368E-006	0.00000E+000	1.00006E-001	0.00000E+000	9	...........	1425.78
	1	-0.3	1.00165E-001	2.05465E-006	0.00000E+000	1.00006E-001	0.00000E+000	9	...........	1425.78
	2	-0.2	1.00237E-001	1.98224E-006	0.00000E+000	1.00006E-001	0.00000E+000	9	...........	1425.78
	3	-0.1	1.00234E-001	1.91871E-006	0.00000E+000	1.00006E-001	0.00000E+000	9	...........	1425.78
	4	0	1.00236E-001	1.85348E-006	0.00000E+000	1.00006E-001	0.00000E+000	9	...........	1425.78
	5	0.1	2.00230E-001	2.52136E-004	0.00000E+000	2.00005E-001	0.00000E+000	9	...........	1425.78
	6	0.2	2.00235E-001	1.39580E-004	0.00000E+000	2.00005E-001	0.00000E+000	9	...........	1425.78
	7	0.3	2.00234E-001	8.81274E-005	0.00000E+000	2.00005E-001	0.00000E+000	9	...........	1425.79
	8	0.4	2.00233E-001	6.12187E-005	0.00000E+000	2.00005E-001	0.00000E+000	9	...........	1425.87
	9	0.5	2.00235E-001	4.59037E-005	0.00000E+000	2.00005E-001	0.00000E+000	9	...........	1425.87
	10	0.6	2.00234E-001	3.65699E-005	0.00000E+000	2.00005E-001	0.00000E+000	9	...........	1425.87
	11	0.7	2.00234E-001	3.05340E-005	0.00000E+000	2.00005E-001	0.00000E+000	9	...........	1425.87
	12	0.8	2.00233E-001	2.64179E-005	0.00000E+000	2.00005E-001	0.00000E+000	9	...........	1425.87
	13	0.9	2.00234E-001	2.34354E-005	0.00000E+000	2.00005E-001	0.00000E+000	9	...........	1425.87
	14	1	2.00234E-001	2.12017E-005	0.00000E+000	2.00005E-001	0.00000E+000	9	...........	1425.87
	15	1.1	2.00233E-001	1.94306E-005	0.00000E+000	2.00005E-001	0.00000E+000	9	...........	1425.87
	16	1.2	2.00233E-001	1.80219E-005	0.00000E+000	2.00005E-001	0.00000E+000	9	...........	1425.87
	17	1.3	2.00234E-001	1.68378E-005	0.00000E+000	2.00005E-001	0.00000E+000	9	...........	1425.84
	18	1.4	2.00234E-001	1.58381E-005	0.00000E+000	2.00005E-001	0.00000E+000	9	...........	1425.69
	19	1.5	2.00233E-001	1.49681E-005	0.00000E+000	2.00005E-001	0.00000E+000	9	...........	1425.69
	20	1.6	2.00232E-001	1.42121E-005	0.00000E+000	2.00005E-001	0.00000E+000	9	...........	1425.69
	21	1.7	2.00232E-001	1.35316E-005	0.00000E+000	2.00005E-001	0.00000E+000	9	...........	1425.69
	22	1.8	2.00234E-001	1.29292E-005	0.00000E+000	2.00005E-001	0.00000E+000	9	...........	1425.69
	23	1.9	2.00233E-001	1.23868E-005	0.00000E+000	2.00005E-001	0.00000E+000	9	...........	1425.69
	24	2	2.00232E-001	1.18969E-005	0.00000E+000	2.00005E-001	0.00000E+000	9	...........	1425.69
	25	2.1	2.00234E-001	1.14781E-005	0.00000E+000	2.00005E-001	0.00000E+000	9	...........	1425.69
	26	2.2	2.00234E-001	1.10571E-005	0.00000E+000	2.00005E-001	0.00000E+000	9	...........	1425.69
	27	2.3	2.00232E-001	1.06956E-005	0.00000E+000	2.00005E-001	0.00000E+000	9	...........	1425.72
	28	2.4	2.00233E-001	1.03265E-005	0.00000E+000	2.00005E-001	0.00000E+000	9	...........	1425.87
	29	2.5	2.00231E-001	1.00118E-005	0.00000E+000	2.00005E-001	0.00000E+000	9	...........	1425.87
	30	2.6	2.00232E-001	9.72226E-006	0.00000E+000	2.00005E-001	0.00000E+000	9	...........	1425.87
	31	2.7	2.00231E-001	9.43563E-006	0.00000E+000	2.00005E-001	0.00000E+000	9	...........	1425.87
	32	2.8	2.00232E-001	9.17250E-006	0.00000E+000	2.00005E-001	0.00000E+000	9	...........	1425.87
	33	2.9	2.00232E-001	8.90912E-006	0.00000E+000	2.00005E-001	0.00000E+000	9	...........	1425.87
	34	3	2.00233E-001	8.69056E-006	0.00000E+000	2.00005E-001	0.00000E+000	9	...........	1425.87
	35	3.1	2.00231E-001	8.46303E-006	0.00000E+000	2.00005E-001	0.00000E+000	9	...........	1425.87
	36	3.2	2.00231E-001	8.25759E-006	0.00000E+000	2.00005E-001	0.00000E+000	9	...........	1425.87
	37	3.3	2.00230E-001	8.06355E-006	0.00000E+000	2.00005E-001	0.00000E+000	9	...........	1425.84
	38	3.4	2.00232E-001	7.84566E-006	0.00000E+000	2.00005E-001	0.00000E+000	9	...........	1425.69
	39	3.5	2.00230E-001	7.68549E-006	0.00000E+000	2.00005E-001	0.00000E+000	9	...........	1425.69
	40	3.6	2.00231E-001	7.51322E-006	0.00000E+000	2.00005E-001	0.00000E+000	9	...........	1425.69
	41	3.7	2.00231E-001	7.35602E-006	0.00000E+000	2.00005E-001	0.00000E+000	9	...........	1425.69
	42	3.8	2.00230E-001	7.20253E-006	0.00000E+000	2.00005E-001	0.00000E+000	9	...........	1425.69
	43	3.9	2.00230E-001	7.05017E-006	0.00000E+000	2.00005E-001	0.00000E+000	9	...........	1425.69
	44	4	2.00231E-001	6.91557E-006	0.00000E+000	2.00005E-001	0.00000E+000	9	...........	1425.69
	45	4.1	2.00231E-001	6.78747E-006	0.00000E+000	2.00005E-001	0.00000E+000	9	...........	1425.69
	46	4.2	2.00229E-001	6.65049E-006	0.00000E+000	2.00005E-001	0.00000E+000	9	...........	1425.69
	47	4.3	2.00231E-001	6.53671E-006	0.00000E+000	2.00005E-001	0.00000E+000	9	...........	1425.69
	48	4.4	2.00231E-001	6.42850E-006	0.00000E+000	2.00005E-001	0.00000E+000	9	...........	1425.69
	49	4.5	2.00231E-001	6.30784E-006	0.00000E+000	2.00005E-001	0.00000E+000	9	...........	1425.69
	50	4.6	2.00232E-001	6.19062E-006	0.00000E+000	2.00005E-001	0.00000E+000	9	...........	1425.69
	51	4.7	2.00233E-001	6.05845E-006	0.00000E+000	2.00005E-001	0.00000E+000	9	...........	1425.69
	52	4.8	2.00232E-001	5.94653E-006	0.00000E+000	2.00005E-001	0.00000E+000	9	...........	1425.69
	53	4.9	2.00231E-001	5.84723E-006	0.00000E+000	2.00005E-001	0.00000E+000	9	...........	1425.69
	54	5	2.00231E-001	5.72594E-006	0.00000E+000	2.00005E-001	0.00000E+000	9	...........	1425.69
	55	5.1	2.00231E-001	5.63671E-006	0.00000E+000	2.00005E-001	0.00000E+000	9	...........	1425.69
	56	5.2	2.00233E-001	5.54602E-006	0.00000E+000	2.00005E-001	0.00000E+000	9	...........	1425.69
	57	5.3	2.00232E-001	5.44228E-006	0.00000E+000	2.00005E-001	0.00000E+000	9	...........	1425.69
	58	5.4	2.00231E-001	5.34348E-006	0.00000E+000	2.00005E-001	0.00000E+000	9	...........	1425.69
	59	5.5	2.00231E-001	5.26463E-006	0.00000E+000	2.00005E-001	0.00000E+000	9	...........	1425.69
	60	5.6	2.00232E-001	5.17607E-006	0.00000E+000	2.00005E-001	0.00000E+000	9	...........	1425.69
	61	5.7	2.00231E-001	5.07720E-006	0.00000E+000	2.00005E-001	0.00000E+000	9	...........	1425.69
	62	5.8	2.00233E-001	5.00283E-006	0.00000E+000	2.00005E-001	0.00000E+000	9	...........	1425.69
	63	5.9	2.00231E-001	4.92535E-006	0.00000E+000	2.00005E-001	0.00000E+000	9	...........	1425.69
	64	6	2.00229E-001	4.83842E-006	0.00000E+000	2.00005E-001	0.00000E+000	9	...........	1425.69
	65	6.1	2.00229E-001	4.76592E-006	0.00000E+000	2.00005E-001	0.00000E+000	9	...........	1425.69
	66	7.1	2.00231E-001	4.05752E-006	0.00000E+000	2.00005E-001	0.00000E+000	9	...........	1425.69
	67	8.1	2.00234E-001	3.54315E-006	0.00000E+000	2.00005E-001	0.00000E+000	9	...........	1425.95
	68	9.1	2.00233E-001	3.10390E-006	0.00000E+000	2.00005E-001	0.00000E+000	9	...........	1426.04
	69	10.1	2.00232E-001	2.71039E-006	0.00000E+000	2.00005E-001	0.00000E+000	9	...........	1426.04
	70	11.1	2.00233E-001	2.30020E-006	0.00000E+000	2.00005E-001	0.00000E+000	9	...........	1426.04
	71	12.1	2.00234E-001	1.97527E-006	0.00000E+000	2.00005E-001	0.00000E+000	9	...........	1426.04
	72	13.1	2.00233E-001	1.77810E-006	0.00000E+000	2.00005E-001	0.00000E+000	9	...........	1426.04
	73	14.1	2.00233E-001	1.61256E-006	0.00000E+000	2.00005E-001	0.00000E+000	9	...........	1426.04
	74	15.1	2.00233E-001	1.49988E-006	0.00000E+000	2.00005E-001	0.00000E+000	9	...........	1426.04
	75	16.1	2.00231E-001	1.34972E-006	0.00000E+000	2.00005E-001	0.00000E+000	9	...........	1426.04
	76	26.1	2.00232E-001	5.10558E-007	0.00000E+000	2.00005E-001	0.00000E+000	9	...........	1425.95
	77	36.1	2.00233E-001	2.70177E-007	0.00000E+000	2.00005E-001	0.00000E+000	9	...........	1426.04
	78	46.1	2.00232E-001	-3.04003E-008	0.00000E+000	2.00005E-001	0.00000E+000	9	...........	1426.04
	79	56.1	2.00232E-001	-3.16162E-007	0.00000E+000	2.00005E-001	0.00000E+000	9	...........	1426.04
	80	66.1	2.00233E-001	-1.21394E-007	0.00000E+000	2.00005E-001	0.00000E+000	9	...........	1426.04
	81	76.1	2.00236E-001	-3.76791E-007	0.00000E+000	2.00005E-001	0.00000E+000	9	...........	1426.04
	82	86.1	2.00235E-001	-1.57832E-007	0.00000E+000	2.00005E-001	0.00000E+000	9	...........	1426.04
	83	96.1	2.00234E-001	-3.83231E-007	0.00000E+000	2.00005E-001	0.00000E+000	9	...........	1426.04
	84	106.1	2.00232E-001	-2.36780E-007	0.00000E+000	2.00005E-001	0.00000E+000	9	...........	1426.04
	85	116.1	2.00230E-001	-3.31177E-007	0.00000E+000	2.00005E-001	0.00000E+000	9	...........	1426.04
	86	216.1	2.00232E-001	-5.21240E-007	0.00000E+000	2.00005E-001	0.00000E+000	9	...........	1426.04
	87	300	2.00232E-001	-4.51702E-007	0.00000E+000	2.00005E-001	0.00000E+000	9	...........	1426.04
	88	300.1	3.00251E-001	2.17167E-004	0.00000E+000	3.00005E-001	0.00000E+000	9	...........	1426.04
	89	300.2	3.00216E-001	1.11198E-004	0.00000E+000	3.00005E-001	0.00000E+000	9	...........	1426.04
	90	300.3	3.00219E-001	6.79919E-005	0.00000E+000	3.00005E-001	0.00000E+000	9	...........	1426.04
	91	300.4	3.00220E-001	4.71270E-005	0.00000E+000	3.00005E-001	0.00000E+000	9	...........	1426.04
	92	300.5	3.00219E-001	3.58568E-005	0.00000E+000	3.00005E-001	0.00000E+000	9	...........	1426.04
	93	300.6	3.00214E-001	2.91919E-005	0.00000E+000	3.00005E-001	0.00000E+000	9	...........	1426.04
	94	300.7	3.00214E-001	2.48920E-005	0.00000E+000	3.00005E-001	0.00000E+000	9	...........	1426.04
	95	300.8	3.00214E-001	2.19676E-005	0.00000E+000	3.00005E-001	0.00000E+000	9	...........	1426.04
	96	300.9	3.00201E-001	1.98339E-005	0.00000E+000	3.00005E-001	0.00000E+000	9	...........	1426.04
	97	301	3.00202E-001	1.82076E-005	0.00000E+000	3.00005E-001	0.00000E+000	9	...........	1426.04
