EXPLAIN
TAG	CHRONOA
TITLE	LABEL	Chronoamperometry Scan	Test Identifier
DATE	LABEL	21/12/2021	Date
TIME	LABEL	12:46:05	Time
NOTES	NOTES	1	Notes...
	
PSTAT	PSTAT	IFC1010-21051	Potentiostat
VPRESTEP	POTEN	-7.00000E-001	F	Pre-step Voltage (V)
TPRESTEP	QUANT	5.00000E-001	Pre-step Delay Time (s)
VSTEP1	POTEN	-8.00000E-001	F	Step 1 Voltage (V)
TSTEP1	QUANT	3.00000E+002	Step 1 Time (s)
VSTEP2	POTEN	-7.00000E-001	F	Step 2 Voltage (V)
TSTEP2	QUANT	1.00000E+000	Step 2 Time (s)
SAMPLETIME	QUANT	1.00000E-001	Sample Period (s)
DECIMATE	TOGGLE	T	Decimate
ILIMIT	QUANT	1.00000E+000	Limit I (mA/cm^2)
IMODE	SELECTOR	1	I/E Range Mode
IRANGE	QUANT	3.00000E-001	Max Current (mA)
EQDELAY	QUANT	5.00000E+000	Equil. Time (s)
SAMPLINGMODE	SELECTOR	1	Sampling Mode
AREA	QUANT	1.00000E+000	Sample Area (cm^2)
IRCOMP	SELECTOR	0	IRComp
PFCOR	QUANT	5.00000E+001	PF Corr. (ohm)
SEQUENCER	TOGGLE	TRUE	Run as Sequence
PSTATMODEL	IQUANT	64	Pstat Model
PSTATSECTION	LABEL	IFC1010-21051	Pstat Section
PSTATSERIALNO	LABEL	21051	Pstat Serial Number
CTRLMODE	IQUANT	1	Control Mode
ELECTROMETER	IQUANT	0	RE=0 or CS=1
IESTAB	IQUANT	0	I/E Stability
CASPEED	IQUANT	4	Control Amp Speed
CONVENTION	IQUANT	1	Current Convention
ICHRANGE	IQUANT	2	Ich Range
ICHRANGEMODE	TOGGLE	T	Ich Auto Range
ICHOFFSETENABLE	TOGGLE	F	Ich Offset Enable
ICHOFFSET	QUANT	0	Ich Offset (V)
ICHFILTER	IQUANT	3	Ich Filter
VCHRANGE	IQUANT	3	Vch Range
VCHRANGEMODE	TOGGLE	T	Vch Auto Range
VCHOFFSETENABLE	TOGGLE	F	Vch Offset Enable
VCHOFFSET	QUANT	0	Vch Offset (V)
VCHFILTER	IQUANT	3	Vch Filter
IERANGELOWERLIMIT	IQUANT	4	I/E Range Lower Limit
IERANGEMODE	TOGGLE	F	I/E AutoRange
IERANGE	IQUANT	9	I/E Range
ACHSELECT	IQUANT	0	Ach Select
ACHRANGE	IQUANT	2	Ach Range
ACHOFFSETENABLE	TOGGLE	F	Ach Offset Enable
ACHOFFSET	QUANT	0	Ach Offset (V)
ACHFILTER	IQUANT	1	Ach Filter
SENSECABLEID	IQUANT	14	Sense Cable ID
PWRCABLEID	IQUANT	14	Power Cable ID
DCCALDATE	LABEL	10/1/2020	DC Calibration Date
ACCALDATE	LABEL	4/2/2018	AC Calibration Date
FRAMEWORKVERSION	QUANT	7.06	Framework Version
INSTRUMENTVERSION	LABEL	4.30	Instrument Version
CURVE	TABLE	98
	Pt	T	Vf	Im	Vu	Sig	Ach	IERange	Over	Temp
	#	s	V vs. Ref.	A	V	V	V	#	bits	deg C
	0	-0.4	-7.01136E-001	-1.24533E-004	0.00000E+000	-7.00083E-001	0.00000E+000	9	...........	1425.95
	1	-0.3	-7.01060E-001	-1.24191E-004	0.00000E+000	-7.00083E-001	0.00000E+000	9	...........	1425.95
	2	-0.2	-7.01083E-001	-1.24083E-004	0.00000E+000	-7.00083E-001	0.00000E+000	9	...........	1425.95
	3	-0.1	-7.01074E-001	-1.23795E-004	0.00000E+000	-7.00083E-001	0.00000E+000	9	...........	1425.95
	4	0	-7.01092E-001	-1.23673E-004	0.00000E+000	-7.00083E-001	0.00000E+000	9	...........	1425.95
	5	0.1	-8.01111E-001	-5.64383E-004	0.00000E+000	-8.00083E-001	0.00000E+000	9	...........	1425.95
	6	0.2	-8.01099E-001	-4.69905E-004	0.00000E+000	-8.00083E-001	0.00000E+000	9	...........	1425.95
	7	0.3	-8.01102E-001	-4.16886E-004	0.00000E+000	-8.00083E-001	0.00000E+000	9	...........	1425.95
	8	0.4	-8.01107E-001	-3.80119E-004	0.00000E+000	-8.00083E-001	0.00000E+000	9	...........	1425.95
	9	0.5	-8.01103E-001	-3.52177E-004	0.00000E+000	-8.00083E-001	0.00000E+000	9	...........	1426.04
	10	0.6	-8.01092E-001	-3.29632E-004	0.00000E+000	-8.00083E-001	0.00000E+000	9	...........	1426.04
	11	0.7	-8.01116E-001	-3.10800E-004	0.00000E+000	-8.00083E-001	0.00000E+000	9	...........	1426.04
	12	0.8	-8.01108E-001	-2.95018E-004	0.00000E+000	-8.00083E-001	0.00000E+000	9	...........	1426.04
	13	0.9	-8.01091E-001	-2.81245E-004	0.00000E+000	-8.00083E-001	0.00000E+000	9	...........	1426.04
	14	1	-8.01094E-001	-2.69258E-004	0.00000E+000	-8.00083E-001	0.00000E+000	9	...........	1426.04
	15	1.1	-8.01107E-001	-2.58851E-004	0.00000E+000	-8.00083E-001	0.00000E+000	9	...........	1426.04
	16	1.2	-8.01111E-001	-2.49528E-004	0.00000E+000	-8.00083E-001	0.00000E+000	9	...........	1426.04
	17	1.3	-8.01099E-001	-2.41380E-004	0.00000E+000	-8.00083E-001	0.00000E+000	9	...........	1426.04
	18	1.4	-8.01103E-001	-2.34014E-004	0.00000E+000	-8.00083E-001	0.00000E+000	9	...........	1426.04
	19	1.5	-8.01106E-001	-2.27413E-004	0.00000E+000	-8.00083E-001	0.00000E+000	9	...........	1425.51
	20	1.6	-8.01108E-001	-2.21419E-004	0.00000E+000	-8.00083E-001	0.00000E+000	9	...........	1425.51
	21	1.7	-8.01094E-001	-2.16034E-004	0.00000E+000	-8.00083E-001	0.00000E+000	9	...........	1425.51
	22	1.8	-8.01109E-001	-2.11198E-004	0.00000E+000	-8.00083E-001	0.00000E+000	9	...........	1425.51
	23	1.9	-8.01112E-001	-2.06787E-004	0.00000E+000	-8.00083E-001	0.00000E+000	9	...........	1425.51
	24	2	-8.01106E-001	-2.02835E-004	0.00000E+000	-8.00083E-001	0.00000E+000	9	...........	1425.51
	25	2.1	-8.01105E-001	-1.99121E-004	0.00000E+000	-8.00083E-001	0.00000E+000	9	...........	1425.51
	26	2.2	-8.01113E-001	-1.95788E-004	0.00000E+000	-8.00083E-001	0.00000E+000	9	...........	1425.51
	27	2.3	-8.01114E-001	-1.92632E-004	0.00000E+000	-8.00083E-001	0.00000E+000	9	...........	1425.51
	28	2.4	-8.01123E-001	-1.89771E-004	0.00000E+000	-8.00083E-001	0.00000E+000	9	...........	1425.51
	29	2.5	-8.01108E-001	-1.87088E-004	0.00000E+000	-8.00083E-001	0.00000E+000	9	...........	1425.87
	30	2.6	-8.01099E-001	-1.84710E-004	0.00000E+000	-8.00083E-001	0.00000E+000	9	...........	1425.87
	31	2.7	-8.01102E-001	-1.82451E-004	0.00000E+000	-8.00083E-001	0.00000E+000	9	...........	1425.87
	32	2.8	-8.01107E-001	-1.80268E-004	0.00000E+000	-8.00083E-001	0.00000E+000	9	...........	1425.87
	33	2.9	-8.01110E-001	-1.78333E-004	0.00000E+000	-8.00083E-001	0.00000E+000	9	...........	1425.87
	34	3	-8.01104E-001	-1.76490E-004	0.00000E+000	-8.00083E-001	0.00000E+000	9	...........	1425.87
	35	3.1	-8.01112E-001	-1.74837E-004	0.00000E+000	-8.00083E-001	0.00000E+000	9	...........	1425.87
	36	3.2	-8.01110E-001	-1.73181E-004	0.00000E+000	-8.00083E-001	0.00000E+000	9	...........	1425.87
	37	3.3	-8.01106E-001	-1.71721E-004	0.00000E+000	-8.00083E-001	0.00000E+000	9	...........	1425.87
	38	3.4	-8.01108E-001	-1.70357E-004	0.00000E+000	-8.00083E-001	0.00000E+000	9	...........	1425.87
	39	3.5	-8.01104E-001	-1.68990E-004	0.00000E+000	-8.00083E-001	0.00000E+000	9	...........	1425.60
	40	3.6	-8.01103E-001	-1.67731E-004	0.00000E+000	-8.00083E-001	0.00000E+000	9	...........	1425.60
	41	3.7	-8.01115E-001	-1.66659E-004	0.00000E+000	-8.00083E-001	0.00000E+000	9	...........	1425.60
	42	3.8	-8.01116E-001	-1.65517E-004	0.00000E+000	-8.00083E-001	0.00000E+000	9	...........	1425.60
	43	3.9	-8.01114E-001	-1.64485E-004	0.00000E+000	-8.00083E-001	0.00000E+000	9	...........	1425.60
	44	4	-8.01116E-001	-1.63489E-004	0.00000E+000	-8.00083E-001	0.00000E+000	9	...........	1425.60
	45	4.1	-8.01118E-001	-1.62619E-004	0.00000E+000	-8.00083E-001	0.00000E+000	9	...........	1425.60
	46	4.2	-8.01109E-001	-1.61758E-004	0.00000E+000	-8.00083E-001	0.00000E+000	9	...........	1425.60
	47	4.3	-8.01102E-001	-1.60910E-004	0.00000E+000	-8.00083E-001	0.00000E+000	9	...........	1425.60
	48	4.4	-8.01108E-001	-1.60069E-004	0.00000E+000	-8.00083E-001	0.00000E+000	9	...........	1425.60
	49	4.5	-8.01117E-001	-1.59319E-004	0.00000E+000	-8.00083E-001	0.00000E+000	9	...........	1425.87
	50	4.6	-8.01118E-001	-1.58579E-004	0.00000E+000	-8.00083E-001	0.00000E+000	9	...........	1425.87
	51	4.7	-8.01114E-001	-1.57960E-004	0.00000E+000	-8.00083E-001	0.00000E+000	9	...........	1425.87
	52	4.8	-8.01111E-001	-1.57304E-004	0.00000E+000	-8.00083E-001	0.00000E+000	9	...........	1425.87
	53	4.9	-8.01119E-001	-1.56704E-004	0.00000E+000	-8.00083E-001	0.00000E+000	9	...........	1425.87
	54	5	-8.01119E-001	-1.56172E-004	0.00000E+000	-8.00083E-001	0.00000E+000	9	...........	1425.87
	55	5.1	-8.01113E-001	-1.55580E-004	0.00000E+000	-8.00083E-001	0.00000E+000	9	...........	1425.87
	56	5.2	-8.01113E-001	-1.55078E-004	0.00000E+000	-8.00083E-001	0.00000E+000	9	...........	1425.87
	57	5.3	-8.01109E-001	-1.54587E-004	0.00000E+000	-8.00083E-001	0.00000E+000	9	...........	1425.87
	58	5.4	-8.01102E-001	-1.53999E-004	0.00000E+000	-8.00083E-001	0.00000E+000	9	...........	1425.87
	59	5.5	-8.01111E-001	-1.53548E-004	0.00000E+000	-8.00083E-001	0.00000E+000	9	...........	1425.95
	60	5.6	-8.01111E-001	-1.53175E-004	0.00000E+000	-8.00083E-001	0.00000E+000	9	...........	1425.95
	61	5.7	-8.01101E-001	-1.52670E-004	0.00000E+000	-8.00083E-001	0.00000E+000	9	...........	1425.95
	62	5.8	-8.01110E-001	-1.52275E-004	0.00000E+000	-8.00083E-001	0.00000E+000	9	...........	1425.95
	63	5.9	-8.01110E-001	-1.51863E-004	0.00000E+000	-8.00083E-001	0.00000E+000	9	...........	1425.95
	64	6	-8.01107E-001	-1.51540E-004	0.00000E+000	-8.00083E-001	0.00000E+000	9	...........	1425.95
	65	6.1	-8.01114E-001	-1.51145E-004	0.00000E+000	-8.00083E-001	0.00000E+000	9	...........	1425.95
	66	7.1	-8.01113E-001	-1.48123E-004	0.00000E+000	-8.00083E-001	0.00000E+000	9	...........	1425.95
	67	8.1	-8.01108E-001	-1.45920E-004	0.00000E+000	-8.00083E-001	0.00000E+000	9	...........	1425.95
	68	9.1	-8.01114E-001	-1.44283E-004	0.00000E+000	-8.00083E-001	0.00000E+000	9	...........	1425.95
	69	10.1	-8.01113E-001	-1.42940E-004	0.00000E+000	-8.00083E-001	0.00000E+000	9	...........	1425.95
	70	11.1	-8.01105E-001	-1.41952E-004	0.00000E+000	-8.00083E-001	0.00000E+000	9	...........	1426.04
	71	12.1	-8.01111E-001	-1.41123E-004	0.00000E+000	-8.00083E-001	0.00000E+000	9	...........	1425.95
	72	13.1	-8.01110E-001	-1.40344E-004	0.00000E+000	-8.00083E-001	0.00000E+000	9	...........	1426.04
	73	14.1	-8.01106E-001	-1.39745E-004	0.00000E+000	-8.00083E-001	0.00000E+000	9	...........	1426.04
	74	15.1	-8.01115E-001	-1.39238E-004	0.00000E+000	-8.00083E-001	0.00000E+000	9	...........	1425.95
	75	16.1	-8.01104E-001	-1.38735E-004	0.00000E+000	-8.00083E-001	0.00000E+000	9	...........	1425.95
	76	26.1	-8.01115E-001	-1.36205E-004	0.00000E+000	-8.00083E-001	0.00000E+000	9	...........	1426.04
	77	36.1	-8.01120E-001	-1.34957E-004	0.00000E+000	-8.00083E-001	0.00000E+000	9	...........	1426.04
	78	46.1	-8.01097E-001	-1.33961E-004	0.00000E+000	-8.00083E-001	0.00000E+000	9	...........	1426.04
	79	56.1	-8.01114E-001	-1.33412E-004	0.00000E+000	-8.00083E-001	0.00000E+000	9	...........	1426.04
	80	66.1	-8.01111E-001	-1.33381E-004	0.00000E+000	-8.00083E-001	0.00000E+000	9	...........	1426.04
	81	76.1	-8.01114E-001	-1.33210E-004	0.00000E+000	-8.00083E-001	0.00000E+000	9	...........	1426.04
	82	86.1	-8.01125E-001	-1.32865E-004	0.00000E+000	-8.00083E-001	0.00000E+000	9	...........	1426.04
	83	96.1	-8.01111E-001	-1.32424E-004	0.00000E+000	-8.00083E-001	0.00000E+000	9	...........	1426.04
	84	106.1	-8.01108E-001	-1.32688E-004	0.00000E+000	-8.00083E-001	0.00000E+000	9	...........	1425.95
	85	116.1	-8.01110E-001	-1.32738E-004	0.00000E+000	-8.00083E-001	0.00000E+000	9	...........	1426.04
	86	216.1	-8.01114E-001	-1.31797E-004	0.00000E+000	-8.00083E-001	0.00000E+000	9	...........	1426.04
	87	300	-8.01106E-001	-1.31146E-004	0.00000E+000	-8.00083E-001	0.00000E+000	9	...........	1426.04
	88	300.1	-7.01101E-001	2.47086E-004	0.00000E+000	-7.00083E-001	0.00000E+000	9	...........	1426.04
	89	300.2	-7.01092E-001	1.20159E-004	0.00000E+000	-7.00083E-001	0.00000E+000	9	...........	1426.04
	90	300.3	-7.01096E-001	4.92487E-005	0.00000E+000	-7.00083E-001	0.00000E+000	9	...........	1426.04
	91	300.4	-7.01079E-001	6.43377E-006	0.00000E+000	-7.00083E-001	0.00000E+000	9	...........	1426.04
	92	300.5	-7.01089E-001	-2.09405E-005	0.00000E+000	-7.00083E-001	0.00000E+000	9	...........	1426.04
	93	300.6	-7.01098E-001	-3.92504E-005	0.00000E+000	-7.00083E-001	0.00000E+000	9	...........	1426.04
	94	300.7	-7.01090E-001	-5.20118E-005	0.00000E+000	-7.00083E-001	0.00000E+000	9	...........	1426.04
	95	300.8	-7.01083E-001	-6.11641E-005	0.00000E+000	-7.00083E-001	0.00000E+000	9	...........	1426.04
	96	300.9	-7.01089E-001	-6.79546E-005	0.00000E+000	-7.00083E-001	0.00000E+000	9	...........	1426.04
	97	301	-7.01097E-001	-7.32476E-005	0.00000E+000	-7.00083E-001	0.00000E+000	9	...........	1426.04
