EXPLAIN
TAG	CHRONOA
TITLE	LABEL	Chronoamperometry Scan	Test Identifier
DATE	LABEL	21/12/2021	Date
TIME	LABEL	13:27:34	Time
NOTES	NOTES	1	Notes...
	
PSTAT	PSTAT	IFC1010-21051	Potentiostat
VPRESTEP	POTEN	-7.00000E-001	F	Pre-step Voltage (V)
TPRESTEP	QUANT	5.00000E-001	Pre-step Delay Time (s)
VSTEP1	POTEN	-8.00000E-001	F	Step 1 Voltage (V)
TSTEP1	QUANT	3.00000E+002	Step 1 Time (s)
VSTEP2	POTEN	-7.00000E-001	F	Step 2 Voltage (V)
TSTEP2	QUANT	1.00000E+000	Step 2 Time (s)
SAMPLETIME	QUANT	1.00000E-001	Sample Period (s)
DECIMATE	TOGGLE	T	Decimate
ILIMIT	QUANT	1.00000E+000	Limit I (mA/cm^2)
IMODE	SELECTOR	1	I/E Range Mode
IRANGE	QUANT	3.00000E-001	Max Current (mA)
EQDELAY	QUANT	5.00000E+000	Equil. Time (s)
SAMPLINGMODE	SELECTOR	1	Sampling Mode
AREA	QUANT	1.00000E+000	Sample Area (cm^2)
IRCOMP	SELECTOR	0	IRComp
PFCOR	QUANT	5.00000E+001	PF Corr. (ohm)
SEQUENCER	TOGGLE	TRUE	Run as Sequence
PSTATMODEL	IQUANT	64	Pstat Model
PSTATSECTION	LABEL	IFC1010-21051	Pstat Section
PSTATSERIALNO	LABEL	21051	Pstat Serial Number
CTRLMODE	IQUANT	1	Control Mode
ELECTROMETER	IQUANT	0	RE=0 or CS=1
IESTAB	IQUANT	0	I/E Stability
CASPEED	IQUANT	4	Control Amp Speed
CONVENTION	IQUANT	1	Current Convention
ICHRANGE	IQUANT	2	Ich Range
ICHRANGEMODE	TOGGLE	T	Ich Auto Range
ICHOFFSETENABLE	TOGGLE	F	Ich Offset Enable
ICHOFFSET	QUANT	0	Ich Offset (V)
ICHFILTER	IQUANT	3	Ich Filter
VCHRANGE	IQUANT	3	Vch Range
VCHRANGEMODE	TOGGLE	T	Vch Auto Range
VCHOFFSETENABLE	TOGGLE	F	Vch Offset Enable
VCHOFFSET	QUANT	0	Vch Offset (V)
VCHFILTER	IQUANT	3	Vch Filter
IERANGELOWERLIMIT	IQUANT	4	I/E Range Lower Limit
IERANGEMODE	TOGGLE	F	I/E AutoRange
IERANGE	IQUANT	9	I/E Range
ACHSELECT	IQUANT	0	Ach Select
ACHRANGE	IQUANT	2	Ach Range
ACHOFFSETENABLE	TOGGLE	F	Ach Offset Enable
ACHOFFSET	QUANT	0	Ach Offset (V)
ACHFILTER	IQUANT	1	Ach Filter
SENSECABLEID	IQUANT	14	Sense Cable ID
PWRCABLEID	IQUANT	14	Power Cable ID
DCCALDATE	LABEL	10/1/2020	DC Calibration Date
ACCALDATE	LABEL	4/2/2018	AC Calibration Date
FRAMEWORKVERSION	QUANT	7.06	Framework Version
INSTRUMENTVERSION	LABEL	4.30	Instrument Version
CURVE	TABLE	98
	Pt	T	Vf	Im	Vu	Sig	Ach	IERange	Over	Temp
	#	s	V vs. Ref.	A	V	V	V	#	bits	deg C
	0	-0.4	-7.01173E-001	-1.23539E-004	0.00000E+000	-7.00083E-001	0.00000E+000	9	...........	1426.13
	1	-0.3	-7.01100E-001	-1.23283E-004	0.00000E+000	-7.00083E-001	0.00000E+000	9	...........	1426.13
	2	-0.2	-7.01098E-001	-1.23095E-004	0.00000E+000	-7.00083E-001	0.00000E+000	9	...........	1426.13
	3	-0.1	-7.01093E-001	-1.22838E-004	0.00000E+000	-7.00083E-001	0.00000E+000	9	...........	1426.13
	4	0	-7.01093E-001	-1.22743E-004	0.00000E+000	-7.00083E-001	0.00000E+000	9	...........	1426.13
	5	0.1	-8.01110E-001	-5.66234E-004	0.00000E+000	-8.00083E-001	0.00000E+000	9	...........	1426.13
	6	0.2	-8.01107E-001	-4.68094E-004	0.00000E+000	-8.00083E-001	0.00000E+000	9	...........	1426.13
	7	0.3	-8.01110E-001	-4.13508E-004	0.00000E+000	-8.00083E-001	0.00000E+000	9	...........	1426.13
	8	0.4	-8.01100E-001	-3.75767E-004	0.00000E+000	-8.00083E-001	0.00000E+000	9	...........	1426.13
	9	0.5	-8.01107E-001	-3.47156E-004	0.00000E+000	-8.00083E-001	0.00000E+000	9	...........	1426.13
	10	0.6	-8.01121E-001	-3.24327E-004	0.00000E+000	-8.00083E-001	0.00000E+000	9	...........	1426.13
	11	0.7	-8.01108E-001	-3.05367E-004	0.00000E+000	-8.00083E-001	0.00000E+000	9	...........	1426.13
	12	0.8	-8.01125E-001	-2.89496E-004	0.00000E+000	-8.00083E-001	0.00000E+000	9	...........	1426.13
	13	0.9	-8.01111E-001	-2.75997E-004	0.00000E+000	-8.00083E-001	0.00000E+000	9	...........	1426.13
	14	1	-8.01112E-001	-2.64267E-004	0.00000E+000	-8.00083E-001	0.00000E+000	9	...........	1426.13
	15	1.1	-8.01114E-001	-2.54041E-004	0.00000E+000	-8.00083E-001	0.00000E+000	9	...........	1426.13
	16	1.2	-8.01113E-001	-2.44917E-004	0.00000E+000	-8.00083E-001	0.00000E+000	9	...........	1426.04
	17	1.3	-8.01111E-001	-2.37000E-004	0.00000E+000	-8.00083E-001	0.00000E+000	9	...........	1426.04
	18	1.4	-8.01110E-001	-2.29934E-004	0.00000E+000	-8.00083E-001	0.00000E+000	9	...........	1426.04
	19	1.5	-8.01117E-001	-2.23622E-004	0.00000E+000	-8.00083E-001	0.00000E+000	9	...........	1426.04
	20	1.6	-8.01105E-001	-2.17864E-004	0.00000E+000	-8.00083E-001	0.00000E+000	9	...........	1426.04
	21	1.7	-8.01112E-001	-2.12715E-004	0.00000E+000	-8.00083E-001	0.00000E+000	9	...........	1426.04
	22	1.8	-8.01115E-001	-2.08106E-004	0.00000E+000	-8.00083E-001	0.00000E+000	9	...........	1426.04
	23	1.9	-8.01113E-001	-2.03927E-004	0.00000E+000	-8.00083E-001	0.00000E+000	9	...........	1426.04
	24	2	-8.01101E-001	-2.00042E-004	0.00000E+000	-8.00083E-001	0.00000E+000	9	...........	1426.04
	25	2.1	-8.01107E-001	-1.96566E-004	0.00000E+000	-8.00083E-001	0.00000E+000	9	...........	1426.04
	26	2.2	-8.01096E-001	-1.93339E-004	0.00000E+000	-8.00083E-001	0.00000E+000	9	...........	1425.60
	27	2.3	-8.01118E-001	-1.90372E-004	0.00000E+000	-8.00083E-001	0.00000E+000	9	...........	1425.60
	28	2.4	-8.01101E-001	-1.87657E-004	0.00000E+000	-8.00083E-001	0.00000E+000	9	...........	1425.60
	29	2.5	-8.01101E-001	-1.85165E-004	0.00000E+000	-8.00083E-001	0.00000E+000	9	...........	1425.60
	30	2.6	-8.01109E-001	-1.82892E-004	0.00000E+000	-8.00083E-001	0.00000E+000	9	...........	1425.60
	31	2.7	-8.01113E-001	-1.80694E-004	0.00000E+000	-8.00083E-001	0.00000E+000	9	...........	1425.60
	32	2.8	-8.01113E-001	-1.78757E-004	0.00000E+000	-8.00083E-001	0.00000E+000	9	...........	1425.60
	33	2.9	-8.01106E-001	-1.76886E-004	0.00000E+000	-8.00083E-001	0.00000E+000	9	...........	1425.60
	34	3	-8.01118E-001	-1.75194E-004	0.00000E+000	-8.00083E-001	0.00000E+000	9	...........	1425.60
	35	3.1	-8.01129E-001	-1.73555E-004	0.00000E+000	-8.00083E-001	0.00000E+000	9	...........	1425.60
	36	3.2	-8.01121E-001	-1.72043E-004	0.00000E+000	-8.00083E-001	0.00000E+000	9	...........	1425.60
	37	3.3	-8.01113E-001	-1.70625E-004	0.00000E+000	-8.00083E-001	0.00000E+000	9	...........	1425.60
	38	3.4	-8.01097E-001	-1.69231E-004	0.00000E+000	-8.00083E-001	0.00000E+000	9	...........	1425.60
	39	3.5	-8.01112E-001	-1.68130E-004	0.00000E+000	-8.00083E-001	0.00000E+000	9	...........	1425.60
	40	3.6	-8.01115E-001	-1.66952E-004	0.00000E+000	-8.00083E-001	0.00000E+000	9	...........	1425.60
	41	3.7	-8.01114E-001	-1.65827E-004	0.00000E+000	-8.00083E-001	0.00000E+000	9	...........	1425.60
	42	3.8	-8.01119E-001	-1.64771E-004	0.00000E+000	-8.00083E-001	0.00000E+000	9	...........	1425.60
	43	3.9	-8.01115E-001	-1.63828E-004	0.00000E+000	-8.00083E-001	0.00000E+000	9	...........	1425.60
	44	4	-8.01118E-001	-1.62874E-004	0.00000E+000	-8.00083E-001	0.00000E+000	9	...........	1425.60
	45	4.1	-8.01109E-001	-1.62049E-004	0.00000E+000	-8.00083E-001	0.00000E+000	9	...........	1425.60
	46	4.2	-8.01106E-001	-1.61153E-004	0.00000E+000	-8.00083E-001	0.00000E+000	9	...........	1425.60
	47	4.3	-8.01113E-001	-1.60448E-004	0.00000E+000	-8.00083E-001	0.00000E+000	9	...........	1425.60
	48	4.4	-8.01122E-001	-1.59582E-004	0.00000E+000	-8.00083E-001	0.00000E+000	9	...........	1425.60
	49	4.5	-8.01119E-001	-1.58986E-004	0.00000E+000	-8.00083E-001	0.00000E+000	9	...........	1425.60
	50	4.6	-8.01109E-001	-1.58255E-004	0.00000E+000	-8.00083E-001	0.00000E+000	9	...........	1425.60
	51	4.7	-8.01101E-001	-1.57580E-004	0.00000E+000	-8.00083E-001	0.00000E+000	9	...........	1425.60
	52	4.8	-8.01114E-001	-1.57048E-004	0.00000E+000	-8.00083E-001	0.00000E+000	9	...........	1425.60
	53	4.9	-8.01117E-001	-1.56428E-004	0.00000E+000	-8.00083E-001	0.00000E+000	9	...........	1425.60
	54	5	-8.01101E-001	-1.55844E-004	0.00000E+000	-8.00083E-001	0.00000E+000	9	...........	1425.60
	55	5.1	-8.01115E-001	-1.55373E-004	0.00000E+000	-8.00083E-001	0.00000E+000	9	...........	1425.60
	56	5.2	-8.01113E-001	-1.54785E-004	0.00000E+000	-8.00083E-001	0.00000E+000	9	...........	1425.69
	57	5.3	-8.01123E-001	-1.54350E-004	0.00000E+000	-8.00083E-001	0.00000E+000	9	...........	1425.69
	58	5.4	-8.01118E-001	-1.53913E-004	0.00000E+000	-8.00083E-001	0.00000E+000	9	...........	1425.69
	59	5.5	-8.01105E-001	-1.53377E-004	0.00000E+000	-8.00083E-001	0.00000E+000	9	...........	1425.69
	60	5.6	-8.01119E-001	-1.53011E-004	0.00000E+000	-8.00083E-001	0.00000E+000	9	...........	1425.69
	61	5.7	-8.01110E-001	-1.52565E-004	0.00000E+000	-8.00083E-001	0.00000E+000	9	...........	1425.69
	62	5.8	-8.01102E-001	-1.52152E-004	0.00000E+000	-8.00083E-001	0.00000E+000	9	...........	1425.69
	63	5.9	-8.01111E-001	-1.51794E-004	0.00000E+000	-8.00083E-001	0.00000E+000	9	...........	1425.69
	64	6	-8.01116E-001	-1.51432E-004	0.00000E+000	-8.00083E-001	0.00000E+000	9	...........	1425.69
	65	6.1	-8.01121E-001	-1.51050E-004	0.00000E+000	-8.00083E-001	0.00000E+000	9	...........	1425.69
	66	7.1	-8.01105E-001	-1.48050E-004	0.00000E+000	-8.00083E-001	0.00000E+000	9	...........	1426.04
	67	8.1	-8.01114E-001	-1.45929E-004	0.00000E+000	-8.00083E-001	0.00000E+000	9	...........	1426.04
	68	9.1	-8.01119E-001	-1.44294E-004	0.00000E+000	-8.00083E-001	0.00000E+000	9	...........	1426.04
	69	10.1	-8.01110E-001	-1.42987E-004	0.00000E+000	-8.00083E-001	0.00000E+000	9	...........	1425.69
	70	11.1	-8.01115E-001	-1.41978E-004	0.00000E+000	-8.00083E-001	0.00000E+000	9	...........	1425.69
	71	12.1	-8.01116E-001	-1.41121E-004	0.00000E+000	-8.00083E-001	0.00000E+000	9	...........	1425.69
	72	13.1	-8.01111E-001	-1.40323E-004	0.00000E+000	-8.00083E-001	0.00000E+000	9	...........	1425.95
	73	14.1	-8.01116E-001	-1.39741E-004	0.00000E+000	-8.00083E-001	0.00000E+000	9	...........	1425.69
	74	15.1	-8.01112E-001	-1.39178E-004	0.00000E+000	-8.00083E-001	0.00000E+000	9	...........	1426.04
	75	16.1	-8.01114E-001	-1.38759E-004	0.00000E+000	-8.00083E-001	0.00000E+000	9	...........	1425.69
	76	26.1	-8.01115E-001	-1.35981E-004	0.00000E+000	-8.00083E-001	0.00000E+000	9	...........	1426.13
	77	36.1	-8.01111E-001	-1.34897E-004	0.00000E+000	-8.00083E-001	0.00000E+000	9	...........	1426.13
	78	46.1	-8.01108E-001	-1.34256E-004	0.00000E+000	-8.00083E-001	0.00000E+000	9	...........	1426.13
	79	56.1	-8.01110E-001	-1.33597E-004	0.00000E+000	-8.00083E-001	0.00000E+000	9	...........	1426.13
	80	66.1	-8.01121E-001	-1.32733E-004	0.00000E+000	-8.00083E-001	0.00000E+000	9	...........	1426.13
	81	76.1	-8.01105E-001	-1.32463E-004	0.00000E+000	-8.00083E-001	0.00000E+000	9	...........	1426.13
	82	86.1	-8.01123E-001	-1.32198E-004	0.00000E+000	-8.00083E-001	0.00000E+000	9	...........	1426.13
	83	96.1	-8.01115E-001	-1.32225E-004	0.00000E+000	-8.00083E-001	0.00000E+000	9	...........	1426.13
	84	106.1	-8.01116E-001	-1.31841E-004	0.00000E+000	-8.00083E-001	0.00000E+000	9	...........	1426.13
	85	116.1	-8.01108E-001	-1.31395E-004	0.00000E+000	-8.00083E-001	0.00000E+000	9	...........	1426.13
	86	216.1	-8.01104E-001	-1.33053E-004	0.00000E+000	-8.00083E-001	0.00000E+000	9	...........	1426.13
	87	300	-8.01116E-001	-1.32866E-004	0.00000E+000	-8.00083E-001	0.00000E+000	9	...........	1426.04
	88	300.1	-7.01100E-001	2.46946E-004	0.00000E+000	-7.00083E-001	0.00000E+000	9	...........	1426.04
	89	300.2	-7.01093E-001	1.18935E-004	0.00000E+000	-7.00083E-001	0.00000E+000	9	...........	1426.13
	90	300.3	-7.01092E-001	4.83068E-005	0.00000E+000	-7.00083E-001	0.00000E+000	9	...........	1426.13
	91	300.4	-7.01100E-001	5.82064E-006	0.00000E+000	-7.00083E-001	0.00000E+000	9	...........	1426.13
	92	300.5	-7.01091E-001	-2.13814E-005	0.00000E+000	-7.00083E-001	0.00000E+000	9	...........	1426.13
	93	300.6	-7.01095E-001	-3.95327E-005	0.00000E+000	-7.00083E-001	0.00000E+000	9	...........	1426.13
	94	300.7	-7.01090E-001	-5.22066E-005	0.00000E+000	-7.00083E-001	0.00000E+000	9	...........	1426.13
	95	300.8	-7.01087E-001	-6.13235E-005	0.00000E+000	-7.00083E-001	0.00000E+000	9	...........	1426.13
	96	300.9	-7.01080E-001	-6.80815E-005	0.00000E+000	-7.00083E-001	0.00000E+000	9	...........	1426.13
	97	301	-7.01088E-001	-7.33396E-005	0.00000E+000	-7.00083E-001	0.00000E+000	9	...........	1426.13
