Data from AgNPs_FTO_APTES_UA_0uM_R6G_10uM_NaF_0.1M_Addition_RamanShift__20__10-18-27-099.txt Node

Date: Fri Dec 17 10:18:27 GMT 2021
User: TCL
Spectrometer: QEP01345
Trigger mode: 4
Integration Time (sec): 7.000000E0
Scans to average: 10
Electric dark correction enabled: true
Nonlinearity correction enabled: false
Boxcar width: 0
XAxis mode: Raman Shifts
Number of Pixels in Spectrum: 1044
>>>>>Begin Spectral Data<<<<<
46.04893	-0.2375
50.45542	0.1625
54.85868	-1.2375
59.25871	1.8625
63.6555	34.5625
68.04907	32.3625
72.43941	36.6625
76.82654	38.3625
81.21044	37.8625
85.59113	43.1625
89.96862	42.1625
94.34289	47.9625
98.71396	48.4625
103.08183	47.8625
107.4465	50.8625
111.80798	46.2625
116.16626	50.4625
120.52136	46.7625
124.87327	50.6625
129.222	49.1625
133.56755	51.8625
137.90993	53.1625
142.24913	53.8625
146.58517	57.1625
150.91804	62.8625
155.24774	67.6625
159.57429	80.9625
163.89768	93.3625
168.21792	115.2625
172.53501	145.7625
176.84895	193.3625
181.15975	254.7625
185.46741	352.9625
189.77193	472.6625
194.07331	623.8625
198.37157	796.0625
202.6667	984.2625
206.9587	1159.4625
211.24758	1327.3625
215.53334	1510.7625
219.81599	1689.0625
224.09553	1888.0625
228.37195	2119.9625
232.64527	2382.8625
236.91549	2645.1625
241.18261	2889.8625
245.44663	3103.5625
249.70755	3305.0625
253.96539	3468.5625
258.22014	3593.9625
262.4718	3698.9625
266.72039	3737.7625
270.96589	3765.1625
275.20832	3758.2625
279.44768	3707.4625
283.68397	3623.5625
287.91719	3570.8625
292.14735	3519.3625
296.37445	3550.2625
300.59849	3601.4625
304.81948	3718.5625
309.03742	3766.7625
313.25231	3767.1625
317.46415	3657.3625
321.67296	3459.5625
325.87872	3320.1625
330.08145	3232.4625
334.28114	3232.3625
338.47781	3268.2625
342.67145	3326.6625
346.86207	3421.6625
351.04966	3576.8625
355.23424	3753.8625
359.4158	3891.9625
363.59435	3992.0625
367.76989	4054.6625
371.94243	4072.5625
376.11196	4080.7625
380.27849	4064.6625
384.44203	4063.8625
388.60257	4007.0625
392.76012	3995.7625
396.91468	4006.5625
401.06626	4055.5625
405.21485	4120.7625
409.36047	4075.2625
413.50311	3936.3625
417.64277	3806.5625
421.77947	3720.0625
425.9132	3705.5625
430.04396	3700.0625
434.17176	3757.1625
438.2966	3811.0625
442.41849	3935.2625
446.53742	4045.8625
450.6534	4184.8625
454.76644	4241.5625
458.87653	4227.8625
462.98368	4171.4625
467.08789	4081.9625
471.18916	4001.7625
475.2875	3928.5625
479.38291	3847.6625
483.4754	3799.2625
487.56496	3740.3625
491.6516	3732.4625
495.73531	3712.7625
499.81612	3704.1625
503.89401	3730.8625
507.96899	3773.1625
512.04106	3836.1625
516.11023	3900.1625
520.1765	3944.5625
524.23987	3955.5625
528.30034	3908.1625
532.35792	3866.1625
536.41261	3791.2625
540.46441	3718.2625
544.51333	3683.4625
548.55936	3677.0625
552.60252	3747.6625
556.64279	3808.3625
560.6802	3836.2625
564.71473	3846.3625
568.7464	3926.3625
572.7752	3983.7625
576.80114	3874.2625
580.82422	3773.5625
584.84444	3755.1625
588.86181	3822.9625
592.87633	3958.1625
596.888	4054.2625
600.89682	4106.0625
604.9028	4348.5625
608.90594	5091.2625
612.90624	6147.1625
616.90371	6072.3625
620.89834	4652.5625
624.89015	3904.3625
628.87913	3729.0625
632.86528	3711.3625
636.84862	3714.0625
640.82913	3683.1625
644.80683	3595.9625
648.78172	3545.9625
652.75379	3573.7625
656.72306	3672.7625
660.68952	3823.6625
664.65319	3783.7625
668.61405	3635.5625
672.57211	3565.5625
676.52738	3537.0625
680.47986	3553.8625
684.42955	3547.9625
688.37646	3530.6625
692.32058	3572.5625
696.26192	3591.2625
700.20048	3644.3625
704.13626	3684.8625
708.06928	3696.4625
711.99952	3651.2625
715.927	3621.6625
719.85171	3615.7625
723.77365	3623.8625
727.69284	3608.9625
731.60928	3578.4625
735.52295	3587.2625
739.43388	3613.2625
743.34206	3623.5625
747.24749	3641.6625
751.15017	3651.4625
755.05012	3694.0625
758.94733	3783.8625
762.8418	4019.8625
766.73354	4455.9625
770.62254	5006.3625
774.50882	5373.7625
778.39237	5231.5625
782.27321	4687.6625
786.15132	4153.0625
790.02671	3825.2625
793.89938	3685.1625
797.76935	3618.7625
801.6366	3589.6625
805.50115	3566.6625
809.36299	3533.9625
813.22213	3534.6625
817.07857	3532.3625
820.93231	3522.9625
824.78336	3535.8625
828.63172	3543.7625
832.47738	3566.2625
836.32036	3572.2625
840.16066	3570.6625
843.99827	3557.0625
847.8332	3539.8625
851.66546	3546.8625
855.49504	3552.2625
859.32195	3547.2625
863.1462	3510.6625
866.96777	3502.5625
870.78668	3484.1625
874.60293	3483.2625
878.41652	3497.2625
882.22745	3513.4625
886.03573	3529.9625
889.84136	3548.8625
893.64433	3528.2625
897.44466	3517.8625
901.24235	3529.0625
905.0374	3530.3625
908.8298	3549.2625
912.61957	3559.6625
916.40671	3570.6625
920.19121	3626.4625
923.97308	3649.0625
927.75233	3675.5625
931.52895	3707.5625
935.30295	3685.6625
939.07433	3600.9625
942.84309	3530.4625
946.60924	3475.1625
950.37278	3437.5625
954.13371	3412.2625
957.89203	3384.4625
961.64774	3372.7625
965.40086	3368.3625
969.15137	3351.7625
972.89929	3336.4625
976.64461	3332.5625
980.38733	3335.7625
984.12747	3341.6625
987.86502	3346.5625
991.59999	3359.5625
995.33237	3407.7625
999.06217	3445.8625
1002.78939	3494.3625
1006.51404	3522.8625
1010.23611	3552.0625
1013.95561	3577.1625
1017.67255	3581.0625
1021.38692	3523.4625
1025.09872	3476.2625
1028.80796	3445.3625
1032.51465	3469.1625
1036.21877	3515.6625
1039.92035	3595.2625
1043.61937	3632.3625
1047.31584	3616.4625
1051.00976	3593.6625
1054.70114	3570.2625
1058.38998	3517.0625
1062.07627	3511.3625
1065.76003	3490.3625
1069.44126	3488.3625
1073.11995	3498.1625
1076.79611	3543.0625
1080.46974	3594.7625
1084.14085	3640.5625
1087.80943	3694.5625
1091.47549	3709.1625
1095.13903	3658.2625
1098.80005	3535.7625
1102.45857	3448.8625
1106.11456	3429.6625
1109.76805	3426.6625
1113.41903	3502.9625
1117.06751	3572.0625
1120.71348	3697.5625
1124.35696	3777.9625
1127.99793	3890.2625
1131.63641	3887.2625
1135.2724	3735.9625
1138.90589	3594.2625
1142.5369	3492.4625
1146.16542	3443.2625
1149.79145	3386.2625
1153.415	3386.7625
1157.03607	3409.7625
1160.65467	3460.3625
1164.27079	3551.1625
1167.88443	3707.5625
1171.49561	3959.5625
1175.10432	4371.6625
1178.71056	4928.8625
1182.31434	5383.6625
1185.91565	5570.9625
1189.51451	5447.0625
1193.11091	5162.0625
1196.70485	4815.8625
1200.29634	4491.4625
1203.88538	4245.4625
1207.47197	3973.4625
1211.05612	3786.7625
1214.63782	3697.5625
1218.21708	3680.1625
1221.79391	3704.9625
1225.36829	3718.5625
1228.94024	3707.2625
1232.50976	3662.1625
1236.07685	3633.0625
1239.6415	3637.6625
1243.20374	3646.6625
1246.76355	3654.3625
1250.32093	3691.0625
1253.8759	3737.3625
1257.42845	3837.5625
1260.97859	3935.7625
1264.52631	4057.6625
1268.07163	4148.1625
1271.61453	4245.1625
1275.15503	4297.7625
1278.69312	4318.0625
1282.22882	4355.2625
1285.76211	4428.6625
1289.29301	4576.5625
1292.82151	4746.0625
1296.34761	4917.7625
1299.87133	5124.3625
1303.39266	5446.9625
1306.9116	5892.3625
1310.42815	6457.4625
1313.94233	6845.8625
1317.45412	6719.3625
1320.96354	6282.4625
1324.47058	5723.4625
1327.97525	5272.4625
1331.47754	4998.0625
1334.97747	4896.7625
1338.47502	4941.9625
1341.97022	4974.9625
1345.46305	5095.3625
1348.95352	5380.8625
1352.44163	5822.9625
1355.92738	6504.8625
1359.41078	7377.8625
1362.89183	8245.6625
1366.37053	8226.5625
1369.84688	7250.6625
1373.32088	6063.2625
1376.79254	5256.9625
1380.26186	4841.7625
1383.72883	4623.5625
1387.19347	4471.0625
1390.65578	4291.6625
1394.11575	4144.2625
1397.57339	4044.8625
1401.0287	4017.2625
1404.48168	4051.3625
1407.93234	4063.2625
1411.38068	4076.2625
1414.82669	4064.5625
1418.27039	4029.2625
1421.71177	3967.2625
1425.15083	3941.6625
1428.58758	3943.0625
1432.02203	3974.8625
1435.45416	4045.7625
1438.88399	4096.3625
1442.31151	4068.3625
1445.73673	4060.4625
1449.15965	4046.4625
1452.58027	3995.3625
1455.9986	3933.5625
1459.41463	3872.5625
1462.82837	3895.4625
1466.23982	3929.3625
1469.64898	4020.1625
1473.05586	4085.9625
1476.46045	4117.0625
1479.86276	4174.7625
1483.26279	4218.2625
1486.66054	4256.7625
1490.05602	4307.0625
1493.44922	4393.3625
1496.84016	4561.2625
1500.22882	4882.4625
1503.61521	5347.6625
1506.99934	5919.2625
1510.38121	6530.5625
1513.76081	6816.3625
1517.13816	6579.5625
1520.51324	5891.6625
1523.88607	5155.7625
1527.25665	4666.1625
1530.62498	4415.4625
1533.99105	4286.5625
1537.35488	4206.8625
1540.71647	4149.2625
1544.07581	4114.8625
1547.4329	4064.3625
1550.78776	4043.9625
1554.14038	4007.8625
1557.49077	3972.8625
1560.83892	4016.7625
1564.18484	4075.8625
1567.52853	4191.9625
1570.86999	4341.5625
1574.20922	4461.7625
1577.54624	4482.4625
1580.88103	4313.3625
1584.2136	4079.5625
1587.54395	3907.0625
1590.87208	3951.1625
1594.19801	4119.5625
1597.52172	4436.9625
1600.84321	4650.5625
1604.16251	4568.2625
1607.47959	4286.4625
1610.79447	3944.3625
1614.10715	3634.3625
1617.41763	3413.4625
1620.7259	3276.0625
1624.03199	3205.2625
1627.33587	3213.5625
1630.63757	3234.2625
1633.93707	3339.4625
1637.23439	3553.7625
1640.52951	3838.0625
1643.82246	4274.5625
1647.11321	4759.8625
1650.40179	5081.8625
1653.68819	4979.5625
1656.97241	4389.9625
1660.25446	3731.9625
1663.53433	3270.0625
1666.81203	2998.4625
1670.08756	2843.6625
1673.36092	2751.6625
1676.63211	2678.3625
1679.90115	2640.3625
1683.16801	2604.5625
1686.43272	2573.4625
1689.69527	2552.0625
1692.95567	2522.0625
1696.2139	2523.7625
1699.46999	2504.3625
1702.72392	2486.1625
1705.97571	2478.5625
1709.22535	2460.1625
1712.47284	2472.7625
1715.71819	2463.9625
1718.96139	2465.3625
1722.20246	2461.4625
1725.44139	2457.2625
1728.67818	2441.3625
1731.91284	2412.2625
1735.14537	2396.3625
1738.37576	2368.7625
1741.60403	2359.9625
1744.83017	2331.3625
1748.05418	2321.6625
1751.27607	2318.1625
1754.49584	2305.8625
1757.71349	2301.6625
1760.92903	2295.9625
1764.14244	2291.2625
1767.35375	2289.8625
1770.56294	2286.0625
1773.77002	2270.2625
1776.97499	2257.8625
1780.17785	2254.7625
1783.37861	2260.3625
1786.57727	2253.9625
1789.77382	2246.1625
1792.96828	2238.3625
1796.16064	2241.8625
1799.3509	2234.3625
1802.53907	2230.8625
1805.72514	2211.9625
1808.90913	2207.2625
1812.09102	2200.8625
1815.27083	2190.4625
1818.44856	2177.7625
1821.6242	2180.1625
1824.79776	2169.1625
1827.96924	2152.3625
1831.13864	2166.8625
1834.30597	2152.2625
1837.47122	2159.2625
1840.6344	2145.1625
1843.7955	2155.6625
1846.95454	2134.7625
1850.11151	2142.9625
1853.26642	2142.2625
1856.41926	2141.6625
1859.57004	2136.7625
1862.71876	2132.3625
1865.86542	2119.1625
1869.01003	2135.0625
1872.15258	2130.7625
1875.29308	2130.5625
1878.43152	2119.6625
1881.56792	2121.1625
1884.70227	2114.6625
1887.83457	2116.1625
1890.96482	2117.5625
1894.09304	2115.7625
1897.21921	2095.0625
1900.34335	2101.0625
1903.46544	2099.2625
1906.58551	2103.9625
1909.70353	2093.3625
1912.81953	2095.6625
1915.93349	2102.0625
1919.04543	2081.1625
1922.15534	2075.8625
1925.26322	2072.9625
1928.36908	2064.4625
1931.47292	2072.0625
1934.57473	2054.6625
1937.67453	2049.9625
1940.77232	2036.5625
1943.86808	2024.3625
1946.96184	2028.6625
1950.05358	2023.9625
1953.14331	2016.2625
1956.23103	2003.6625
1959.31675	1995.3625
1962.40046	1990.7625
1965.48217	1982.3625
1968.56188	1971.5625
1971.63959	1970.9625
1974.7153	1969.0625
1977.78901	1956.5625
1980.86073	1955.1625
1983.93046	1940.3625
1986.99819	1937.7625
1990.06394	1943.0625
1993.1277	1921.3625
1996.18947	1913.9625
1999.24925	1919.7625
2002.30706	1900.7625
2005.36288	1889.3625
2008.41672	1895.7625
2011.46859	1881.5625
2014.51848	1880.4625
2017.56639	1868.6625
2020.61233	1853.0625
2023.6563	1860.9625
2026.6983	1854.8625
2029.73833	1851.2625
2032.7764	1849.3625
2035.8125	1839.0625
2038.84664	1836.0625
2041.87881	1828.0625
2044.90903	1832.2625
2047.93729	1821.9625
2050.96359	1822.9625
2053.98794	1823.5625
2057.01034	1806.4625
2060.03078	1813.7625
2063.04927	1808.2625
2066.06582	1804.1625
2069.08042	1818.5625
2072.09307	1809.2625
2075.10378	1797.1625
2078.11255	1804.9625
2081.11938	1813.2625
2084.12426	1801.1625
2087.12722	1802.5625
2090.12824	1799.5625
2093.12732	1797.9625
2096.12447	1806.1625
2099.11969	1798.2625
2102.11299	1798.2625
2105.10435	1799.1625
2108.09379	1791.7625
2111.08131	1795.8625
2114.0669	1790.8625
2117.05057	1793.2625
2120.03233	1794.2625
2123.01216	1788.5625
2125.99008	1788.0625
2128.96609	1791.9625
2131.94018	1799.8625
2134.91236	1787.3625
2137.88263	1788.0625
2140.851	1789.3625
2143.81746	1785.9625
2146.78201	1787.3625
2149.74466	1787.9625
2152.7054	1788.9625
2155.66425	1794.5625
2158.6212	1778.4625
2161.57625	1776.7625
2164.52941	1793.7625
2167.48067	1774.4625
2170.43004	1779.4625
2173.37752	1778.2625
2176.32311	1778.8625
2179.26681	1770.9625
2182.20863	1777.7625
2185.14856	1765.6625
2188.08661	1772.2625
2191.02278	1771.4625
2193.95707	1762.4625
2196.88948	1765.4625
2199.82001	1760.5625
2202.74867	1752.2625
2205.67545	1759.2625
2208.60037	1744.2625
2211.52341	1758.6625
2214.44458	1733.9625
2217.36388	1739.5625
2220.28132	1734.1625
2223.1969	1724.6625
2226.11061	1726.2625
2229.02246	1729.1625
2231.93245	1703.3625
2234.84058	1698.9625
2237.74686	1704.5625
2240.65128	1711.4625
2243.55385	1704.2625
2246.45456	1694.1625
2249.35343	1697.2625
2252.25044	1692.5625
2255.14561	1698.4625
2258.03893	1691.5625
2260.93041	1672.4625
2263.82004	1681.1625
2266.70783	1672.1625
2269.59378	1669.8625
2272.4779	1666.8625
2275.36017	1654.5625
2278.24061	1661.2625
2281.11922	1646.7625
2283.996	1649.4625
2286.87094	1650.7625
2289.74405	1643.5625
2292.61534	1636.4625
2295.4848	1635.3625
2298.35243	1633.2625
2301.21824	1627.6625
2304.08223	1623.7625
2306.94439	1625.3625
2309.80474	1628.8625
2312.66327	1621.6625
2315.51999	1613.0625
2318.37489	1613.8625
2321.22797	1611.8625
2324.07925	1608.2625
2326.92871	1615.6625
2329.77637	1612.7625
2332.62222	1606.9625
2335.46626	1600.5625
2338.3085	1580.0625
2341.14893	1600.2625
2343.98756	1596.8625
2346.8244	1587.5625
2349.65943	1588.2625
2352.49267	1589.6625
2355.32411	1590.8625
2358.15376	1583.3625
2360.98161	1592.1625
2363.80768	1592.3625
2366.63195	1583.8625
2369.45444	1588.2625
2372.27514	1593.7625
2375.09405	1586.0625
2377.91118	1583.8625
2380.72652	1578.9625
2383.54009	1572.5625
2386.35187	1560.9625
2389.16188	1557.9625
2391.97011	1556.0625
2394.77657	1555.5625
2397.58125	1540.3625
2400.38416	1529.8625
2403.18529	1538.5625
2405.98466	1536.1625
2408.78226	1537.6625
2411.57809	1530.4625
2414.37216	1518.2625
2417.16446	1512.3625
2419.955	1508.1625
2422.74378	1518.1625
2425.5308	1520.9625
2428.31606	1513.1625
2431.09956	1506.7625
2433.88131	1513.1625
2436.6613	1521.3625
2439.43954	1503.1625
2442.21603	1512.6625
2444.99077	1504.9625
2447.76377	1502.0625
2450.53501	1505.9625
2453.30451	1500.7625
2456.07226	1500.0625
2458.83827	1491.9625
2461.60254	1496.8625
2464.36507	1500.2625
2467.12586	1498.9625
2469.88492	1484.5625
2472.64224	1495.7625
2475.39782	1490.3625
2478.15167	1478.6625
2480.90379	1493.9625
2483.65417	1487.6625
2486.40283	1491.2625
2489.14976	1497.0625
2491.89497	1498.0625
2494.63845	1495.4625
2497.3802	1489.7625
2500.12024	1483.9625
2502.85855	1492.8625
2505.59514	1484.4625
2508.33002	1480.3625
2511.06318	1475.9625
2513.79462	1463.5625
2516.52435	1467.8625
2519.25237	1458.2625
2521.97867	1453.2625
2524.70327	1456.6625
2527.42616	1440.9625
2530.14734	1433.2625
2532.86681	1445.3625
2535.58458	1444.6625
2538.30065	1436.8625
2541.01501	1440.1625
2543.72768	1433.4625
2546.43864	1437.0625
2549.14791	1438.5625
2551.85548	1440.1625
2554.56136	1431.7625
2557.26554	1425.1625
2559.96803	1431.4625
2562.66883	1429.6625
2565.36794	1425.5625
2568.06536	1430.5625
2570.7611	1420.6625
2573.45514	1416.1625
2576.14751	1426.0625
2578.83819	1415.4625
2581.52719	1412.3625
2584.21451	1415.8625
2586.90015	1413.2625
2589.58411	1416.0625
2592.2664	1408.9625
2594.94701	1404.4625
2597.62594	1403.8625
2600.30321	1398.3625
2602.9788	1399.9625
2605.65273	1392.6625
2608.32498	1388.9625
2610.99557	1391.7625
2613.66449	1386.8625
2616.33175	1390.6625
2618.99734	1380.7625
2621.66128	1389.9625
2624.32355	1391.3625
2626.98416	1378.5625
2629.64311	1388.0625
2632.30041	1380.0625
2634.95605	1388.9625
2637.61004	1379.5625
2640.26238	1376.2625
2642.91306	1370.1625
2645.56209	1377.7625
2648.20948	1363.2625
2650.85521	1371.2625
2653.4993	1380.0625
2656.14175	1377.3625
2658.78255	1385.3625
2661.42171	1382.9625
2664.05923	1382.7625
2666.6951	1380.2625
2669.32934	1389.9625
2671.96194	1391.7625
2674.59291	1388.2625
2677.22224	1392.0625
2679.84993	1395.1625
2682.476	1393.2625
2685.10043	1388.0625
2687.72324	1386.1625
2690.34441	1394.3625
2692.96396	1394.7625
2695.58188	1385.1625
2698.19818	1386.9625
2700.81285	1399.6625
2703.4259	1397.4625
2706.03733	1392.2625
2708.64714	1406.6625
2711.25533	1406.3625
2713.86191	1416.1625
2716.46687	1423.1625
2719.07021	1433.2625
2721.67194	1430.5625
2724.27206	1432.5625
2726.87057	1436.8625
2729.46747	1436.2625
2732.06276	1441.7625
2734.65644	1444.8625
2737.24852	1446.2625
2739.83899	1447.4625
2742.42786	1448.5625
2745.01513	1444.1625
2747.60079	1456.2625
2750.18486	1463.0625
2752.76733	1472.4625
2755.3482	1457.6625
2757.92747	1478.6625
2760.50515	1480.1625
2763.08123	1479.8625
2765.65573	1490.9625
2768.22863	1479.0625
2770.79994	1492.7625
2773.36967	1504.2625
2775.9378	1512.1625
2778.50435	1510.6625
2781.06932	1513.6625
2783.6327	1535.7625
2786.1945	1541.4625
2788.75471	1549.9625
2791.31335	1547.1625
2793.87041	1557.8625
2796.42589	1566.5625
2798.97979	1577.2625
2801.53212	1587.4625
2804.08288	1596.8625
2806.63206	1599.4625
2809.17967	1617.8625
2811.72571	1624.7625
2814.27018	1646.9625
2816.81308	1640.1625
2819.35442	1656.5625
2821.89419	1658.3625
2824.43239	1667.3625
2826.96904	1667.4625
2829.50412	1663.9625
2832.03763	1661.7625
2834.56959	1680.5625
2837.1	1675.4625
2839.62884	1697.1625
2842.15613	1727.8625
2844.68186	1783.6625
2847.20604	1833.0625
2849.72867	1873.9625
2852.24974	1888.1625
2854.76927	1895.0625
2857.28724	1888.1625
2859.80367	1886.9625
2862.31855	1885.9625
2864.83189	1876.4625
2867.34368	1882.1625
2869.85393	1866.3625
2872.36264	1863.8625
2874.8698	1862.5625
2877.37543	1851.5625
2879.87952	1847.0625
2882.38207	1856.5625
2884.88308	1848.1625
2887.38256	1852.5625
2889.88051	1838.6625
2892.37692	1839.5625
2894.8718	1843.6625
2897.36515	1839.8625
2899.85698	1841.4625
2902.34727	1830.0625
2904.83604	1830.9625
2907.32328	1838.1625
2909.809	1819.9625
2912.29319	1819.9625
2914.77587	1813.2625
2917.25702	1816.4625
2919.73665	1805.2625
2922.21476	1809.8625
2924.69136	1796.9625
2927.16644	1793.8625
2929.64	1782.6625
2932.11205	1779.9625
2934.58258	1755.0625
2937.05161	1742.1625
2939.51912	1705.0625
2941.98513	1671.1625
2944.44962	1638.4625
2946.91261	1596.0625
2949.37409	1577.1625
2951.83407	1535.2625
2954.29254	1522.4625
2956.74951	1495.6625
2959.20498	1472.7625
2961.65895	1462.8625
2964.11142	1443.3625
2966.56239	1430.1625
2969.01186	1405.7625
2971.45984	1401.9625
2973.90632	1385.7625
2976.35131	1367.0625
2978.7948	1367.2625
2981.23681	1344.9625
2983.67732	1338.2625
2986.11635	1329.1625
2988.55388	1319.7625
2990.98993	1309.0625
2993.4245	1300.7625
2995.85758	1288.4625
2998.28917	1296.5625
3000.71928	1287.7625
3003.14791	1286.0625
3005.57506	1283.1625
3008.00073	1282.3625
3010.42493	1269.3625
3012.84764	1272.3625
3015.26888	1275.6625
3017.68865	1265.4625
3020.10694	1272.7625
3022.52376	1258.5625
3024.9391	1268.0625
3027.35298	1261.0625
3029.76539	1264.3625
3032.17632	1263.6625
3034.5858	1260.5625
3036.9938	1261.2625
3039.40034	1258.2625
3041.80542	1257.1625
3044.20903	1259.7625
3046.61118	1254.4625
3049.01187	1260.1625
3051.4111	1266.7625
3053.80888	1264.7625
3056.20519	1262.8625
3058.60005	1269.0625
3060.99345	1266.9625
3063.3854	1266.1625
3065.7759	1267.8625
3068.16494	1271.8625
3070.55254	1269.1625
3072.93868	1272.2625
3075.32338	1274.0625
3077.70662	1268.6625
3080.08842	1275.2625
3082.46878	1268.5625
3084.84769	1274.4625
3087.22515	1263.0625
3089.60118	1267.2625
3091.97576	1272.5625
3094.3489	1274.7625
3096.72061	1274.2625
3099.09087	1285.3625
3101.4597	1281.5625
3103.82709	1282.5625
3106.19305	1287.9625
3108.55757	1274.5625
3110.92066	1293.1625
3113.28232	1290.7625
3115.64255	1289.3625
3118.00134	1294.6625
3120.35871	1303.3625
3122.71466	1301.6625
3125.06917	1302.8625
3127.42226	1311.6625
3129.77393	1316.6625
3132.12417	1317.6625
3134.47299	1332.9625
3136.82039	1336.6625
3139.16636	1336.7625
3141.51092	1342.8625
3143.85406	1351.0625
3146.19579	1356.6625
3148.53609	1358.6625
3150.87499	1364.5625
3153.21246	1378.0625
3155.54853	1381.9625
3157.88318	1385.3625
3160.21642	1392.0625
3162.54826	1395.7625
3164.87868	1400.7625
3167.2077	1400.7625
3169.5353	1419.6625
3171.86151	1418.4625
3174.18631	1422.3625
3176.5097	1428.6625
3178.83169	1437.9625
3181.15228	1430.9625
3183.47147	1445.9625
3185.78926	1443.4625
3188.10565	1451.1625
3190.42065	1454.9625
3192.73424	1459.0625
3195.04645	1468.8625
3197.35725	1480.8625
3199.66667	1477.8625
3201.97469	1481.1625
3204.28132	1493.3625
3206.58656	1493.9625
3208.8904	1493.8625
3211.19287	1490.6625
3213.49394	1497.7625
3215.79363	1504.4625
3218.09193	1502.4625
3220.38884	1508.5625
3222.68438	1507.0625
3224.97853	1503.6625
3227.2713	1511.7625
3229.56269	1505.6625
3231.8527	1522.6625
3234.14133	1511.5625
3236.42858	1518.3625
3238.71446	1513.7625
3240.99896	1523.1625
3243.28209	1523.6625
3245.56384	1521.7625
3247.84423	1528.5625
3250.12324	1526.7625
3252.40088	1534.4625
3254.67715	1531.6625
3256.95205	1533.1625
3259.22558	1531.9625
3261.49775	1540.9625
3263.76855	1543.6625
3266.03799	1538.9625
3268.30606	1532.3625
3270.57277	1537.7625
3272.83812	1540.3625
3275.10211	1537.2625
3277.36474	1540.6625
3279.62601	1542.9625
3281.88593	1533.3625
3284.14448	1533.7625
3286.40168	1542.7625
3288.65753	1532.4625
3290.91202	1533.5625
3293.16516	1521.7625
3295.41695	1518.3625
3297.66738	1512.0625
3299.91647	1505.5625
3302.16421	1489.0625
3304.4106	1490.2625
3306.65564	1475.5625
3308.89933	1479.7625
3311.14169	1461.2625
3313.38269	1445.4625
3315.62236	1446.0625
3317.86068	1429.1625
3320.09766	1419.0625
3322.3333	1399.6625
3324.5676	1419.4625
3326.80056	1375.3625
3329.03219	1376.2625
3331.26248	0.4625
3333.49143	0.5625
3335.71905	0.2625
