Data from AgNPs_FTO_APTES_UA_50uM_R6G_10uM_NaF_0.1M_Addition_RamanShift__12__14-50-17-410.txt Node

Date: Fri Dec 17 14:50:17 GMT 2021
User: TCL
Spectrometer: QEP01345
Trigger mode: 4
Integration Time (sec): 7.000000E0
Scans to average: 10
Electric dark correction enabled: true
Nonlinearity correction enabled: false
Boxcar width: 0
XAxis mode: Raman Shifts
Number of Pixels in Spectrum: 1044
>>>>>Begin Spectral Data<<<<<
46.04893	-1.1375
50.45542	-0.7375
54.85868	-2.0375
59.25871	-0.0375
63.6555	86.4625
68.04907	88.7625
72.43941	94.1625
76.82654	100.4625
81.21044	98.6625
85.59113	101.4625
89.96862	105.4625
94.34289	112.5625
98.71396	114.3625
103.08183	119.8625
107.4465	120.1625
111.80798	122.7625
116.16626	130.3625
120.52136	131.5625
124.87327	138.5625
129.222	148.1625
133.56755	152.6625
137.90993	166.0625
142.24913	176.9625
146.58517	199.7625
150.91804	229.2625
155.24774	273.0625
159.57429	333.7625
163.89768	433.0625
168.21792	562.5625
172.53501	763.1625
176.84895	1057.6625
181.15975	1482.8625
185.46741	2083.6625
189.77193	2878.5625
194.07331	3868.7625
198.37157	4997.1625
202.6667	6195.2625
206.9587	7371.1625
211.24758	8540.3625
215.53334	9692.7625
219.81599	10879.7625
224.09553	12227.2625
228.37195	13663.4625
232.64527	15259.0625
236.91549	17028.8625
241.18261	18813.8625
245.44663	20497.5625
249.70755	22020.3625
253.96539	23460.4625
258.22014	24581.3625
262.4718	25442.3625
266.72039	26054.4625
270.96589	26337.8625
275.20832	26389.6625
279.44768	26233.2625
283.68397	25994.5625
287.91719	25700.2625
292.14735	25521.3625
296.37445	25408.0625
300.59849	25424.9625
304.81948	25411.1625
309.03742	25375.4625
313.25231	25209.8625
317.46415	24854.2625
321.67296	24413.1625
325.87872	24039.5625
330.08145	23897.5625
334.28114	23980.3625
338.47781	24206.9625
342.67145	24413.4625
346.86207	24711.1625
351.04966	25091.7625
355.23424	25416.3625
359.4158	25806.4625
363.59435	26081.9625
367.76989	26300.8625
371.94243	26496.2625
376.11196	26610.5625
380.27849	26764.3625
384.44203	26893.3625
388.60257	27094.5625
392.76012	27301.3625
396.91468	27632.9625
401.06626	27980.3625
405.21485	28244.0625
409.36047	28248.4625
413.50311	28010.9625
417.64277	27764.0625
421.77947	27711.5625
425.9132	27757.8625
430.04396	27838.5625
434.17176	28040.3625
438.2966	28216.4625
442.41849	28389.6625
446.53742	28684.8625
450.6534	29034.1625
454.76644	29423.0625
458.87653	29588.5625
462.98368	29722.2625
467.08789	29722.5625
471.18916	29567.0625
475.2875	29374.6625
479.38291	29194.0625
483.4754	28999.1625
487.56496	28806.9625
491.6516	28690.3625
495.73531	28581.6625
499.81612	28590.2625
503.89401	28712.7625
507.96899	28819.1625
512.04106	28911.1625
516.11023	28920.2625
520.1765	28897.4625
524.23987	28711.7625
528.30034	28560.1625
532.35792	28431.5625
536.41261	28245.9625
540.46441	28100.6625
544.51333	28117.7625
548.55936	28342.9625
552.60252	28654.2625
556.64279	29058.4625
560.6802	29206.9625
564.71473	29288.1625
568.7464	29478.1625
572.7752	29812.1625
576.80114	30128.2625
580.82422	30627.2625
584.84444	31041.3625
588.86181	31193.4625
592.87633	31159.8625
596.888	31114.7625
600.89682	31137.2625
604.9028	31923.1625
608.90594	33808.0625
612.90624	35689.9625
616.90371	34369.1625
620.89834	30879.3625
624.89015	29224.7625
628.87913	28976.1625
632.86528	29168.0625
636.84862	29356.6625
640.82913	29182.0625
644.80683	28818.6625
648.78172	28504.6625
652.75379	28423.3625
656.72306	28681.1625
660.68952	29019.1625
664.65319	28970.8625
668.61405	28828.4625
672.57211	28773.5625
676.52738	28812.9625
680.47986	28786.9625
684.42955	28716.2625
688.37646	28688.2625
692.32058	28721.6625
696.26192	28904.8625
700.20048	29111.6625
704.13626	29248.9625
708.06928	29307.2625
711.99952	29215.1625
715.927	29092.7625
719.85171	29058.7625
723.77365	28981.1625
727.69284	28826.8625
731.60928	28607.8625
735.52295	28491.8625
739.43388	28454.9625
743.34206	28527.2625
747.24749	28593.1625
751.15017	28706.5625
755.05012	28944.7625
758.94733	29416.3625
762.8418	30232.1625
766.73354	31675.0625
770.62254	33086.9625
774.50882	33530.5625
778.39237	32719.6625
782.27321	31326.3625
786.15132	30102.7625
790.02671	29258.8625
793.89938	28796.1625
797.76935	28607.7625
801.6366	28542.5625
805.50115	28422.2625
809.36299	28333.0625
813.22213	28230.1625
817.07857	28183.2625
820.93231	28184.7625
824.78336	28172.8625
828.63172	28157.2625
832.47738	28118.7625
836.32036	28120.6625
840.16066	28063.3625
843.99827	28079.4625
847.8332	28049.9625
851.66546	28074.5625
855.49504	28127.2625
859.32195	28142.3625
863.1462	28126.1625
866.96777	28122.1625
870.78668	28147.6625
874.60293	28180.3625
878.41652	28168.2625
882.22745	28226.4625
886.03573	28312.2625
889.84136	28320.9625
893.64433	28277.3625
897.44466	28195.5625
901.24235	28159.1625
905.0374	28128.4625
908.8298	28060.2625
912.61957	28089.9625
916.40671	28232.6625
920.19121	28382.7625
923.97308	28466.2625
927.75233	28413.4625
931.52895	28324.8625
935.30295	28187.9625
939.07433	27949.4625
942.84309	27756.1625
946.60924	27633.5625
950.37278	27492.0625
954.13371	27482.9625
957.89203	27409.9625
961.64774	27447.3625
965.40086	27391.9625
969.15137	27339.7625
972.89929	27308.8625
976.64461	27294.4625
980.38733	27265.7625
984.12747	27284.3625
987.86502	27343.8625
991.59999	27451.8625
995.33237	27539.0625
999.06217	27738.9625
1002.78939	27986.5625
1006.51404	28308.3625
1010.23611	28591.3625
1013.95561	28756.8625
1017.67255	28782.3625
1021.38692	28694.6625
1025.09872	28461.7625
1028.80796	28302.9625
1032.51465	28164.3625
1036.21877	28199.8625
1039.92035	28244.2625
1043.61937	28325.5625
1047.31584	28414.7625
1051.00976	28495.2625
1054.70114	28636.3625
1058.38998	28769.9625
1062.07627	29017.3625
1065.76003	29300.2625
1069.44126	29587.7625
1073.11995	29920.3625
1076.79611	30259.5625
1080.46974	30417.8625
1084.14085	30406.0625
1087.80943	30450.9625
1091.47549	30549.3625
1095.13903	30594.8625
1098.80005	30497.8625
1102.45857	30147.1625
1106.11456	29812.7625
1109.76805	29543.1625
1113.41903	29434.0625
1117.06751	29436.6625
1120.71348	29590.0625
1124.35696	29753.3625
1127.99793	29953.7625
1131.63641	30032.7625
1135.2724	29966.1625
1138.90589	29799.0625
1142.5369	29800.8625
1146.16542	29761.7625
1149.79145	29812.3625
1153.415	29856.5625
1157.03607	29921.9625
1160.65467	30238.1625
1164.27079	30777.0625
1167.88443	31539.4625
1171.49561	32482.4625
1175.10432	33673.1625
1178.71056	35211.8625
1182.31434	36705.6625
1185.91565	37834.1625
1189.51451	38387.6625
1193.11091	38348.7625
1196.70485	37705.3625
1200.29634	36698.4625
1203.88538	35720.4625
1207.47197	34740.9625
1211.05612	33974.7625
1214.63782	33339.4625
1218.21708	32833.7625
1221.79391	32393.8625
1225.36829	32069.1625
1228.94024	31888.9625
1232.50976	31921.2625
1236.07685	31953.1625
1239.6415	32062.3625
1243.20374	32110.4625
1246.76355	32263.7625
1250.32093	32452.4625
1253.8759	32834.9625
1257.42845	33301.1625
1260.97859	33862.0625
1264.52631	34427.3625
1268.07163	34911.8625
1271.61453	35332.5625
1275.15503	35784.5625
1278.69312	36130.8625
1282.22882	36459.9625
1285.76211	36770.6625
1289.29301	37208.2625
1292.82151	37762.5625
1296.34761	38404.2625
1299.87133	39170.0625
1303.39266	40085.5625
1306.9116	41182.0625
1310.42815	42239.5625
1313.94233	42880.7625
1317.45412	42986.8625
1320.96354	42662.1625
1324.47058	42486.7625
1327.97525	42353.3625
1331.47754	42397.7625
1334.97747	42707.0625
1338.47502	43276.5625
1341.97022	43984.1625
1345.46305	44804.2625
1348.95352	45367.4625
1352.44163	45652.7625
1355.92738	45635.1625
1359.41078	45812.0625
1362.89183	46142.8625
1366.37053	45163.2625
1369.84688	42648.9625
1373.32088	39836.7625
1376.79254	37639.6625
1380.26186	36495.1625
1383.72883	35888.8625
1387.19347	35485.6625
1390.65578	35042.4625
1394.11575	34602.4625
1397.57339	34287.1625
1401.0287	34186.6625
1404.48168	34120.4625
1407.93234	34173.1625
1411.38068	34079.5625
1414.82669	33765.8625
1418.27039	33280.4625
1421.71177	32765.7625
1425.15083	32320.5625
1428.58758	32069.9625
1432.02203	32099.3625
1435.45416	32314.3625
1438.88399	32611.1625
1442.31151	32886.2625
1445.73673	33039.1625
1449.15965	33282.4625
1452.58027	33414.8625
1455.9986	33590.1625
1459.41463	33817.4625
1462.82837	34262.9625
1466.23982	34795.4625
1469.64898	35241.0625
1473.05586	35647.7625
1476.46045	35787.5625
1479.86276	35906.2625
1483.26279	35892.5625
1486.66054	36022.1625
1490.05602	36240.9625
1493.44922	36705.8625
1496.84016	37466.9625
1500.22882	38695.6625
1503.61521	40201.9625
1506.99934	41764.4625
1510.38121	42748.4625
1513.76081	42710.9625
1517.13816	41714.6625
1520.51324	40251.9625
1523.88607	38968.7625
1527.25665	38060.3625
1530.62498	37588.3625
1533.99105	37251.1625
1537.35488	36900.7625
1540.71647	36510.8625
1544.07581	36064.2625
1547.4329	35576.9625
1550.78776	35173.0625
1554.14038	34987.9625
1557.49077	34886.2625
1560.83892	34861.1625
1564.18484	34973.0625
1567.52853	35045.6625
1570.86999	35224.3625
1574.20922	35503.2625
1577.54624	35664.1625
1580.88103	35356.0625
1584.2136	34902.2625
1587.54395	34758.3625
1590.87208	35009.5625
1594.19801	35720.3625
1597.52172	36679.7625
1600.84321	37130.4625
1604.16251	36695.8625
1607.47959	35809.9625
1610.79447	34616.0625
1614.10715	33220.7625
1617.41763	31796.5625
1620.7259	30708.7625
1624.03199	29959.2625
1627.33587	29673.8625
1630.63757	29789.6625
1633.93707	30393.5625
1637.23439	31647.3625
1640.52951	33413.9625
1643.82246	35583.0625
1647.11321	37398.8625
1650.40179	38204.9625
1653.68819	37225.8625
1656.97241	34923.5625
1660.25446	32132.3625
1663.53433	29892.9625
1666.81203	28356.8625
1670.08756	27326.7625
1673.36092	26646.8625
1676.63211	26216.5625
1679.90115	25875.8625
1683.16801	25641.1625
1686.43272	25440.8625
1689.69527	25272.5625
1692.95567	25153.4625
1696.2139	25076.4625
1699.46999	25037.9625
1702.72392	24980.9625
1705.97571	24921.0625
1709.22535	24890.9625
1712.47284	24847.0625
1715.71819	24806.7625
1718.96139	24701.4625
1722.20246	24683.9625
1725.44139	24604.1625
1728.67818	24497.1625
1731.91284	24387.1625
1735.14537	24291.8625
1738.37576	24226.4625
1741.60403	24173.5625
1744.83017	24085.0625
1748.05418	24006.1625
1751.27607	24006.6625
1754.49584	23949.0625
1757.71349	23962.9625
1760.92903	23937.4625
1764.14244	23868.3625
1767.35375	23910.5625
1770.56294	23836.9625
1773.77002	23847.0625
1776.97499	23796.6625
1780.17785	23761.9625
1783.37861	23756.0625
1786.57727	23674.9625
1789.77382	23662.4625
1792.96828	23611.2625
1796.16064	23552.9625
1799.3509	23455.8625
1802.53907	23512.8625
1805.72514	23427.6625
1808.90913	23331.9625
1812.09102	23309.8625
1815.27083	23276.5625
1818.44856	23237.9625
1821.6242	23206.3625
1824.79776	23149.7625
1827.96924	23150.9625
1831.13864	23115.6625
1834.30597	23124.9625
1837.47122	23112.3625
1840.6344	23101.8625
1843.7955	23078.6625
1846.95454	23071.7625
1850.11151	23070.7625
1853.26642	23039.1625
1856.41926	23034.8625
1859.57004	23031.0625
1862.71876	22983.9625
1865.86542	22973.8625
1869.01003	22937.1625
1872.15258	22905.5625
1875.29308	22860.5625
1878.43152	22865.2625
1881.56792	22779.9625
1884.70227	22749.9625
1887.83457	22733.0625
1890.96482	22692.4625
1894.09304	22664.5625
1897.21921	22622.0625
1900.34335	22630.4625
1903.46544	22588.0625
1906.58551	22569.6625
1909.70353	22522.0625
1912.81953	22498.5625
1915.93349	22466.2625
1919.04543	22419.0625
1922.15534	22373.3625
1925.26322	22308.6625
1928.36908	22281.1625
1931.47292	22207.1625
1934.57473	22152.3625
1937.67453	22142.4625
1940.77232	22073.3625
1943.86808	21972.8625
1946.96184	21957.3625
1950.05358	21915.0625
1953.14331	21866.4625
1956.23103	21811.2625
1959.31675	21742.7625
1962.40046	21649.0625
1965.48217	21609.8625
1968.56188	21547.6625
1971.63959	21461.7625
1974.7153	21399.9625
1977.78901	21330.1625
1980.86073	21298.4625
1983.93046	21197.9625
1986.99819	21168.1625
1990.06394	21087.6625
1993.1277	20995.6625
1996.18947	20937.9625
1999.24925	20905.5625
2002.30706	20846.3625
2005.36288	20760.4625
2008.41672	20700.8625
2011.46859	20652.7625
2014.51848	20629.4625
2017.56639	20528.8625
2020.61233	20491.4625
2023.6563	20430.2625
2026.6983	20398.7625
2029.73833	20330.4625
2032.7764	20232.9625
2035.8125	20182.8625
2038.84664	20188.2625
2041.87881	20138.3625
2044.90903	20101.0625
2047.93729	20052.5625
2050.96359	20044.1625
2053.98794	20001.4625
2057.01034	19992.4625
2060.03078	19962.0625
2063.04927	19946.5625
2066.06582	19935.2625
2069.08042	19932.9625
2072.09307	19937.0625
2075.10378	19886.3625
2078.11255	19862.4625
2081.11938	19837.4625
2084.12426	19864.1625
2087.12722	19844.5625
2090.12824	19807.5625
2093.12732	19817.6625
2096.12447	19876.3625
2099.11969	19801.7625
2102.11299	19850.0625
2105.10435	19848.9625
2108.09379	19868.5625
2111.08131	19889.0625
2114.0669	19887.2625
2117.05057	19899.7625
2120.03233	19914.2625
2123.01216	19920.6625
2125.99008	19945.3625
2128.96609	19929.8625
2131.94018	19986.3625
2134.91236	19975.0625
2137.88263	19996.9625
2140.851	20002.5625
2143.81746	20036.6625
2146.78201	20009.3625
2149.74466	20035.2625
2152.7054	20036.0625
2155.66425	20005.2625
2158.6212	19977.9625
2161.57625	19986.3625
2164.52941	19999.1625
2167.48067	19965.3625
2170.43004	19995.7625
2173.37752	19986.6625
2176.32311	19962.6625
2179.26681	19932.6625
2182.20863	19910.7625
2185.14856	19936.1625
2188.08661	19938.2625
2191.02278	19916.9625
2193.95707	19854.7625
2196.88948	19883.8625
2199.82001	19902.8625
2202.74867	19845.8625
2205.67545	19856.6625
2208.60037	19813.2625
2211.52341	19756.6625
2214.44458	19720.1625
2217.36388	19634.6625
2220.28132	19636.3625
2223.1969	19613.4625
2226.11061	19578.9625
2229.02246	19519.0625
2231.93245	19467.8625
2234.84058	19462.8625
2237.74686	19376.3625
2240.65128	19402.9625
2243.55385	19375.2625
2246.45456	19333.0625
2249.35343	19352.9625
2252.25044	19295.6625
2255.14561	19248.4625
2258.03893	19252.4625
2260.93041	19212.0625
2263.82004	19141.9625
2266.70783	19098.9625
2269.59378	19106.3625
2272.4779	19076.9625
2275.36017	18973.8625
2278.24061	18963.5625
2281.11922	18888.2625
2283.996	18874.6625
2286.87094	18846.8625
2289.74405	18796.4625
2292.61534	18786.9625
2295.4848	18752.3625
2298.35243	18726.1625
2301.21824	18705.8625
2304.08223	18704.1625
2306.94439	18684.0625
2309.80474	18647.3625
2312.66327	18652.2625
2315.51999	18626.5625
2318.37489	18576.7625
2321.22797	18600.7625
2324.07925	18561.3625
2326.92871	18488.8625
2329.77637	18505.3625
2332.62222	18483.1625
2335.46626	18449.1625
2338.3085	18398.9625
2341.14893	18411.4625
2343.98756	18364.0625
2346.8244	18312.7625
2349.65943	18327.1625
2352.49267	18315.2625
2355.32411	18320.0625
2358.15376	18297.6625
2360.98161	18293.1625
2363.80768	18285.4625
2366.63195	18254.2625
2369.45444	18257.1625
2372.27514	18243.7625
2375.09405	18221.5625
2377.91118	18193.2625
2380.72652	18136.0625
2383.54009	18083.1625
2386.35187	18088.4625
2389.16188	18022.3625
2391.97011	17983.0625
2394.77657	17955.2625
2397.58125	17923.9625
2400.38416	17874.7625
2403.18529	17869.5625
2405.98466	17875.5625
2408.78226	17818.8625
2411.57809	17800.9625
2414.37216	17777.3625
2417.16446	17740.1625
2419.955	17738.9625
2422.74378	17743.4625
2425.5308	17691.2625
2428.31606	17683.3625
2431.09956	17672.5625
2433.88131	17646.0625
2436.6613	17643.0625
2439.43954	17639.9625
2442.21603	17624.6625
2444.99077	17574.7625
2447.76377	17579.3625
2450.53501	17524.8625
2453.30451	17545.7625
2456.07226	17508.0625
2458.83827	17487.0625
2461.60254	17476.0625
2464.36507	17451.0625
2467.12586	17425.9625
2469.88492	17450.0625
2472.64224	17405.8625
2475.39782	17410.5625
2478.15167	17376.5625
2480.90379	17358.7625
2483.65417	17357.2625
2486.40283	17325.7625
2489.14976	17346.9625
2491.89497	17322.3625
2494.63845	17308.3625
2497.3802	17319.4625
2500.12024	17260.1625
2502.85855	17279.5625
2505.59514	17276.3625
2508.33002	17247.9625
2511.06318	17194.8625
2513.79462	17202.3625
2516.52435	17191.5625
2519.25237	17127.8625
2521.97867	17142.0625
2524.70327	17113.6625
2527.42616	17086.4625
2530.14734	17064.6625
2532.86681	17078.9625
2535.58458	17014.6625
2538.30065	16990.8625
2541.01501	16984.0625
2543.72768	16943.7625
2546.43864	16922.3625
2549.14791	16883.4625
2551.85548	16855.8625
2554.56136	16824.8625
2557.26554	16805.9625
2559.96803	16771.3625
2562.66883	16777.5625
2565.36794	16759.5625
2568.06536	16711.0625
2570.7611	16706.0625
2573.45514	16637.5625
2576.14751	16651.4625
2578.83819	16590.3625
2581.52719	16598.2625
2584.21451	16541.3625
2586.90015	16532.7625
2589.58411	16483.8625
2592.2664	16484.6625
2594.94701	16425.3625
2597.62594	16393.2625
2600.30321	16353.4625
2602.9788	16352.4625
2605.65273	16298.6625
2608.32498	16301.6625
2610.99557	16276.5625
2613.66449	16255.6625
2616.33175	16224.0625
2618.99734	16214.6625
2621.66128	16183.0625
2624.32355	16163.9625
2626.98416	16142.3625
2629.64311	16125.5625
2632.30041	16154.0625
2634.95605	16104.0625
2637.61004	16084.4625
2640.26238	16063.2625
2642.91306	16013.2625
2645.56209	16027.2625
2648.20948	16018.9625
2650.85521	16024.2625
2653.4993	15985.6625
2656.14175	16013.6625
2658.78255	16012.5625
2661.42171	15995.7625
2664.05923	16010.3625
2666.6951	15998.6625
2669.32934	15971.0625
2671.96194	15993.2625
2674.59291	16011.6625
2677.22224	15945.3625
2679.84993	16002.2625
2682.476	15960.8625
2685.10043	15971.2625
2687.72324	15946.3625
2690.34441	15970.3625
2692.96396	15958.2625
2695.58188	15966.3625
2698.19818	15964.0625
2700.81285	15935.0625
2703.4259	15961.5625
2706.03733	15942.2625
2708.64714	15931.2625
2711.25533	15974.3625
2713.86191	15933.4625
2716.46687	15940.8625
2719.07021	15944.2625
2721.67194	15940.4625
2724.27206	15866.0625
2726.87057	15915.2625
2729.46747	15905.9625
2732.06276	15869.3625
2734.65644	15863.4625
2737.24852	15868.8625
2739.83899	15864.8625
2742.42786	15847.2625
2745.01513	15801.6625
2747.60079	15785.8625
2750.18486	15813.1625
2752.76733	15771.4625
2755.3482	15744.9625
2757.92747	15748.8625
2760.50515	15706.6625
2763.08123	15690.5625
2765.65573	15670.8625
2768.22863	15643.8625
2770.79994	15620.8625
2773.36967	15616.0625
2775.9378	15592.9625
2778.50435	15557.4625
2781.06932	15512.6625
2783.6327	15543.8625
2786.1945	15510.9625
2788.75471	15516.0625
2791.31335	15412.7625
2793.87041	15409.5625
2796.42589	15342.9625
2798.97979	15369.8625
2801.53212	15312.3625
2804.08288	15298.0625
2806.63206	15249.4625
2809.17967	15221.8625
2811.72571	15191.6625
2814.27018	15221.2625
2816.81308	15137.9625
2819.35442	15115.4625
2821.89419	15082.9625
2824.43239	15078.4625
2826.96904	15040.4625
2829.50412	15046.5625
2832.03763	15008.7625
2834.56959	15027.5625
2837.1	14970.6625
2839.62884	14975.9625
2842.15613	14918.9625
2844.68186	14961.5625
2847.20604	14932.3625
2849.72867	14925.9625
2852.24974	14917.2625
2854.76927	14840.7625
2857.28724	14853.9625
2859.80367	14854.0625
2862.31855	14802.1625
2864.83189	14757.5625
2867.34368	14755.0625
2869.85393	14744.7625
2872.36264	14765.3625
2874.8698	14732.5625
2877.37543	14728.8625
2879.87952	14718.9625
2882.38207	14721.1625
2884.88308	14688.3625
2887.38256	14700.2625
2889.88051	14695.8625
2892.37692	14655.2625
2894.8718	14649.3625
2897.36515	14687.4625
2899.85698	14694.9625
2902.34727	14707.7625
2904.83604	14683.1625
2907.32328	14697.9625
2909.809	14659.5625
2912.29319	14725.8625
2914.77587	14689.6625
2917.25702	14683.0625
2919.73665	14679.8625
2922.21476	14640.5625
2924.69136	14624.2625
2927.16644	14641.2625
2929.64	14614.2625
2932.11205	14600.0625
2934.58258	14539.0625
2937.05161	14582.7625
2939.51912	14558.1625
2941.98513	14546.9625
2944.44962	14522.8625
2946.91261	14502.5625
2949.37409	14536.7625
2951.83407	14486.1625
2954.29254	14444.5625
2956.74951	14468.6625
2959.20498	14440.5625
2961.65895	14415.2625
2964.11142	14376.8625
2966.56239	14372.4625
2969.01186	14398.5625
2971.45984	14359.6625
2973.90632	14321.4625
2976.35131	14276.0625
2978.7948	14262.3625
2981.23681	14216.7625
2983.67732	14203.3625
2986.11635	14173.3625
2988.55388	14154.4625
2990.98993	14144.8625
2993.4245	14079.4625
2995.85758	14075.2625
2998.28917	14046.9625
3000.71928	14017.6625
3003.14791	13993.1625
3005.57506	13962.4625
3008.00073	13926.8625
3010.42493	13931.7625
3012.84764	13890.9625
3015.26888	13865.5625
3017.68865	13855.7625
3020.10694	13840.7625
3022.52376	13819.3625
3024.9391	13782.7625
3027.35298	13750.9625
3029.76539	13717.2625
3032.17632	13705.8625
3034.5858	13662.5625
3036.9938	13663.7625
3039.40034	13645.1625
3041.80542	13652.2625
3044.20903	13630.6625
3046.61118	13623.3625
3049.01187	13554.5625
3051.4111	13534.9625
3053.80888	13537.9625
3056.20519	13518.6625
3058.60005	13460.0625
3060.99345	13441.1625
3063.3854	13454.4625
3065.7759	13385.4625
3068.16494	13366.4625
3070.55254	13320.6625
3072.93868	13330.4625
3075.32338	13288.9625
3077.70662	13289.5625
3080.08842	13212.4625
3082.46878	13236.3625
3084.84769	13213.0625
3087.22515	13211.4625
3089.60118	13182.6625
3091.97576	13193.8625
3094.3489	13171.4625
3096.72061	13154.1625
3099.09087	13148.6625
3101.4597	13092.2625
3103.82709	13102.2625
3106.19305	13100.1625
3108.55757	13081.4625
3110.92066	13059.7625
3113.28232	13030.9625
3115.64255	13001.4625
3118.00134	12960.2625
3120.35871	12945.8625
3122.71466	12919.4625
3125.06917	12907.5625
3127.42226	12879.1625
3129.77393	12896.6625
3132.12417	12836.0625
3134.47299	12870.8625
3136.82039	12858.7625
3139.16636	12868.8625
3141.51092	12837.8625
3143.85406	12873.3625
3146.19579	12846.3625
3148.53609	12825.8625
3150.87499	12819.0625
3153.21246	12836.0625
3155.54853	12842.2625
3157.88318	12833.4625
3160.21642	12829.4625
3162.54826	12824.1625
3164.87868	12836.9625
3167.2077	12814.8625
3169.5353	12781.8625
3171.86151	12793.0625
3174.18631	12751.0625
3176.5097	12736.8625
3178.83169	12720.6625
3181.15228	12735.1625
3183.47147	12683.2625
3185.78926	12673.3625
3188.10565	12645.2625
3190.42065	12670.7625
3192.73424	12647.1625
3195.04645	12623.1625
3197.35725	12572.1625
3199.66667	12609.8625
3201.97469	12626.0625
3204.28132	12583.8625
3206.58656	12628.0625
3208.8904	12648.5625
3211.19287	12625.7625
3213.49394	12625.4625
3215.79363	12609.1625
3218.09193	12637.0625
3220.38884	12615.6625
3222.68438	12616.9625
3224.97853	12574.4625
3227.2713	12574.0625
3229.56269	12523.4625
3231.8527	12544.6625
3234.14133	12488.4625
3236.42858	12467.9625
3238.71446	12455.6625
3240.99896	12437.3625
3243.28209	12414.0625
3245.56384	12406.6625
3247.84423	12417.2625
3250.12324	12410.4625
3252.40088	12393.7625
3254.67715	12380.2625
3256.95205	12351.6625
3259.22558	12348.7625
3261.49775	12329.1625
3263.76855	12315.2625
3266.03799	12267.9625
3268.30606	12282.8625
3270.57277	12236.8625
3272.83812	12219.5625
3275.10211	12197.2625
3277.36474	12135.9625
3279.62601	12176.0625
3281.88593	12140.5625
3284.14448	12170.9625
3286.40168	12131.9625
3288.65753	12126.4625
3290.91202	12088.5625
3293.16516	12067.0625
3295.41695	12028.8625
3297.66738	11936.2625
3299.91647	11922.5625
3302.16421	11824.2625
3304.4106	11777.7625
3306.65564	11699.1625
3308.89933	11630.6625
3311.14169	11583.8625
3313.38269	11478.3625
3315.62236	11430.0625
3317.86068	11304.2625
3320.09766	11216.2625
3322.3333	11114.6625
3324.5676	11118.7625
3326.80056	10937.6625
3329.03219	10856.4625
3331.26248	3.3625
3333.49143	1.2625
3335.71905	-0.3375
