Data from AgNPs_FTO_APTES_UA_0uM_R6G_10uM_NaF_0.1M_Addition_RamanShift__38__10-40-37-125.txt Node

Date: Fri Dec 17 10:40:37 GMT 2021
User: TCL
Spectrometer: QEP01345
Trigger mode: 4
Integration Time (sec): 7.000000E0
Scans to average: 10
Electric dark correction enabled: true
Nonlinearity correction enabled: false
Boxcar width: 0
XAxis mode: Raman Shifts
Number of Pixels in Spectrum: 1044
>>>>>Begin Spectral Data<<<<<
46.04893	-0.7375
50.45542	-0.0375
54.85868	-1.4375
59.25871	0.4625
63.6555	81.3625
68.04907	86.6625
72.43941	89.9625
76.82654	94.6625
81.21044	96.8625
85.59113	100.3625
89.96862	102.2625
94.34289	110.3625
98.71396	114.5625
103.08183	113.4625
107.4465	121.5625
111.80798	119.7625
116.16626	125.3625
120.52136	125.8625
124.87327	135.1625
129.222	142.8625
133.56755	152.1625
137.90993	168.1625
142.24913	183.8625
146.58517	205.2625
150.91804	241.7625
155.24774	290.2625
159.57429	362.6625
163.89768	464.7625
168.21792	609.2625
172.53501	823.9625
176.84895	1162.9625
181.15975	1626.2625
185.46741	2295.1625
189.77193	3167.8625
194.07331	4268.0625
198.37157	5487.1625
202.6667	6803.0625
206.9587	8124.0625
211.24758	9395.9625
215.53334	10625.6625
219.81599	11968.9625
224.09553	13440.5625
228.37195	15070.0625
232.64527	16853.2625
236.91549	18817.3625
241.18261	20762.7625
245.44663	22587.9625
249.70755	24236.0625
253.96539	25666.6625
258.22014	26797.8625
262.4718	27720.2625
266.72039	28260.7625
270.96589	28474.6625
275.20832	28400.3625
279.44768	28162.3625
283.68397	27812.6625
287.91719	27463.7625
292.14735	27236.3625
296.37445	27053.6625
300.59849	27002.5625
304.81948	26993.3625
309.03742	27014.2625
313.25231	26917.9625
317.46415	26700.0625
321.67296	26338.4625
325.87872	25963.6625
330.08145	25838.5625
334.28114	25882.8625
338.47781	26011.3625
342.67145	26329.1625
346.86207	26696.8625
351.04966	27081.7625
355.23424	27471.8625
359.4158	27808.2625
363.59435	28068.6625
367.76989	28271.5625
371.94243	28398.5625
376.11196	28419.7625
380.27849	28523.0625
384.44203	28616.4625
388.60257	28847.7625
392.76012	29180.1625
396.91468	29558.6625
401.06626	29931.7625
405.21485	30272.9625
409.36047	30255.7625
413.50311	30038.1625
417.64277	29923.8625
421.77947	30077.7625
425.9132	30270.6625
430.04396	30472.7625
434.17176	30641.8625
438.2966	30740.6625
442.41849	31003.2625
446.53742	31430.3625
450.6534	31974.3625
454.76644	32334.5625
458.87653	32443.0625
462.98368	32455.8625
467.08789	32259.6625
471.18916	32005.9625
475.2875	31645.1625
479.38291	31385.4625
483.4754	31177.5625
487.56496	30969.7625
491.6516	30882.0625
495.73531	30706.3625
499.81612	30604.0625
503.89401	30826.5625
507.96899	30928.4625
512.04106	30997.7625
516.11023	30974.1625
520.1765	30743.4625
524.23987	30597.8625
528.30034	30450.7625
532.35792	30279.2625
536.41261	30027.3625
540.46441	29873.6625
544.51333	29896.1625
548.55936	30094.0625
552.60252	30496.9625
556.64279	30971.3625
560.6802	31277.6625
564.71473	31543.9625
568.7464	31923.2625
572.7752	32595.9625
576.80114	33416.2625
580.82422	34434.6625
584.84444	35399.9625
588.86181	36532.9625
592.87633	37445.7625
596.888	37454.6625
600.89682	36470.8625
604.9028	36158.8625
608.90594	37546.5625
612.90624	39035.2625
616.90371	37273.3625
620.89834	33428.2625
624.89015	31669.6625
628.87913	31485.4625
632.86528	31619.6625
636.84862	31529.2625
640.82913	31132.8625
644.80683	30507.8625
648.78172	30088.5625
652.75379	29986.1625
656.72306	30228.4625
660.68952	30638.3625
664.65319	30569.2625
668.61405	30255.0625
672.57211	30254.8625
676.52738	30307.9625
680.47986	30297.2625
684.42955	30133.1625
688.37646	30005.5625
692.32058	30169.1625
696.26192	30444.1625
700.20048	30735.8625
704.13626	31006.4625
708.06928	31137.6625
711.99952	31007.5625
715.927	30912.8625
719.85171	30889.5625
723.77365	30729.1625
727.69284	30433.9625
731.60928	30108.4625
735.52295	29963.1625
739.43388	29928.4625
743.34206	30065.7625
747.24749	30196.9625
751.15017	30443.7625
755.05012	30842.8625
758.94733	31456.5625
762.8418	32563.5625
766.73354	34134.5625
770.62254	35602.7625
774.50882	35716.8625
778.39237	34609.9625
782.27321	33043.4625
786.15132	31851.1625
790.02671	31056.5625
793.89938	30535.8625
797.76935	30286.1625
801.6366	30110.8625
805.50115	30009.4625
809.36299	29962.9625
813.22213	29801.7625
817.07857	29733.7625
820.93231	29692.2625
824.78336	29658.5625
828.63172	29597.5625
832.47738	29573.7625
836.32036	29503.9625
840.16066	29500.3625
843.99827	29502.6625
847.8332	29529.6625
851.66546	29595.8625
855.49504	29631.0625
859.32195	29693.3625
863.1462	29652.7625
866.96777	29664.1625
870.78668	29664.5625
874.60293	29759.4625
878.41652	29827.9625
882.22745	29937.6625
886.03573	30056.4625
889.84136	30077.8625
893.64433	30095.8625
897.44466	30019.6625
901.24235	30059.7625
905.0374	30055.3625
908.8298	30107.3625
912.61957	30138.9625
916.40671	30326.8625
920.19121	30585.0625
923.97308	30802.4625
927.75233	30795.0625
931.52895	30617.6625
935.30295	30232.9625
939.07433	29792.0625
942.84309	29461.3625
946.60924	29278.6625
950.37278	29162.8625
954.13371	29128.4625
957.89203	29060.7625
961.64774	29015.6625
965.40086	28957.9625
969.15137	28897.4625
972.89929	28829.1625
976.64461	28770.8625
980.38733	28672.3625
984.12747	28667.2625
987.86502	28756.5625
991.59999	28866.1625
995.33237	29029.9625
999.06217	29234.7625
1002.78939	29635.3625
1006.51404	30093.2625
1010.23611	30606.5625
1013.95561	30853.3625
1017.67255	30881.7625
1021.38692	30644.2625
1025.09872	30251.7625
1028.80796	29938.5625
1032.51465	29737.0625
1036.21877	29674.1625
1039.92035	29764.5625
1043.61937	29882.5625
1047.31584	30017.7625
1051.00976	30058.6625
1054.70114	30171.8625
1058.38998	30320.0625
1062.07627	30508.8625
1065.76003	30794.2625
1069.44126	31097.5625
1073.11995	31564.1625
1076.79611	31957.2625
1080.46974	32138.8625
1084.14085	32235.0625
1087.80943	32424.4625
1091.47549	32657.9625
1095.13903	32747.7625
1098.80005	32466.9625
1102.45857	31938.0625
1106.11456	31396.3625
1109.76805	31030.2625
1113.41903	30906.8625
1117.06751	30975.0625
1120.71348	31094.4625
1124.35696	31262.0625
1127.99793	31565.3625
1131.63641	31731.9625
1135.2724	31644.5625
1138.90589	31541.5625
1142.5369	31577.5625
1146.16542	31675.8625
1149.79145	31852.4625
1153.415	31990.2625
1157.03607	32173.7625
1160.65467	32679.1625
1164.27079	33547.7625
1167.88443	34679.2625
1171.49561	36007.8625
1175.10432	37561.6625
1178.71056	39541.6625
1182.31434	41348.5625
1185.91565	42444.6625
1189.51451	42769.3625
1193.11091	42437.9625
1196.70485	41466.3625
1200.29634	40227.8625
1203.88538	39230.2625
1207.47197	38488.1625
1211.05612	38043.8625
1214.63782	37558.1625
1218.21708	36905.1625
1221.79391	36164.3625
1225.36829	35689.5625
1228.94024	35422.1625
1232.50976	35252.7625
1236.07685	35062.2625
1239.6415	34962.3625
1243.20374	34909.3625
1246.76355	34969.6625
1250.32093	35227.6625
1253.8759	35659.2625
1257.42845	36392.4625
1260.97859	37222.8625
1264.52631	38079.0625
1268.07163	38920.8625
1271.61453	39678.1625
1275.15503	40474.2625
1278.69312	41279.9625
1282.22882	42062.1625
1285.76211	42966.9625
1289.29301	44000.2625
1292.82151	45218.7625
1296.34761	46519.0625
1299.87133	48086.6625
1303.39266	49785.6625
1306.9116	51485.4625
1310.42815	52820.6625
1313.94233	53700.3625
1317.45412	53643.5625
1320.96354	53165.0625
1324.47058	52897.8625
1327.97525	52839.9625
1331.47754	52779.6625
1334.97747	52811.5625
1338.47502	52911.3625
1341.97022	52960.8625
1345.46305	53061.5625
1348.95352	52980.2625
1352.44163	52743.5625
1355.92738	52714.8625
1359.41078	53237.3625
1362.89183	53782.8625
1366.37053	52905.4625
1369.84688	50135.8625
1373.32088	46447.7625
1376.79254	43668.0625
1380.26186	42360.6625
1383.72883	42009.4625
1387.19347	41749.6625
1390.65578	41209.4625
1394.11575	40866.3625
1397.57339	40887.3625
1401.0287	41186.7625
1404.48168	41424.1625
1407.93234	41384.7625
1411.38068	41030.0625
1414.82669	40210.4625
1418.27039	39211.3625
1421.71177	38102.2625
1425.15083	37407.3625
1428.58758	37122.6625
1432.02203	37397.4625
1435.45416	37967.8625
1438.88399	38638.2625
1442.31151	39129.9625
1445.73673	39369.8625
1449.15965	39583.5625
1452.58027	39763.9625
1455.9986	39889.6625
1459.41463	40116.8625
1462.82837	40618.9625
1466.23982	41166.1625
1469.64898	41656.4625
1473.05586	41926.6625
1476.46045	42004.1625
1479.86276	42071.9625
1483.26279	42001.1625
1486.66054	41974.5625
1490.05602	42219.7625
1493.44922	42822.0625
1496.84016	43580.0625
1500.22882	44482.1625
1503.61521	45550.1625
1506.99934	46550.7625
1510.38121	47135.2625
1513.76081	46993.8625
1517.13816	46162.6625
1520.51324	45154.5625
1523.88607	44357.1625
1527.25665	43940.6625
1530.62498	43773.4625
1533.99105	43385.0625
1537.35488	42834.8625
1540.71647	41964.2625
1544.07581	41067.2625
1547.4329	40091.8625
1550.78776	39408.5625
1554.14038	39008.3625
1557.49077	38826.5625
1560.83892	38807.3625
1564.18484	38978.2625
1567.52853	39127.4625
1570.86999	39285.6625
1574.20922	39656.1625
1577.54624	39983.8625
1580.88103	39964.4625
1584.2136	40011.9625
1587.54395	40678.2625
1590.87208	41942.1625
1594.19801	43509.6625
1597.52172	45067.9625
1600.84321	45351.8625
1604.16251	43978.5625
1607.47959	41646.2625
1610.79447	39258.8625
1614.10715	36890.4625
1617.41763	34935.7625
1620.7259	33491.5625
1624.03199	32755.1625
1627.33587	32719.2625
1630.63757	33337.3625
1633.93707	34851.0625
1637.23439	37411.4625
1640.52951	41184.1625
1643.82246	45621.6625
1647.11321	49036.4625
1650.40179	49517.5625
1653.68819	46620.0625
1656.97241	41794.8625
1660.25446	37005.7625
1663.53433	33393.9625
1666.81203	31087.2625
1670.08756	29678.0625
1673.36092	28705.9625
1676.63211	28136.0625
1679.90115	27719.6625
1683.16801	27351.3625
1686.43272	27099.8625
1689.69527	26911.9625
1692.95567	26736.8625
1696.2139	26683.7625
1699.46999	26599.7625
1702.72392	26525.6625
1705.97571	26444.1625
1709.22535	26453.6625
1712.47284	26431.7625
1715.71819	26383.0625
1718.96139	26319.5625
1722.20246	26207.8625
1725.44139	26144.2625
1728.67818	26007.9625
1731.91284	25875.2625
1735.14537	25763.8625
1738.37576	25694.5625
1741.60403	25604.2625
1744.83017	25529.3625
1748.05418	25480.0625
1751.27607	25407.2625
1754.49584	25418.4625
1757.71349	25372.1625
1760.92903	25362.1625
1764.14244	25308.7625
1767.35375	25281.9625
1770.56294	25240.6625
1773.77002	25215.9625
1776.97499	25136.5625
1780.17785	25138.2625
1783.37861	25148.7625
1786.57727	25066.7625
1789.77382	25027.1625
1792.96828	24982.2625
1796.16064	24917.9625
1799.3509	24884.9625
1802.53907	24865.9625
1805.72514	24794.5625
1808.90913	24704.2625
1812.09102	24677.0625
1815.27083	24632.5625
1818.44856	24558.9625
1821.6242	24571.5625
1824.79776	24530.2625
1827.96924	24532.5625
1831.13864	24502.7625
1834.30597	24497.2625
1837.47122	24490.3625
1840.6344	24529.8625
1843.7955	24570.2625
1846.95454	24578.4625
1850.11151	24529.6625
1853.26642	24558.9625
1856.41926	24562.8625
1859.57004	24572.1625
1862.71876	24542.8625
1865.86542	24518.9625
1869.01003	24497.8625
1872.15258	24459.2625
1875.29308	24420.5625
1878.43152	24407.9625
1881.56792	24310.2625
1884.70227	24289.6625
1887.83457	24238.7625
1890.96482	24252.5625
1894.09304	24134.8625
1897.21921	24125.2625
1900.34335	24076.8625
1903.46544	24017.4625
1906.58551	24054.9625
1909.70353	23991.5625
1912.81953	23954.3625
1915.93349	23866.9625
1919.04543	23794.8625
1922.15534	23721.6625
1925.26322	23684.9625
1928.36908	23627.1625
1931.47292	23568.0625
1934.57473	23438.3625
1937.67453	23412.9625
1940.77232	23365.7625
1943.86808	23306.0625
1946.96184	23205.7625
1950.05358	23173.6625
1953.14331	23100.9625
1956.23103	23008.2625
1959.31675	22934.4625
1962.40046	22904.6625
1965.48217	22795.8625
1968.56188	22739.0625
1971.63959	22658.6625
1974.7153	22577.9625
1977.78901	22506.3625
1980.86073	22382.5625
1983.93046	22386.1625
1986.99819	22271.9625
1990.06394	22204.5625
1993.1277	22163.5625
1996.18947	22074.8625
1999.24925	22017.9625
2002.30706	21938.1625
2005.36288	21812.5625
2008.41672	21814.8625
2011.46859	21729.4625
2014.51848	21652.6625
2017.56639	21600.0625
2020.61233	21571.4625
2023.6563	21512.4625
2026.6983	21448.1625
2029.73833	21426.4625
2032.7764	21338.0625
2035.8125	21290.9625
2038.84664	21301.3625
2041.87881	21282.3625
2044.90903	21196.9625
2047.93729	21156.6625
2050.96359	21111.4625
2053.98794	21051.2625
2057.01034	21053.8625
2060.03078	21025.3625
2063.04927	21011.7625
2066.06582	20979.3625
2069.08042	21001.2625
2072.09307	20986.5625
2075.10378	20910.4625
2078.11255	20905.8625
2081.11938	20884.5625
2084.12426	20901.8625
2087.12722	20877.8625
2090.12824	20883.8625
2093.12732	20901.1625
2096.12447	20903.0625
2099.11969	20893.6625
2102.11299	20885.4625
2105.10435	20903.1625
2108.09379	20870.6625
2111.08131	20897.8625
2114.0669	20912.8625
2117.05057	20925.2625
2120.03233	20926.7625
2123.01216	20917.8625
2125.99008	20967.1625
2128.96609	20953.7625
2131.94018	20997.4625
2134.91236	20979.0625
2137.88263	20960.1625
2140.851	20980.3625
2143.81746	21015.9625
2146.78201	20993.4625
2149.74466	20987.9625
2152.7054	20968.3625
2155.66425	20967.4625
2158.6212	20951.5625
2161.57625	20952.7625
2164.52941	20950.1625
2167.48067	20918.1625
2170.43004	20946.6625
2173.37752	20920.1625
2176.32311	20926.1625
2179.26681	20878.8625
2182.20863	20907.4625
2185.14856	20935.9625
2188.08661	20862.6625
2191.02278	20864.4625
2193.95707	20839.1625
2196.88948	20848.2625
2199.82001	20823.8625
2202.74867	20784.3625
2205.67545	20777.0625
2208.60037	20758.2625
2211.52341	20706.4625
2214.44458	20625.2625
2217.36388	20595.5625
2220.28132	20560.5625
2223.1969	20498.2625
2226.11061	20507.0625
2229.02246	20433.9625
2231.93245	20422.5625
2234.84058	20391.1625
2237.74686	20374.3625
2240.65128	20358.6625
2243.55385	20309.1625
2246.45456	20300.3625
2249.35343	20250.0625
2252.25044	20221.5625
2255.14561	20153.0625
2258.03893	20170.1625
2260.93041	20070.7625
2263.82004	20028.9625
2266.70783	19999.8625
2269.59378	19964.3625
2272.4779	19875.2625
2275.36017	19845.3625
2278.24061	19818.7625
2281.11922	19771.6625
2283.996	19750.0625
2286.87094	19708.1625
2289.74405	19643.6625
2292.61534	19635.4625
2295.4848	19564.4625
2298.35243	19600.3625
2301.21824	19553.5625
2304.08223	19537.9625
2306.94439	19547.3625
2309.80474	19543.7625
2312.66327	19461.1625
2315.51999	19465.7625
2318.37489	19448.9625
2321.22797	19442.9625
2324.07925	19401.9625
2326.92871	19372.0625
2329.77637	19307.2625
2332.62222	19332.7625
2335.46626	19288.6625
2338.3085	19263.7625
2341.14893	19225.9625
2343.98756	19191.3625
2346.8244	19219.7625
2349.65943	19182.1625
2352.49267	19169.0625
2355.32411	19175.0625
2358.15376	19130.0625
2360.98161	19107.8625
2363.80768	19124.0625
2366.63195	19088.7625
2369.45444	19041.9625
2372.27514	19036.8625
2375.09405	18998.0625
2377.91118	18986.0625
2380.72652	18935.0625
2383.54009	18911.3625
2386.35187	18929.2625
2389.16188	18853.3625
2391.97011	18801.4625
2394.77657	18750.1625
2397.58125	18719.3625
2400.38416	18702.6625
2403.18529	18674.9625
2405.98466	18674.0625
2408.78226	18616.3625
2411.57809	18612.4625
2414.37216	18574.5625
2417.16446	18542.5625
2419.955	18518.4625
2422.74378	18514.7625
2425.5308	18492.7625
2428.31606	18455.8625
2431.09956	18431.7625
2433.88131	18418.8625
2436.6613	18444.2625
2439.43954	18405.9625
2442.21603	18380.1625
2444.99077	18335.3625
2447.76377	18319.2625
2450.53501	18324.6625
2453.30451	18313.8625
2456.07226	18280.3625
2458.83827	18297.5625
2461.60254	18266.9625
2464.36507	18236.4625
2467.12586	18237.5625
2469.88492	18206.9625
2472.64224	18193.2625
2475.39782	18165.9625
2478.15167	18145.2625
2480.90379	18157.6625
2483.65417	18139.6625
2486.40283	18133.2625
2489.14976	18107.9625
2491.89497	18067.7625
2494.63845	18099.0625
2497.3802	18061.7625
2500.12024	18053.4625
2502.85855	18021.8625
2505.59514	18027.3625
2508.33002	18017.6625
2511.06318	18029.8625
2513.79462	17990.1625
2516.52435	17960.6625
2519.25237	17961.0625
2521.97867	17920.9625
2524.70327	17904.8625
2527.42616	17894.8625
2530.14734	17888.4625
2532.86681	17825.8625
2535.58458	17784.3625
2538.30065	17810.5625
2541.01501	17769.6625
2543.72768	17721.2625
2546.43864	17684.7625
2549.14791	17665.5625
2551.85548	17683.8625
2554.56136	17637.8625
2557.26554	17608.3625
2559.96803	17620.0625
2562.66883	17614.5625
2565.36794	17571.3625
2568.06536	17556.5625
2570.7611	17514.2625
2573.45514	17472.0625
2576.14751	17443.2625
2578.83819	17421.8625
2581.52719	17383.7625
2584.21451	17368.6625
2586.90015	17355.9625
2589.58411	17309.7625
2592.2664	17296.5625
2594.94701	17245.2625
2597.62594	17240.9625
2600.30321	17208.8625
2602.9788	17217.7625
2605.65273	17163.2625
2608.32498	17136.9625
2610.99557	17103.6625
2613.66449	17122.4625
2616.33175	17088.8625
2618.99734	17073.6625
2621.66128	17015.5625
2624.32355	17005.7625
2626.98416	16996.4625
2629.64311	17009.8625
2632.30041	16993.9625
2634.95605	16932.9625
2637.61004	16947.4625
2640.26238	16925.8625
2642.91306	16935.8625
2645.56209	16871.7625
2648.20948	16874.6625
2650.85521	16872.2625
2653.4993	16861.5625
2656.14175	16885.1625
2658.78255	16857.1625
2661.42171	16840.8625
2664.05923	16886.6625
2666.6951	16861.7625
2669.32934	16857.4625
2671.96194	16871.5625
2674.59291	16845.2625
2677.22224	16855.6625
2679.84993	16881.5625
2682.476	16850.0625
2685.10043	16845.5625
2687.72324	16816.3625
2690.34441	16818.8625
2692.96396	16825.6625
2695.58188	16818.5625
2698.19818	16787.3625
2700.81285	16810.1625
2703.4259	16829.3625
2706.03733	16826.1625
2708.64714	16802.9625
2711.25533	16827.7625
2713.86191	16788.5625
2716.46687	16804.4625
2719.07021	16801.9625
2721.67194	16817.0625
2724.27206	16763.0625
2726.87057	16779.9625
2729.46747	16771.6625
2732.06276	16797.0625
2734.65644	16756.4625
2737.24852	16729.0625
2739.83899	16747.6625
2742.42786	16746.1625
2745.01513	16698.8625
2747.60079	16702.0625
2750.18486	16656.7625
2752.76733	16703.2625
2755.3482	16636.3625
2757.92747	16655.1625
2760.50515	16615.1625
2763.08123	16612.6625
2765.65573	16582.1625
2768.22863	16588.4625
2770.79994	16572.6625
2773.36967	16584.2625
2775.9378	16540.7625
2778.50435	16525.6625
2781.06932	16452.3625
2783.6327	16459.4625
2786.1945	16446.0625
2788.75471	16402.9625
2791.31335	16354.6625
2793.87041	16359.5625
2796.42589	16291.6625
2798.97979	16280.1625
2801.53212	16220.5625
2804.08288	16215.7625
2806.63206	16201.4625
2809.17967	16167.4625
2811.72571	16106.0625
2814.27018	16051.6625
2816.81308	16053.3625
2819.35442	16020.5625
2821.89419	15998.9625
2824.43239	15980.9625
2826.96904	15943.9625
2829.50412	15905.2625
2832.03763	15911.7625
2834.56959	15886.6625
2837.1	15816.0625
2839.62884	15822.9625
2842.15613	15823.3625
2844.68186	15832.3625
2847.20604	15784.1625
2849.72867	15795.5625
2852.24974	15757.6625
2854.76927	15747.5625
2857.28724	15725.8625
2859.80367	15677.5625
2862.31855	15643.3625
2864.83189	15655.9625
2867.34368	15639.9625
2869.85393	15658.4625
2872.36264	15596.5625
2874.8698	15599.7625
2877.37543	15598.3625
2879.87952	15611.9625
2882.38207	15613.2625
2884.88308	15570.0625
2887.38256	15581.0625
2889.88051	15572.7625
2892.37692	15579.4625
2894.8718	15563.8625
2897.36515	15547.1625
2899.85698	15531.2625
2902.34727	15576.3625
2904.83604	15554.8625
2907.32328	15586.4625
2909.809	15571.6625
2912.29319	15580.3625
2914.77587	15566.3625
2917.25702	15530.4625
2919.73665	15566.4625
2922.21476	15549.0625
2924.69136	15504.1625
2927.16644	15507.0625
2929.64	15487.5625
2932.11205	15498.0625
2934.58258	15432.3625
2937.05161	15452.6625
2939.51912	15460.3625
2941.98513	15428.4625
2944.44962	15388.7625
2946.91261	15331.3625
2949.37409	15378.6625
2951.83407	15341.1625
2954.29254	15362.1625
2956.74951	15307.4625
2959.20498	15317.8625
2961.65895	15281.6625
2964.11142	15267.9625
2966.56239	15229.7625
2969.01186	15230.8625
2971.45984	15161.1625
2973.90632	15177.8625
2976.35131	15138.8625
2978.7948	15094.7625
2981.23681	15058.9625
2983.67732	15022.0625
2986.11635	15002.2625
2988.55388	14937.4625
2990.98993	14909.5625
2993.4245	14893.3625
2995.85758	14853.8625
2998.28917	14828.9625
3000.71928	14805.9625
3003.14791	14748.6625
3005.57506	14766.9625
3008.00073	14702.6625
3010.42493	14678.7625
3012.84764	14654.1625
3015.26888	14646.7625
3017.68865	14592.4625
3020.10694	14559.5625
3022.52376	14526.4625
3024.9391	14517.8625
3027.35298	14491.0625
3029.76539	14433.2625
3032.17632	14408.1625
3034.5858	14411.8625
3036.9938	14382.5625
3039.40034	14379.5625
3041.80542	14347.6625
3044.20903	14343.8625
3046.61118	14298.4625
3049.01187	14263.9625
3051.4111	14243.9625
3053.80888	14219.7625
3056.20519	14158.3625
3058.60005	14157.3625
3060.99345	14109.0625
3063.3854	14073.5625
3065.7759	14030.8625
3068.16494	13977.9625
3070.55254	13966.1625
3072.93868	13953.1625
3075.32338	13916.7625
3077.70662	13918.6625
3080.08842	13860.7625
3082.46878	13839.2625
3084.84769	13787.3625
3087.22515	13785.1625
3089.60118	13769.3625
3091.97576	13788.1625
3094.3489	13781.8625
3096.72061	13747.2625
3099.09087	13750.2625
3101.4597	13697.4625
3103.82709	13675.9625
3106.19305	13673.9625
3108.55757	13669.4625
3110.92066	13618.2625
3113.28232	13593.2625
3115.64255	13542.3625
3118.00134	13492.8625
3120.35871	13531.4625
3122.71466	13499.0625
3125.06917	13475.4625
3127.42226	13426.0625
3129.77393	13434.6625
3132.12417	13426.1625
3134.47299	13390.8625
3136.82039	13350.3625
3139.16636	13379.2625
3141.51092	13363.5625
3143.85406	13366.8625
3146.19579	13349.1625
3148.53609	13360.7625
3150.87499	13355.8625
3153.21246	13326.6625
3155.54853	13399.9625
3157.88318	13346.4625
3160.21642	13327.0625
3162.54826	13312.0625
3164.87868	13298.6625
3167.2077	13256.7625
3169.5353	13260.0625
3171.86151	13239.4625
3174.18631	13220.8625
3176.5097	13199.4625
3178.83169	13187.7625
3181.15228	13175.0625
3183.47147	13174.5625
3185.78926	13133.8625
3188.10565	13155.8625
3190.42065	13152.8625
3192.73424	13148.4625
3195.04645	13143.7625
3197.35725	13137.5625
3199.66667	13120.9625
3201.97469	13119.8625
3204.28132	13088.6625
3206.58656	13091.2625
3208.8904	13066.7625
3211.19287	13094.8625
3213.49394	13029.6625
3215.79363	13045.8625
3218.09193	13033.9625
3220.38884	12984.2625
3222.68438	13032.6625
3224.97853	12975.1625
3227.2713	12968.9625
3229.56269	12959.5625
3231.8527	12969.1625
3234.14133	12951.7625
3236.42858	12874.4625
3238.71446	12881.8625
3240.99896	12850.2625
3243.28209	12837.9625
3245.56384	12844.2625
3247.84423	12836.2625
3250.12324	12806.7625
3252.40088	12788.4625
3254.67715	12755.9625
3256.95205	12740.1625
3259.22558	12745.9625
3261.49775	12724.5625
3263.76855	12698.4625
3266.03799	12636.4625
3268.30606	12629.4625
3270.57277	12603.9625
3272.83812	12591.8625
3275.10211	12589.1625
3277.36474	12549.3625
3279.62601	12552.1625
3281.88593	12521.0625
3284.14448	12517.4625
3286.40168	12494.9625
3288.65753	12493.7625
3290.91202	12451.0625
3293.16516	12415.1625
3295.41695	12373.0625
3297.66738	12307.9625
3299.91647	12228.6625
3302.16421	12161.9625
3304.4106	12102.0625
3306.65564	12061.6625
3308.89933	11947.3625
3311.14169	11882.0625
3313.38269	11792.2625
3315.62236	11736.1625
3317.86068	11611.2625
3320.09766	11485.9625
3322.3333	11389.5625
3324.5676	11376.2625
3326.80056	11171.4625
3329.03219	11092.9625
3331.26248	2.7625
3333.49143	0.4625
3335.71905	-0.9375
