Data from AgNPs_FTO_APTES_UA_1uM_R6G_10uM_NaF_0.1M_Addition_RamanShift__15__11-21-27-171.txt Node

Date: Fri Dec 17 11:21:27 GMT 2021
User: TCL
Spectrometer: QEP01345
Trigger mode: 4
Integration Time (sec): 7.000000E0
Scans to average: 10
Electric dark correction enabled: true
Nonlinearity correction enabled: false
Boxcar width: 0
XAxis mode: Raman Shifts
Number of Pixels in Spectrum: 1044
>>>>>Begin Spectral Data<<<<<
46.04893	-1
50.45542	0.3
54.85868	-2
59.25871	0.4
63.6555	99.9
68.04907	104.4
72.43941	112.3
76.82654	118.6
81.21044	121.2
85.59113	122.8
89.96862	130.4
94.34289	135.7
98.71396	143.6
103.08183	145.8
107.4465	151.3
111.80798	151.5
116.16626	154.8
120.52136	156.1
124.87327	166.3
129.222	172.8
133.56755	180.1
137.90993	193.9
142.24913	210.7
146.58517	237.6
150.91804	269.8
155.24774	313.4
159.57429	390
163.89768	493.1
168.21792	639
172.53501	860.8
176.84895	1187.5
181.15975	1659.8
185.46741	2327.8
189.77193	3201.9
194.07331	4299.4
198.37157	5545.5
202.6667	6862.4
206.9587	8181.8
211.24758	9467.8
215.53334	10780.4
219.81599	12112.5
224.09553	13593.4
228.37195	15268.2
232.64527	17075.9
236.91549	19029.4
241.18261	21031.8
245.44663	22897.2
249.70755	24669.2
253.96539	26172.8
258.22014	27396.8
262.4718	28378.1
266.72039	29011.2
270.96589	29316.1
275.20832	29288.9
279.44768	29002.1
283.68397	28583.4
287.91719	28162
292.14735	27864
296.37445	27668.8
300.59849	27543
304.81948	27569.5
309.03742	27528.9
313.25231	27276.9
317.46415	26823.4
321.67296	26345.2
325.87872	25941.5
330.08145	25798.7
334.28114	25855.7
338.47781	26025.6
342.67145	26387.5
346.86207	26775.8
351.04966	27258
355.23424	27836.4
359.4158	28260.6
363.59435	28678.8
367.76989	28994.5
371.94243	29214.3
376.11196	29309.5
380.27849	29376.9
384.44203	29504
388.60257	29706.2
392.76012	29939.5
396.91468	30205.3
401.06626	30618.8
405.21485	30865
409.36047	30806.1
413.50311	30486.4
417.64277	30202.8
421.77947	30070.4
425.9132	30127.5
430.04396	30209.4
434.17176	30332.1
438.2966	30509.8
442.41849	30779.6
446.53742	31247.8
450.6534	31676.7
454.76644	32112.6
458.87653	32394.7
462.98368	32388.7
467.08789	32338.3
471.18916	32204.6
475.2875	31963.1
479.38291	31756.2
483.4754	31693.7
487.56496	31565.3
491.6516	31476.7
495.73531	31278.1
499.81612	31224.3
503.89401	31402.9
507.96899	31438.4
512.04106	31546.4
516.11023	31599.4
520.1765	31494
524.23987	31373
528.30034	31159.5
532.35792	30994.9
536.41261	30822.4
540.46441	30597
544.51333	30587.9
548.55936	30722.2
552.60252	31077.2
556.64279	31521
560.6802	31785.3
564.71473	31952.3
568.7464	32200.1
572.7752	32540.5
576.80114	32779
580.82422	33016.4
584.84444	33343.5
588.86181	33706.6
592.87633	33905.1
596.888	33929
600.89682	33959.9
604.9028	34994.6
608.90594	37609.9
612.90624	40336.3
616.90371	38841.5
620.89834	34297.9
624.89015	32194
628.87913	31702.7
632.86528	31819.2
636.84862	31847.2
640.82913	31688.5
644.80683	31190.8
648.78172	30830.4
652.75379	30734.9
656.72306	31029.5
660.68952	31439.7
664.65319	31408.2
668.61405	31093.3
672.57211	31059.3
676.52738	31164.1
680.47986	31152.2
684.42955	31031.3
688.37646	30979.9
692.32058	31114.3
696.26192	31319.9
700.20048	31622.7
704.13626	31822.9
708.06928	31770
711.99952	31642.6
715.927	31567.5
719.85171	31613.6
723.77365	31575.7
727.69284	31373.7
731.60928	31135.5
735.52295	30988.4
739.43388	31010.8
743.34206	31086.4
747.24749	31147.5
751.15017	31284
755.05012	31497
758.94733	32000.5
762.8418	33006.6
766.73354	34544
770.62254	36085.1
774.50882	36717.7
778.39237	35967.2
782.27321	34435.4
786.15132	33064.4
790.02671	32119.4
793.89938	31590.5
797.76935	31399.6
801.6366	31272.7
805.50115	31175.3
809.36299	31103.2
813.22213	30895.9
817.07857	30868
820.93231	30844.8
824.78336	30817.5
828.63172	30779.6
832.47738	30758.8
836.32036	30763.6
840.16066	30828.4
843.99827	30785.1
847.8332	30797.8
851.66546	30824.9
855.49504	30841.8
859.32195	30883.9
863.1462	30891
866.96777	30888.6
870.78668	30936.1
874.60293	31025.2
878.41652	31105.2
882.22745	31177.1
886.03573	31241.5
889.84136	31341.9
893.64433	31338.5
897.44466	31274.7
901.24235	31308.2
905.0374	31314
908.8298	31301.5
912.61957	31332.3
916.40671	31418.4
920.19121	31639.8
923.97308	31871.8
927.75233	31930.2
931.52895	31920.4
935.30295	31733
939.07433	31324.2
942.84309	31029
946.60924	30788.1
950.37278	30685.1
954.13371	30609.5
957.89203	30505.8
961.64774	30432.1
965.40086	30366.6
969.15137	30288.4
972.89929	30281.1
976.64461	30267.8
980.38733	30291.1
984.12747	30299.3
987.86502	30396.8
991.59999	30537.3
995.33237	30621
999.06217	30883.8
1002.78939	31197.6
1006.51404	31530.1
1010.23611	31934.7
1013.95561	32159.5
1017.67255	32146.7
1021.38692	31928.3
1025.09872	31736.7
1028.80796	31549.2
1032.51465	31538.9
1036.21877	31715.6
1039.92035	31830.6
1043.61937	31860.4
1047.31584	31843.9
1051.00976	31752.3
1054.70114	31832.6
1058.38998	31899.2
1062.07627	32140.7
1065.76003	32475.7
1069.44126	32749.9
1073.11995	33180.6
1076.79611	33560.6
1080.46974	33767
1084.14085	33830.5
1087.80943	33910.6
1091.47549	34001.8
1095.13903	34016.8
1098.80005	33726.3
1102.45857	33291.6
1106.11456	32895.7
1109.76805	32624.7
1113.41903	32515.8
1117.06751	32515
1120.71348	32634.6
1124.35696	32781
1127.99793	32991.3
1131.63641	33196.5
1135.2724	33010.4
1138.90589	32823.9
1142.5369	32692.2
1146.16542	32597
1149.79145	32599.1
1153.415	32654.5
1157.03607	32774.5
1160.65467	33154
1164.27079	33835.6
1167.88443	34770.1
1171.49561	35978.8
1175.10432	37527.5
1178.71056	39519.4
1182.31434	41541.5
1185.91565	42809.9
1189.51451	43086.2
1193.11091	42673.1
1196.70485	41588.3
1200.29634	40293
1203.88538	39241
1207.47197	38393.6
1211.05612	37740.6
1214.63782	37139.3
1218.21708	36647.7
1221.79391	36166.9
1225.36829	35827.3
1228.94024	35616.2
1232.50976	35458
1236.07685	35394.1
1239.6415	35352.6
1243.20374	35419.2
1246.76355	35607.6
1250.32093	35848
1253.8759	36288.4
1257.42845	36882.7
1260.97859	37602.7
1264.52631	38359.9
1268.07163	39095
1271.61453	39774.5
1275.15503	40365.9
1278.69312	40956.3
1282.22882	41255.7
1285.76211	41602.4
1289.29301	42149.8
1292.82151	42820.4
1296.34761	43650.3
1299.87133	44845.5
1303.39266	46273.8
1306.9116	47985.4
1310.42815	49699.5
1313.94233	50747.9
1317.45412	50869.2
1320.96354	50524
1324.47058	50127.6
1327.97525	49791.8
1331.47754	49530.7
1334.97747	49437
1338.47502	49499.7
1341.97022	49581
1345.46305	49696.2
1348.95352	49784.9
1352.44163	49799.6
1355.92738	50014.8
1359.41078	50974.2
1362.89183	52031.7
1366.37053	51470.5
1369.84688	48511.1
1373.32088	44928.7
1376.79254	42384.6
1380.26186	40979.9
1383.72883	40544.9
1387.19347	40132.3
1390.65578	39705.3
1394.11575	39303.4
1397.57339	39083.2
1401.0287	39183.8
1404.48168	39369.4
1407.93234	39370.1
1411.38068	39206.3
1414.82669	38765.3
1418.27039	38076.2
1421.71177	37394.8
1425.15083	36884.7
1428.58758	36599.5
1432.02203	36721.9
1435.45416	37007.6
1438.88399	37528.6
1442.31151	37884.1
1445.73673	38092.1
1449.15965	38265.6
1452.58027	38416.3
1455.9986	38462.5
1459.41463	38585.6
1462.82837	38989.5
1466.23982	39457.4
1469.64898	39850.3
1473.05586	40056.7
1476.46045	40224.6
1479.86276	40185.4
1483.26279	40144.9
1486.66054	40152.7
1490.05602	40273.5
1493.44922	40835.3
1496.84016	41403.8
1500.22882	42440.3
1503.61521	43894.3
1506.99934	45437
1510.38121	46628
1513.76081	46860
1517.13816	45923.5
1520.51324	44223.9
1523.88607	42492.7
1527.25665	41344.4
1530.62498	40775.5
1533.99105	40377.7
1537.35488	40000
1540.71647	39544.7
1544.07581	39120.5
1547.4329	38657
1550.78776	38359.7
1554.14038	38185.9
1557.49077	38168.8
1560.83892	38283.4
1564.18484	38481.2
1567.52853	38718.4
1570.86999	39045.9
1574.20922	39528.7
1577.54624	39928
1580.88103	39954.4
1584.2136	39776.9
1587.54395	39825.7
1590.87208	40401.3
1594.19801	41409.2
1597.52172	42516.8
1600.84321	42876.3
1604.16251	41844.4
1607.47959	40127.5
1610.79447	38316.4
1614.10715	36476.2
1617.41763	34772
1620.7259	33622.2
1624.03199	32955.2
1627.33587	32887
1630.63757	33321.2
1633.93707	34335.9
1637.23439	36058.7
1640.52951	38454.8
1643.82246	41278.8
1647.11321	43607.8
1650.40179	44245.2
1653.68819	42635.6
1656.97241	39323.6
1660.25446	35862.4
1663.53433	33161.8
1666.81203	31370
1670.08756	30267.9
1673.36092	29499.4
1676.63211	28959.4
1679.90115	28696.5
1683.16801	28351
1686.43272	28141.4
1689.69527	28003.4
1692.95567	27887.6
1696.2139	27774.4
1699.46999	27765.6
1702.72392	27699.8
1705.97571	27662.3
1709.22535	27654.3
1712.47284	27645.6
1715.71819	27646.9
1718.96139	27601.1
1722.20246	27534.6
1725.44139	27441.3
1728.67818	27360.6
1731.91284	27245.8
1735.14537	27156.8
1738.37576	27022.6
1741.60403	26943
1744.83017	26915.4
1748.05418	26861.4
1751.27607	26811.7
1754.49584	26769.6
1757.71349	26758.6
1760.92903	26728.1
1764.14244	26690.4
1767.35375	26713
1770.56294	26678.4
1773.77002	26620.1
1776.97499	26599.1
1780.17785	26537.8
1783.37861	26544.1
1786.57727	26469
1789.77382	26482.1
1792.96828	26443.6
1796.16064	26415.3
1799.3509	26375.7
1802.53907	26334.2
1805.72514	26236.1
1808.90913	26179.8
1812.09102	26155.5
1815.27083	26111
1818.44856	26058.5
1821.6242	26024.6
1824.79776	25990
1827.96924	25999.7
1831.13864	25986.9
1834.30597	25995.4
1837.47122	25995.5
1840.6344	26045.7
1843.7955	26078.8
1846.95454	26043.7
1850.11151	25987.7
1853.26642	26035.3
1856.41926	25991.5
1859.57004	25947.3
1862.71876	25939.1
1865.86542	25867.7
1869.01003	25857.9
1872.15258	25853.4
1875.29308	25822.1
1878.43152	25795.2
1881.56792	25760.4
1884.70227	25688.2
1887.83457	25713.3
1890.96482	25665.3
1894.09304	25599.7
1897.21921	25562.1
1900.34335	25569.4
1903.46544	25442.9
1906.58551	25448.6
1909.70353	25458.2
1912.81953	25388.9
1915.93349	25308.3
1919.04543	25246
1922.15534	25202.2
1925.26322	25122.1
1928.36908	25104.2
1931.47292	25035.1
1934.57473	24995
1937.67453	24938.8
1940.77232	24882.9
1943.86808	24798.9
1946.96184	24706
1950.05358	24713.1
1953.14331	24608
1956.23103	24556.7
1959.31675	24476.1
1962.40046	24378.1
1965.48217	24335.5
1968.56188	24289
1971.63959	24216.8
1974.7153	24131.6
1977.78901	24032.6
1980.86073	23965.9
1983.93046	23901
1986.99819	23752.1
1990.06394	23729.7
1993.1277	23680.7
1996.18947	23635.7
1999.24925	23571.3
2002.30706	23452.6
2005.36288	23416.9
2008.41672	23356.7
2011.46859	23284.9
2014.51848	23205.5
2017.56639	23137.8
2020.61233	23099.2
2023.6563	23076.1
2026.6983	23053.9
2029.73833	22939.5
2032.7764	22879.5
2035.8125	22833.5
2038.84664	22824.2
2041.87881	22801.5
2044.90903	22763.3
2047.93729	22711.1
2050.96359	22699
2053.98794	22630.2
2057.01034	22628.5
2060.03078	22600.6
2063.04927	22577.1
2066.06582	22590
2069.08042	22557.3
2072.09307	22585.4
2075.10378	22536.9
2078.11255	22510
2081.11938	22547.3
2084.12426	22510.4
2087.12722	22509
2090.12824	22518
2093.12732	22503.9
2096.12447	22525.3
2099.11969	22494.6
2102.11299	22525.2
2105.10435	22533.6
2108.09379	22542.5
2111.08131	22557.3
2114.0669	22546.7
2117.05057	22562.4
2120.03233	22546.7
2123.01216	22574.2
2125.99008	22599.6
2128.96609	22602
2131.94018	22617.9
2134.91236	22646.9
2137.88263	22653.5
2140.851	22619
2143.81746	22681.9
2146.78201	22694.3
2149.74466	22697.7
2152.7054	22700.2
2155.66425	22647
2158.6212	22674.8
2161.57625	22645.1
2164.52941	22647
2167.48067	22623.8
2170.43004	22611.2
2173.37752	22621.6
2176.32311	22607.5
2179.26681	22553
2182.20863	22564.5
2185.14856	22584.6
2188.08661	22610.3
2191.02278	22599.3
2193.95707	22554.6
2196.88948	22551.6
2199.82001	22517.2
2202.74867	22519
2205.67545	22521.7
2208.60037	22467.6
2211.52341	22402.8
2214.44458	22374.4
2217.36388	22325.2
2220.28132	22349.9
2223.1969	22221.9
2226.11061	22232
2229.02246	22184.3
2231.93245	22134.5
2234.84058	22050.6
2237.74686	22082.9
2240.65128	22049.4
2243.55385	22016.5
2246.45456	21989.2
2249.35343	21989.1
2252.25044	21935.5
2255.14561	21834
2258.03893	21892.5
2260.93041	21802
2263.82004	21755.7
2266.70783	21772.1
2269.59378	21684.1
2272.4779	21649.2
2275.36017	21599.9
2278.24061	21587
2281.11922	21497.9
2283.996	21504.3
2286.87094	21451.8
2289.74405	21412.9
2292.61534	21345.8
2295.4848	21311.8
2298.35243	21363.7
2301.21824	21320.8
2304.08223	21292.3
2306.94439	21277.1
2309.80474	21280.3
2312.66327	21281.8
2315.51999	21205.1
2318.37489	21234.5
2321.22797	21194.3
2324.07925	21137.2
2326.92871	21112.7
2329.77637	21081.2
2332.62222	21054.6
2335.46626	21038.4
2338.3085	20975.1
2341.14893	20970.8
2343.98756	20946.3
2346.8244	20968.9
2349.65943	20896.4
2352.49267	20870.5
2355.32411	20865.1
2358.15376	20892.8
2360.98161	20824.6
2363.80768	20824.8
2366.63195	20777.5
2369.45444	20760.9
2372.27514	20759.4
2375.09405	20731.3
2377.91118	20692.7
2380.72652	20698.8
2383.54009	20647.7
2386.35187	20646.5
2389.16188	20564.4
2391.97011	20498.4
2394.77657	20471.1
2397.58125	20464.2
2400.38416	20405.9
2403.18529	20363
2405.98466	20344.9
2408.78226	20299.2
2411.57809	20269.4
2414.37216	20274.5
2417.16446	20240.3
2419.955	20228.1
2422.74378	20185.4
2425.5308	20169
2428.31606	20141.4
2431.09956	20127.1
2433.88131	20127.7
2436.6613	20135.3
2439.43954	20053.2
2442.21603	20044.8
2444.99077	20018.2
2447.76377	20022.2
2450.53501	19987.4
2453.30451	19971.1
2456.07226	19966
2458.83827	19922.1
2461.60254	19949.6
2464.36507	19915.6
2467.12586	19904.8
2469.88492	19878.3
2472.64224	19866.9
2475.39782	19824.7
2478.15167	19827.4
2480.90379	19815.3
2483.65417	19825.3
2486.40283	19835.4
2489.14976	19752.5
2491.89497	19772.9
2494.63845	19723.5
2497.3802	19703.9
2500.12024	19716.3
2502.85855	19707.7
2505.59514	19676.5
2508.33002	19675.8
2511.06318	19664.3
2513.79462	19598.4
2516.52435	19629.2
2519.25237	19587.7
2521.97867	19549.6
2524.70327	19529.3
2527.42616	19532.6
2530.14734	19538.3
2532.86681	19430.5
2535.58458	19460.1
2538.30065	19397.1
2541.01501	19370.7
2543.72768	19357.1
2546.43864	19321.4
2549.14791	19303.5
2551.85548	19281.4
2554.56136	19258.4
2557.26554	19233.3
2559.96803	19200.1
2562.66883	19169
2565.36794	19146.2
2568.06536	19125.8
2570.7611	19073.5
2573.45514	19053.5
2576.14751	18983.6
2578.83819	18974
2581.52719	18959.8
2584.21451	18905.9
2586.90015	18910.5
2589.58411	18874.2
2592.2664	18852.7
2594.94701	18787.8
2597.62594	18756.6
2600.30321	18714.8
2602.9788	18718.5
2605.65273	18681.3
2608.32498	18645.6
2610.99557	18615.8
2613.66449	18561.9
2616.33175	18626.8
2618.99734	18543.5
2621.66128	18536.6
2624.32355	18491.2
2626.98416	18505.7
2629.64311	18481.4
2632.30041	18456.8
2634.95605	18461.8
2637.61004	18431.9
2640.26238	18384.4
2642.91306	18343.9
2645.56209	18337.3
2648.20948	18338.7
2650.85521	18323.9
2653.4993	18334.5
2656.14175	18282.3
2658.78255	18318.9
2661.42171	18281.6
2664.05923	18308.8
2666.6951	18300.2
2669.32934	18298
2671.96194	18289.3
2674.59291	18273.1
2677.22224	18276
2679.84993	18322.3
2682.476	18308.7
2685.10043	18252.9
2687.72324	18250.1
2690.34441	18248.5
2692.96396	18237.7
2695.58188	18232.9
2698.19818	18221.3
2700.81285	18245.2
2703.4259	18218.4
2706.03733	18181.7
2708.64714	18218.1
2711.25533	18221.3
2713.86191	18200.4
2716.46687	18238.2
2719.07021	18221.5
2721.67194	18227.9
2724.27206	18178
2726.87057	18198.6
2729.46747	18205.5
2732.06276	18193.9
2734.65644	18178.7
2737.24852	18182.8
2739.83899	18150.5
2742.42786	18133.2
2745.01513	18105.9
2747.60079	18121
2750.18486	18115.1
2752.76733	18081.6
2755.3482	18007.2
2757.92747	18045.6
2760.50515	18028.2
2763.08123	18019.7
2765.65573	17986.3
2768.22863	17972.1
2770.79994	17959.9
2773.36967	17937.3
2775.9378	17903.8
2778.50435	17884.7
2781.06932	17838
2783.6327	17855
2786.1945	17809
2788.75471	17804.5
2791.31335	17744.4
2793.87041	17724.2
2796.42589	17649
2798.97979	17644.8
2801.53212	17564.8
2804.08288	17595
2806.63206	17503
2809.17967	17478
2811.72571	17474.7
2814.27018	17429.6
2816.81308	17428.2
2819.35442	17372.4
2821.89419	17349.7
2824.43239	17338.1
2826.96904	17289.7
2829.50412	17250
2832.03763	17238.8
2834.56959	17233.4
2837.1	17185
2839.62884	17209.2
2842.15613	17214.1
2844.68186	17236.9
2847.20604	17216.1
2849.72867	17190.8
2852.24974	17129.6
2854.76927	17141.3
2857.28724	17089.7
2859.80367	17112.3
2862.31855	17097
2864.83189	17081.8
2867.34368	17027.3
2869.85393	17022.8
2872.36264	17014.8
2874.8698	17055.6
2877.37543	17072.7
2879.87952	17046.9
2882.38207	17051.2
2884.88308	17026.1
2887.38256	17038.2
2889.88051	17050.1
2892.37692	17043.8
2894.8718	17061.2
2897.36515	17095.4
2899.85698	17036.4
2902.34727	17072.3
2904.83604	17081.2
2907.32328	17112.1
2909.809	17062.9
2912.29319	17097.4
2914.77587	17097.6
2917.25702	17065.7
2919.73665	17063.7
2922.21476	17076
2924.69136	17020.1
2927.16644	17063.7
2929.64	17004.6
2932.11205	17008.1
2934.58258	16963.5
2937.05161	16986.3
2939.51912	16933.3
2941.98513	16937.1
2944.44962	16873
2946.91261	16831.2
2949.37409	16863
2951.83407	16820
2954.29254	16794.8
2956.74951	16783.5
2959.20498	16779.1
2961.65895	16750.3
2964.11142	16718.1
2966.56239	16650
2969.01186	16651.3
2971.45984	16599.5
2973.90632	16611
2976.35131	16552.8
2978.7948	16533.2
2981.23681	16520.9
2983.67732	16488.5
2986.11635	16432.6
2988.55388	16381.2
2990.98993	16345.3
2993.4245	16311.6
2995.85758	16291.6
2998.28917	16231.2
3000.71928	16221
3003.14791	16188.9
3005.57506	16191.8
3008.00073	16110.4
3010.42493	16112.9
3012.84764	16071.4
3015.26888	16050.7
3017.68865	16012.8
3020.10694	16018.5
3022.52376	15972.9
3024.9391	15963.4
3027.35298	15925.2
3029.76539	15895.7
3032.17632	15889.3
3034.5858	15832.1
3036.9938	15838.9
3039.40034	15798.4
3041.80542	15820.9
3044.20903	15737.9
3046.61118	15759.3
3049.01187	15659.7
3051.4111	15661.2
3053.80888	15613
3056.20519	15601.9
3058.60005	15548.8
3060.99345	15555.3
3063.3854	15496.9
3065.7759	15450.3
3068.16494	15426.3
3070.55254	15424
3072.93868	15421.1
3075.32338	15366.3
3077.70662	15344.7
3080.08842	15299.9
3082.46878	15321.5
3084.84769	15250.5
3087.22515	15269.3
3089.60118	15267.8
3091.97576	15229.3
3094.3489	15221.6
3096.72061	15234.8
3099.09087	15232.7
3101.4597	15214.3
3103.82709	15179.8
3106.19305	15143.9
3108.55757	15151.1
3110.92066	15113.3
3113.28232	15085.5
3115.64255	15049.6
3118.00134	14995.2
3120.35871	14994.7
3122.71466	14990.4
3125.06917	14939
3127.42226	14921.5
3129.77393	14956.4
3132.12417	14910
3134.47299	14894.7
3136.82039	14905.2
3139.16636	14897.4
3141.51092	14899.9
3143.85406	14910.3
3146.19579	14892
3148.53609	14883.5
3150.87499	14894.6
3153.21246	14897.5
3155.54853	14912.5
3157.88318	14891.7
3160.21642	14904.6
3162.54826	14870.8
3164.87868	14870.4
3167.2077	14833.7
3169.5353	14830.8
3171.86151	14821.2
3174.18631	14804.6
3176.5097	14779.6
3178.83169	14731.6
3181.15228	14738.1
3183.47147	14691.5
3185.78926	14736.4
3188.10565	14715.4
3190.42065	14726.6
3192.73424	14705.1
3195.04645	14706
3197.35725	14706.3
3199.66667	14674.2
3201.97469	14700.9
3204.28132	14690
3206.58656	14704.5
3208.8904	14678
3211.19287	14677.4
3213.49394	14678.1
3215.79363	14634
3218.09193	14632.9
3220.38884	14604.6
3222.68438	14626.7
3224.97853	14582.8
3227.2713	14595.7
3229.56269	14592.9
3231.8527	14585.2
3234.14133	14533.5
3236.42858	14509.9
3238.71446	14485.7
3240.99896	14487.2
3243.28209	14463.6
3245.56384	14429.1
3247.84423	14463
3250.12324	14442.4
3252.40088	14425.8
3254.67715	14416.5
3256.95205	14399.4
3259.22558	14371.7
3261.49775	14312.5
3263.76855	14323.2
3266.03799	14284.2
3268.30606	14279.9
3270.57277	14262.8
3272.83812	14229.7
3275.10211	14209.2
3277.36474	14205.5
3279.62601	14192.9
3281.88593	14157.3
3284.14448	14138.4
3286.40168	14144.9
3288.65753	14100.4
3290.91202	14059
3293.16516	14051.1
3295.41695	14005.3
3297.66738	13937.9
3299.91647	13882
3302.16421	13794.1
3304.4106	13721.4
3306.65564	13681.4
3308.89933	13573.7
3311.14169	13498.2
3313.38269	13392.2
3315.62236	13304.7
3317.86068	13217.3
3320.09766	13057.1
3322.3333	12958.8
3324.5676	12946.8
3326.80056	12736.2
3329.03219	12659.8
3331.26248	3.4
3333.49143	0.6
3335.71905	-0.1
