Data from AgNPs_FTO_APTES_UA_10uM_R6G_10uM_NaF_0.1M_Addition_RamanShift__5__13-15-47-302.txt Node

Date: Fri Dec 17 13:15:47 GMT 2021
User: TCL
Spectrometer: QEP01345
Trigger mode: 4
Integration Time (sec): 7.000000E0
Scans to average: 10
Electric dark correction enabled: true
Nonlinearity correction enabled: false
Boxcar width: 0
XAxis mode: Raman Shifts
Number of Pixels in Spectrum: 1044
>>>>>Begin Spectral Data<<<<<
46.04893	-0.8
50.45542	-0.9
54.85868	-2.4
59.25871	0.9
63.6555	95.7
68.04907	100.2
72.43941	100.8
76.82654	110.6
81.21044	113.8
85.59113	117.4
89.96862	122.9
94.34289	121.7
98.71396	123.3
103.08183	130.2
107.4465	140
111.80798	138.4
116.16626	143.2
120.52136	147.8
124.87327	156.2
129.222	163.6
133.56755	175.7
137.90993	191.4
142.24913	212.1
146.58517	235.4
150.91804	271.8
155.24774	322.2
159.57429	398.3
163.89768	510.9
168.21792	673.5
172.53501	926.2
176.84895	1280.5
181.15975	1796.3
185.46741	2528
189.77193	3468.7
194.07331	4666.7
198.37157	6004.6
202.6667	7442.3
206.9587	8855.6
211.24758	10248.6
215.53334	11631.3
219.81599	13090.7
224.09553	14718.9
228.37195	16508.2
232.64527	18463.7
236.91549	20581.1
241.18261	22709.3
245.44663	24740.7
249.70755	26572.8
253.96539	28097.3
258.22014	29384.7
262.4718	30427.2
266.72039	31168.1
270.96589	31471.7
275.20832	31484.7
279.44768	31187
283.68397	30772.2
287.91719	30397.5
292.14735	30111.9
296.37445	29992.2
300.59849	30014
304.81948	30098.6
309.03742	30077.5
313.25231	29898.8
317.46415	29476.5
321.67296	28968.8
325.87872	28576.3
330.08145	28369.9
334.28114	28442.8
338.47781	28721.8
342.67145	29111.4
346.86207	29566.1
351.04966	30127.6
355.23424	30734.2
359.4158	31327.7
363.59435	31802
367.76989	32170.9
371.94243	32394.3
376.11196	32528.5
380.27849	32717.7
384.44203	32933.2
388.60257	33147.5
392.76012	33390.3
396.91468	33741.8
401.06626	34152.4
405.21485	34461.3
409.36047	34401.7
413.50311	34000.8
417.64277	33785.1
421.77947	33706.2
425.9132	33890
430.04396	33986.6
434.17176	34113.2
438.2966	34340.7
442.41849	34743.2
446.53742	35327.2
450.6534	36047.7
454.76644	36602.5
458.87653	36863.1
462.98368	36770.4
467.08789	36378.1
471.18916	35926.4
475.2875	35389
479.38291	34959.7
483.4754	34622.4
487.56496	34476.1
491.6516	34360.7
495.73531	34390.3
499.81612	34492.8
503.89401	34809.6
507.96899	34975.3
512.04106	34998.8
516.11023	34912.8
520.1765	34823.4
524.23987	34695.8
528.30034	34528.6
532.35792	34305.7
536.41261	34038.5
540.46441	33716.8
544.51333	33589.6
548.55936	33757.3
552.60252	34133.5
556.64279	34591.6
560.6802	34905.9
564.71473	35009.2
568.7464	35179.6
572.7752	35607.8
576.80114	36056
580.82422	36723.7
584.84444	37620.8
588.86181	38499.1
592.87633	39046.9
596.888	38910.6
600.89682	38487.6
604.9028	39488
608.90594	42438.5
612.90624	45653.4
616.90371	43745.9
620.89834	38290.7
624.89015	35745.1
628.87913	35305.6
632.86528	35334.1
636.84862	35300.7
640.82913	34998.8
644.80683	34352.3
648.78172	33942.4
652.75379	33858.5
656.72306	34197
660.68952	34691.4
664.65319	34592.6
668.61405	34192.7
672.57211	34186.7
676.52738	34446.7
680.47986	34425.5
684.42955	34187
688.37646	34085.2
692.32058	34370.7
696.26192	34764.1
700.20048	35239.1
704.13626	35351
708.06928	35112.7
711.99952	34820.4
715.927	34818.8
719.85171	34959.8
723.77365	34945.2
727.69284	34534.2
731.60928	34133.5
735.52295	33952.7
739.43388	33981.9
743.34206	34124.2
747.24749	34246.3
751.15017	34408.9
755.05012	34708
758.94733	35337.1
762.8418	36487.1
766.73354	38298.1
770.62254	40189
774.50882	40938.3
778.39237	40149.4
782.27321	38342.1
786.15132	36608.8
790.02671	35566.5
793.89938	35042.3
797.76935	34858.6
801.6366	34737
805.50115	34629.8
809.36299	34462.5
813.22213	34216.9
817.07857	33988.9
820.93231	33925.5
824.78336	33815.4
828.63172	33800.6
832.47738	33838.9
836.32036	33921.9
840.16066	34011.5
843.99827	34145.9
847.8332	34111.8
851.66546	33996.9
855.49504	33984.3
859.32195	33993.7
863.1462	33974.1
866.96777	33959.6
870.78668	33934.8
874.60293	34028.6
878.41652	34128.4
882.22745	34214.2
886.03573	34399.1
889.84136	34457.7
893.64433	34370.7
897.44466	34158
901.24235	34004.1
905.0374	33913.4
908.8298	33864
912.61957	33884
916.40671	33975.9
920.19121	34216.1
923.97308	34562.8
927.75233	34754.6
931.52895	34762.7
935.30295	34541.1
939.07433	34129.1
942.84309	33811.6
946.60924	33684.7
950.37278	33601
954.13371	33512
957.89203	33344.5
961.64774	33287.5
965.40086	33263.5
969.15137	33253.4
972.89929	33281.7
976.64461	33322
980.38733	33451.1
984.12747	33606.1
987.86502	33813.9
991.59999	34124.2
995.33237	34546.6
999.06217	35209.8
1002.78939	36067.9
1006.51404	36667.2
1010.23611	37102
1013.95561	37329
1017.67255	37341
1021.38692	36950.1
1025.09872	36687.1
1028.80796	36803.6
1032.51465	37552.2
1036.21877	38344.2
1039.92035	38616.1
1043.61937	38286.4
1047.31584	37556
1051.00976	36825.6
1054.70114	36309.1
1058.38998	36271
1062.07627	36481.6
1065.76003	36723.1
1069.44126	37082.4
1073.11995	37627.6
1076.79611	38206.3
1080.46974	38555.6
1084.14085	38667.8
1087.80943	38756.7
1091.47549	38748.4
1095.13903	38582.1
1098.80005	38096.1
1102.45857	37541.6
1106.11456	37153.1
1109.76805	36936.8
1113.41903	36911.5
1117.06751	36896.1
1120.71348	37049.5
1124.35696	37261.1
1127.99793	37572.7
1131.63641	37782.2
1135.2724	37627.1
1138.90589	37423.8
1142.5369	37210.9
1146.16542	37112.9
1149.79145	37071.1
1153.415	37034.8
1157.03607	37176.5
1160.65467	37688.2
1164.27079	38733
1167.88443	40104.3
1171.49561	41696.2
1175.10432	43660.6
1178.71056	46379.2
1182.31434	49137.6
1185.91565	50910.5
1189.51451	51334.7
1193.11091	50558
1196.70485	49030.2
1200.29634	47310.1
1203.88538	46052.6
1207.47197	45086.3
1211.05612	44219
1214.63782	43432.4
1218.21708	42686.8
1221.79391	42191
1225.36829	41889.2
1228.94024	41504.4
1232.50976	41135.9
1236.07685	40765.6
1239.6415	40530.8
1243.20374	40573.4
1246.76355	40865.7
1250.32093	41464.7
1253.8759	42231.1
1257.42845	43203.5
1260.97859	44256.1
1264.52631	45438
1268.07163	46789.2
1271.61453	48089.1
1275.15503	49246.9
1278.69312	50154.4
1282.22882	50500
1285.76211	50786.2
1289.29301	51231.7
1292.82151	52201.2
1296.34761	53568.5
1299.87133	55731.4
1303.39266	58373
1306.9116	61428.1
1310.42815	64013.5
1313.94233	65305.9
1317.45412	64731.5
1320.96354	63284.4
1324.47058	61896.7
1327.97525	60792.7
1331.47754	60088.4
1334.97747	59833.3
1338.47502	59836.3
1341.97022	59739
1345.46305	59630.2
1348.95352	59588.9
1352.44163	59908.4
1355.92738	61054.5
1359.41078	62960.4
1362.89183	64599.6
1366.37053	63433.7
1369.84688	59085.7
1373.32088	53970.5
1376.79254	50268.9
1380.26186	48512.9
1383.72883	48023.7
1387.19347	47690.7
1390.65578	47112.5
1394.11575	46644.3
1397.57339	46582
1401.0287	46759.7
1404.48168	47128.4
1407.93234	47516.8
1411.38068	47506.7
1414.82669	47088.3
1418.27039	46183.1
1421.71177	45218.9
1425.15083	44531.9
1428.58758	44448.9
1432.02203	45048.9
1435.45416	45965.7
1438.88399	46859.8
1442.31151	47438
1445.73673	47454.3
1449.15965	47383.8
1452.58027	47266.8
1455.9986	47038.4
1459.41463	47179.1
1462.82837	47917.4
1466.23982	48711.8
1469.64898	49455.5
1473.05586	49824
1476.46045	49927.8
1479.86276	49636.4
1483.26279	49375.2
1486.66054	49392.9
1490.05602	49745.4
1493.44922	50189.4
1496.84016	50596.8
1500.22882	51361.3
1503.61521	52676.8
1506.99934	54202.9
1510.38121	55328.9
1513.76081	55424.2
1517.13816	54032.3
1520.51324	51822.2
1523.88607	49884.8
1527.25665	48707
1530.62498	48291.7
1533.99105	48042.9
1537.35488	47835.1
1540.71647	47425.1
1544.07581	46987.5
1547.4329	46570.8
1550.78776	46170.2
1554.14038	45848.2
1557.49077	45682.8
1560.83892	45567.8
1564.18484	45572.7
1567.52853	45682.3
1570.86999	45913.9
1574.20922	46474.4
1577.54624	46917.2
1580.88103	47010.2
1584.2136	47054.9
1587.54395	47735.7
1590.87208	49302.1
1594.19801	51735
1597.52172	54056
1600.84321	54952.6
1604.16251	53444.9
1607.47959	50434.8
1610.79447	47177.2
1614.10715	44089.4
1617.41763	41543.8
1620.7259	39788.7
1624.03199	39009
1627.33587	39096.1
1630.63757	39871.5
1633.93707	41583.2
1637.23439	44251.5
1640.52951	48112
1643.82246	52249.6
1647.11321	55204.1
1650.40179	55172.8
1653.68819	51882.5
1656.97241	46607.3
1660.25446	41787.7
1663.53433	38350.7
1666.81203	36330.9
1670.08756	34975.6
1673.36092	34156.7
1676.63211	33601.4
1679.90115	33217.1
1683.16801	32863.5
1686.43272	32625.8
1689.69527	32467.7
1692.95567	32374.6
1696.2139	32268.3
1699.46999	32224.1
1702.72392	32210.9
1705.97571	32145.9
1709.22535	32134.6
1712.47284	32081.2
1715.71819	32074.7
1718.96139	32046.7
1722.20246	31968.9
1725.44139	31850.8
1728.67818	31719
1731.91284	31608.8
1735.14537	31541.7
1738.37576	31402.9
1741.60403	31307.9
1744.83017	31193.1
1748.05418	31170.8
1751.27607	31111.8
1754.49584	31084.1
1757.71349	31057.3
1760.92903	31071.3
1764.14244	31059.3
1767.35375	31051.2
1770.56294	31010.4
1773.77002	31024.7
1776.97499	30973.8
1780.17785	30904.7
1783.37861	30900.3
1786.57727	30836.5
1789.77382	30830.1
1792.96828	30764.1
1796.16064	30737.5
1799.3509	30732.9
1802.53907	30665.7
1805.72514	30600
1808.90913	30531.6
1812.09102	30517
1815.27083	30457.5
1818.44856	30441.6
1821.6242	30393.7
1824.79776	30395.3
1827.96924	30420.7
1831.13864	30329.4
1834.30597	30398.2
1837.47122	30433.7
1840.6344	30455.9
1843.7955	30483.8
1846.95454	30451
1850.11151	30427.6
1853.26642	30381
1856.41926	30392
1859.57004	30359.8
1862.71876	30359.5
1865.86542	30312.2
1869.01003	30282.8
1872.15258	30274.6
1875.29308	30241.6
1878.43152	30220.6
1881.56792	30188.4
1884.70227	30185.2
1887.83457	30193.2
1890.96482	30112.5
1894.09304	30069.2
1897.21921	30050.9
1900.34335	30034.1
1903.46544	29988
1906.58551	29940.2
1909.70353	29904.4
1912.81953	29829.2
1915.93349	29815.9
1919.04543	29758.6
1922.15534	29741.2
1925.26322	29650.4
1928.36908	29589.5
1931.47292	29535
1934.57473	29499.5
1937.67453	29381.9
1940.77232	29298.2
1943.86808	29303
1946.96184	29226.1
1950.05358	29157.6
1953.14331	29067.8
1956.23103	28965.4
1959.31675	28966.7
1962.40046	28840.3
1965.48217	28776.6
1968.56188	28732
1971.63959	28640
1974.7153	28598
1977.78901	28503.4
1980.86073	28420.2
1983.93046	28360.3
1986.99819	28277.1
1990.06394	28196.4
1993.1277	28120.3
1996.18947	28015.4
1999.24925	27951.6
2002.30706	27903.9
2005.36288	27826.1
2008.41672	27777.7
2011.46859	27732.8
2014.51848	27642.9
2017.56639	27580.9
2020.61233	27553.2
2023.6563	27467.1
2026.6983	27406.5
2029.73833	27382.1
2032.7764	27349
2035.8125	27291.2
2038.84664	27239.7
2041.87881	27245.4
2044.90903	27169.9
2047.93729	27150
2050.96359	27086.2
2053.98794	27057.2
2057.01034	27098.6
2060.03078	27042.6
2063.04927	26961.9
2066.06582	27035.7
2069.08042	27041.1
2072.09307	27035.5
2075.10378	26930.6
2078.11255	26922
2081.11938	26964.2
2084.12426	26929.6
2087.12722	26964.7
2090.12824	26907.5
2093.12732	26935.2
2096.12447	26982.5
2099.11969	26957
2102.11299	26971.4
2105.10435	26979.8
2108.09379	27044
2111.08131	27045.8
2114.0669	27055.7
2117.05057	27089.1
2120.03233	27078.9
2123.01216	27154.4
2125.99008	27171.6
2128.96609	27207.3
2131.94018	27186.1
2134.91236	27263.8
2137.88263	27283.2
2140.851	27299.1
2143.81746	27350.3
2146.78201	27377.2
2149.74466	27357
2152.7054	27334.5
2155.66425	27385.9
2158.6212	27336.7
2161.57625	27344.4
2164.52941	27342.9
2167.48067	27344.5
2170.43004	27365.6
2173.37752	27319.6
2176.32311	27373.5
2179.26681	27402.5
2182.20863	27367.5
2185.14856	27391.6
2188.08661	27349.3
2191.02278	27371.3
2193.95707	27353.3
2196.88948	27315.1
2199.82001	27358.8
2202.74867	27316.6
2205.67545	27324.4
2208.60037	27298.3
2211.52341	27295.2
2214.44458	27247.6
2217.36388	27205.7
2220.28132	27198.6
2223.1969	27110.7
2226.11061	27111.1
2229.02246	27047.6
2231.93245	27032.3
2234.84058	26937.5
2237.74686	26948.6
2240.65128	26898.2
2243.55385	26858.2
2246.45456	26869.7
2249.35343	26833.9
2252.25044	26749.6
2255.14561	26773.8
2258.03893	26704.4
2260.93041	26628.5
2263.82004	26657.1
2266.70783	26586.6
2269.59378	26541.5
2272.4779	26508.9
2275.36017	26435.9
2278.24061	26433.6
2281.11922	26328.5
2283.996	26308
2286.87094	26279.5
2289.74405	26260.5
2292.61534	26221.3
2295.4848	26257.6
2298.35243	26269
2301.21824	26234.5
2304.08223	26269.3
2306.94439	26258
2309.80474	26255.7
2312.66327	26304.4
2315.51999	26255.3
2318.37489	26237.6
2321.22797	26218.5
2324.07925	26231.9
2326.92871	26141.4
2329.77637	26123.4
2332.62222	26070.4
2335.46626	26057.8
2338.3085	26083.8
2341.14893	26101.1
2343.98756	26055.5
2346.8244	26044
2349.65943	26055.4
2352.49267	26014.7
2355.32411	26031.8
2358.15376	25992.5
2360.98161	25933.7
2363.80768	25902.9
2366.63195	25898.3
2369.45444	25824.7
2372.27514	25840.1
2375.09405	25798.2
2377.91118	25730.3
2380.72652	25703.2
2383.54009	25669.1
2386.35187	25624.1
2389.16188	25595.5
2391.97011	25553
2394.77657	25527.5
2397.58125	25511.7
2400.38416	25482.1
2403.18529	25422.2
2405.98466	25389.6
2408.78226	25298.9
2411.57809	25290.6
2414.37216	25276.6
2417.16446	25301.1
2419.955	25257.4
2422.74378	25269.3
2425.5308	25212
2428.31606	25201.9
2431.09956	25221.5
2433.88131	25124
2436.6613	25165.7
2439.43954	25127
2442.21603	25156.2
2444.99077	25112.5
2447.76377	25145.1
2450.53501	25085
2453.30451	25072.7
2456.07226	25067.1
2458.83827	25071
2461.60254	25070.4
2464.36507	25035.9
2467.12586	25043.6
2469.88492	25029.8
2472.64224	25028.6
2475.39782	25032.7
2478.15167	25014.9
2480.90379	24979.7
2483.65417	25000.8
2486.40283	25008.4
2489.14976	25015.4
2491.89497	24986.1
2494.63845	24999.6
2497.3802	24984.3
2500.12024	24970.1
2502.85855	24939.1
2505.59514	24900.5
2508.33002	24935.3
2511.06318	24906.8
2513.79462	24879.2
2516.52435	24877.4
2519.25237	24934.1
2521.97867	24858.3
2524.70327	24823.6
2527.42616	24815.9
2530.14734	24812.8
2532.86681	24794.7
2535.58458	24773.9
2538.30065	24749.3
2541.01501	24733.9
2543.72768	24663.6
2546.43864	24679.3
2549.14791	24644.9
2551.85548	24598.9
2554.56136	24594.1
2557.26554	24550.8
2559.96803	24561.2
2562.66883	24495.2
2565.36794	24531.7
2568.06536	24525.1
2570.7611	24465.6
2573.45514	24450.3
2576.14751	24491
2578.83819	24386.5
2581.52719	24379.4
2584.21451	24338.3
2586.90015	24365.8
2589.58411	24324.8
2592.2664	24310.7
2594.94701	24290.2
2597.62594	24259.9
2600.30321	24187.8
2602.9788	24172.6
2605.65273	24132.4
2608.32498	24126.6
2610.99557	24120.9
2613.66449	24101.7
2616.33175	24070.5
2618.99734	24049.4
2621.66128	24079.4
2624.32355	24004.1
2626.98416	23983
2629.64311	24028.4
2632.30041	24021.4
2634.95605	23952.9
2637.61004	23911.9
2640.26238	23917.1
2642.91306	23914.5
2645.56209	23886.8
2648.20948	23881.6
2650.85521	23852.3
2653.4993	23838.4
2656.14175	23846.5
2658.78255	23873.8
2661.42171	23838.4
2664.05923	23886.8
2666.6951	23887.5
2669.32934	23855.4
2671.96194	23896.4
2674.59291	23864.6
2677.22224	23857.3
2679.84993	23875
2682.476	23865
2685.10043	23894.1
2687.72324	23822.8
2690.34441	23832.2
2692.96396	23811
2695.58188	23862.1
2698.19818	23856.6
2700.81285	23809.7
2703.4259	23841.4
2706.03733	23875.8
2708.64714	23870
2711.25533	23937.2
2713.86191	23881.6
2716.46687	23886.9
2719.07021	23870.6
2721.67194	23895.2
2724.27206	23873.7
2726.87057	23924.1
2729.46747	23904.2
2732.06276	23908.9
2734.65644	23924.4
2737.24852	23878.7
2739.83899	23857.9
2742.42786	23899.2
2745.01513	23843.4
2747.60079	23843.4
2750.18486	23816.9
2752.76733	23866.5
2755.3482	23820.9
2757.92747	23789.6
2760.50515	23766.7
2763.08123	23777.4
2765.65573	23727.1
2768.22863	23727.8
2770.79994	23717.6
2773.36967	23701.5
2775.9378	23694.4
2778.50435	23649.3
2781.06932	23628.6
2783.6327	23602.4
2786.1945	23606.3
2788.75471	23584.9
2791.31335	23501.7
2793.87041	23464.5
2796.42589	23370.1
2798.97979	23420.7
2801.53212	23326.8
2804.08288	23348.3
2806.63206	23257.1
2809.17967	23249.8
2811.72571	23204.6
2814.27018	23191.9
2816.81308	23158.7
2819.35442	23119.4
2821.89419	23064.1
2824.43239	23056
2826.96904	22992.9
2829.50412	23033.3
2832.03763	22984.8
2834.56959	22952.1
2837.1	22896.8
2839.62884	22934.6
2842.15613	22905.9
2844.68186	22925
2847.20604	22931.6
2849.72867	22954.7
2852.24974	22934.6
2854.76927	22897.3
2857.28724	22882.8
2859.80367	22840.7
2862.31855	22819.8
2864.83189	22819.1
2867.34368	22768.1
2869.85393	22794.1
2872.36264	22790.6
2874.8698	22781.8
2877.37543	22823.1
2879.87952	22816.3
2882.38207	22829.4
2884.88308	22830.6
2887.38256	22851.3
2889.88051	22847.3
2892.37692	22871.1
2894.8718	22830.9
2897.36515	22897.1
2899.85698	22877.6
2902.34727	22942.9
2904.83604	22979.7
2907.32328	22966.2
2909.809	22926.5
2912.29319	22996.8
2914.77587	22958.7
2917.25702	22941.4
2919.73665	22887.6
2922.21476	22920
2924.69136	22902.5
2927.16644	22856.6
2929.64	22879.9
2932.11205	22814.1
2934.58258	22776.8
2937.05161	22813.7
2939.51912	22814
2941.98513	22787
2944.44962	22740.4
2946.91261	22640.4
2949.37409	22725.2
2951.83407	22722
2954.29254	22674
2956.74951	22667.7
2959.20498	22617.3
2961.65895	22585.3
2964.11142	22597.8
2966.56239	22539.1
2969.01186	22532.7
2971.45984	22472.1
2973.90632	22435
2976.35131	22419.8
2978.7948	22385.9
2981.23681	22323.9
2983.67732	22269.9
2986.11635	22233
2988.55388	22143.5
2990.98993	22163
2993.4245	22128.3
2995.85758	22084.3
2998.28917	22049
3000.71928	22037.3
3003.14791	21983.8
3005.57506	21956.3
3008.00073	21951.6
3010.42493	21912.4
3012.84764	21854.9
3015.26888	21870.9
3017.68865	21813.1
3020.10694	21846.6
3022.52376	21796.3
3024.9391	21778.7
3027.35298	21741.3
3029.76539	21690.8
3032.17632	21624.3
3034.5858	21621.3
3036.9938	21614.7
3039.40034	21567.9
3041.80542	21571
3044.20903	21495.6
3046.61118	21501.4
3049.01187	21464.5
3051.4111	21446.5
3053.80888	21384.1
3056.20519	21365.6
3058.60005	21341.3
3060.99345	21337.8
3063.3854	21322.3
3065.7759	21216.1
3068.16494	21176.3
3070.55254	21142.7
3072.93868	21095.4
3075.32338	21042
3077.70662	21058.7
3080.08842	21002.1
3082.46878	21005.4
3084.84769	20962.7
3087.22515	20960.4
3089.60118	20941.6
3091.97576	20948.5
3094.3489	20895.5
3096.72061	20932.2
3099.09087	20943.6
3101.4597	20885.5
3103.82709	20889.8
3106.19305	20864.8
3108.55757	20875.8
3110.92066	20794.9
3113.28232	20803.2
3115.64255	20715.6
3118.00134	20667.7
3120.35871	20638.5
3122.71466	20597.3
3125.06917	20595.8
3127.42226	20537.9
3129.77393	20525.3
3132.12417	20511.8
3134.47299	20565.5
3136.82039	20508.2
3139.16636	20541.4
3141.51092	20501.6
3143.85406	20514.2
3146.19579	20544.2
3148.53609	20549.5
3150.87499	20560.8
3153.21246	20522.9
3155.54853	20599.5
3157.88318	20487
3160.21642	20498
3162.54826	20501.5
3164.87868	20482.3
3167.2077	20456.2
3169.5353	20473.2
3171.86151	20476.7
3174.18631	20421.4
3176.5097	20440.7
3178.83169	20370.8
3181.15228	20376.4
3183.47147	20309.5
3185.78926	20330.4
3188.10565	20313.2
3190.42065	20307
3192.73424	20336.2
3195.04645	20303.7
3197.35725	20267.8
3199.66667	20289.7
3201.97469	20331.8
3204.28132	20322.7
3206.58656	20301.8
3208.8904	20314.2
3211.19287	20356.9
3213.49394	20337.7
3215.79363	20308.3
3218.09193	20342.1
3220.38884	20321.4
3222.68438	20306.5
3224.97853	20248.5
3227.2713	20222
3229.56269	20230.8
3231.8527	20194.7
3234.14133	20183.8
3236.42858	20136.4
3238.71446	20102.4
3240.99896	20065.4
3243.28209	20116.2
3245.56384	20091.3
3247.84423	20109.6
3250.12324	20052
3252.40088	20060.6
3254.67715	20055.2
3256.95205	20042.4
3259.22558	20010.2
3261.49775	19972.6
3263.76855	19966.1
3266.03799	19901.9
3268.30606	19877
3270.57277	19859.3
3272.83812	19803
3275.10211	19799.7
3277.36474	19773.8
3279.62601	19775.5
3281.88593	19753.4
3284.14448	19736.7
3286.40168	19706.5
3288.65753	19718.8
3290.91202	19671
3293.16516	19594.8
3295.41695	19579.2
3297.66738	19448.5
3299.91647	19372.9
3302.16421	19257.1
3304.4106	19191.4
3306.65564	19141.3
3308.89933	19007.9
3311.14169	18873.8
3313.38269	18742.2
3315.62236	18664
3317.86068	18489.1
3320.09766	18334.4
3322.3333	18206.6
3324.5676	18205.6
3326.80056	17910.7
3329.03219	17823.8
3331.26248	4.5
3333.49143	1.1
3335.71905	-1.2
