Data from AgNPs_FTO_APTES_UA_50uM_CRN_100uM_R6G_10uM_NaF_0.1M_Addition_RamanShift__30__15-50-55-056.txt Node

Date: Mon Feb 21 15:50:55 GMT 2022
User: TCL
Spectrometer: QEP01345
Trigger mode: 4
Integration Time (sec): 7.000000E0
Scans to average: 10
Electric dark correction enabled: true
Nonlinearity correction enabled: false
Boxcar width: 0
XAxis mode: Raman Shifts
Number of Pixels in Spectrum: 1044
>>>>>Begin Spectral Data<<<<<
46.04893	0.3
50.45542	-0.4
54.85868	-0.8
59.25871	-0.7
63.6555	35.5
68.04907	42.5
72.43941	42.4
76.82654	45.2
81.21044	47.2
85.59113	48.7
89.96862	51.4
94.34289	57.4
98.71396	55.9
103.08183	61.5
107.4465	59.1
111.80798	60
116.16626	58.7
120.52136	58.8
124.87327	67.7
129.222	66.1
133.56755	65
137.90993	74.7
142.24913	78.5
146.58517	84.1
150.91804	91.8
155.24774	108.2
159.57429	128.8
163.89768	170.9
168.21792	219.5
172.53501	292.7
176.84895	408.1
181.15975	557.9
185.46741	788.6
189.77193	1085.1
194.07331	1459.5
198.37157	1871
202.6667	2308.2
206.9587	2750.6
211.24758	3194.2
215.53334	3695.2
219.81599	4282.8
224.09553	4909.9
228.37195	5647.7
232.64527	6456.6
236.91549	7227.8
241.18261	7892.4
245.44663	8413.1
249.70755	8788.7
253.96539	9048.9
258.22014	9218.9
262.4718	9336.9
266.72039	9427.7
270.96589	9457.9
275.20832	9315.1
279.44768	9079.8
283.68397	8821.6
287.91719	8681.3
292.14735	8789.9
296.37445	9212.7
300.59849	9986.2
304.81948	10827.1
309.03742	11484.3
313.25231	11551.3
317.46415	10732.9
321.67296	9413.8
325.87872	8361.2
330.08145	7873.7
334.28114	7851.1
338.47781	8088.8
342.67145	8485.2
346.86207	9111
351.04966	10056.9
355.23424	11142.3
359.4158	11902.5
363.59435	12223.1
367.76989	12249.3
371.94243	12103.7
376.11196	11968.5
380.27849	11767.4
384.44203	11456.7
388.60257	11100.1
392.76012	10832.7
396.91468	10869.1
401.06626	11256.9
405.21485	11512.1
409.36047	11030.6
413.50311	10000.7
417.64277	8958.1
421.77947	8368.8
425.9132	8058
430.04396	7959.8
434.17176	7964.9
438.2966	8119.9
442.41849	8412
446.53742	8747.7
450.6534	9023.5
454.76644	9167.8
458.87653	9148.6
462.98368	8993.9
467.08789	8772.6
471.18916	8463
475.2875	8143.4
479.38291	7877.6
483.4754	7703.1
487.56496	7571
491.6516	7513.7
495.73531	7507.3
499.81612	7587.7
503.89401	7774.8
507.96899	8031.3
512.04106	8361.8
516.11023	8736.1
520.1765	9024.7
524.23987	8978.8
528.30034	8675.2
532.35792	8327.7
536.41261	7985.2
540.46441	7621.3
544.51333	7432.3
548.55936	7443.1
552.60252	7690.1
556.64279	8015.1
560.6802	8154.9
564.71473	8454.4
568.7464	9160.7
572.7752	9467.1
576.80114	8786.2
580.82422	7999.1
584.84444	7634.7
588.86181	7551.5
592.87633	7582.4
596.888	7740.6
600.89682	8294.5
604.9028	10238.8
608.90594	15639.2
612.90624	23066.1
616.90371	22024.3
620.89834	12980.3
624.89015	8808.9
628.87913	8059.2
632.86528	8188.6
636.84862	8519
640.82913	8353.2
644.80683	7681.1
648.78172	7234.3
652.75379	7295.1
656.72306	7899.3
660.68952	8664
664.65319	8438.5
668.61405	7569
672.57211	7144
676.52738	7103
680.47986	7147
684.42955	7019.6
688.37646	6948.7
692.32058	6928.7
696.26192	7017.1
700.20048	7133.7
704.13626	7249
708.06928	7172.3
711.99952	7086.7
715.927	7096.6
719.85171	7180.6
723.77365	7236.5
727.69284	7192.7
731.60928	7096
735.52295	7092.2
739.43388	7138.3
743.34206	7157.8
747.24749	7183.2
751.15017	7194.5
755.05012	7432.6
758.94733	8066.8
762.8418	9736.1
766.73354	12567.9
770.62254	15615.3
774.50882	17463.6
778.39237	16859.8
782.27321	13627.9
786.15132	10294.2
790.02671	8446.2
793.89938	7685.6
797.76935	7358.6
801.6366	7249.9
805.50115	7182.2
809.36299	7154
813.22213	7100.6
817.07857	7090.5
820.93231	7042.7
824.78336	7071.3
828.63172	7138.3
832.47738	7167.6
836.32036	7117.2
840.16066	7032
843.99827	6942.7
847.8332	6928.1
851.66546	6919.6
855.49504	6929.2
859.32195	6922.9
863.1462	6869.6
866.96777	6834
870.78668	6834.6
874.60293	6871.9
878.41652	6938.2
882.22745	7050.1
886.03573	7141.8
889.84136	7083.3
893.64433	7027.2
897.44466	7011
901.24235	7010.3
905.0374	6964.1
908.8298	6871.4
912.61957	6807.9
916.40671	6806.4
920.19121	6849.4
923.97308	6941.5
927.75233	7140.8
931.52895	7375.2
935.30295	7273.5
939.07433	6952.3
942.84309	6593.1
946.60924	6405.4
950.37278	6317.2
954.13371	6263.3
957.89203	6236.6
961.64774	6232.7
965.40086	6202.6
969.15137	6190.5
972.89929	6163.1
976.64461	6183.3
980.38733	6170.2
984.12747	6183.2
987.86502	6209.9
991.59999	6253.2
995.33237	6343.7
999.06217	6477.3
1002.78939	6675.7
1006.51404	6872.4
1010.23611	7104.9
1013.95561	7255.2
1017.67255	7219.8
1021.38692	7099.1
1025.09872	6951.1
1028.80796	6846.3
1032.51465	6878
1036.21877	6976.5
1039.92035	7062.7
1043.61937	7104.3
1047.31584	7126.5
1051.00976	7089
1054.70114	7003.6
1058.38998	6958.4
1062.07627	6983.2
1065.76003	7003.5
1069.44126	7009.1
1073.11995	7124.7
1076.79611	7291.3
1080.46974	7622.3
1084.14085	8070.6
1087.80943	8509.5
1091.47549	8642.1
1095.13903	8307.5
1098.80005	7808.4
1102.45857	7437.8
1106.11456	7395.9
1109.76805	7587.3
1113.41903	8006.7
1117.06751	8660.6
1120.71348	9477.5
1124.35696	10368.1
1127.99793	10983.4
1131.63641	10617.3
1135.2724	9592.5
1138.90589	8691.4
1142.5369	8171
1146.16542	7780.7
1149.79145	7598.9
1153.415	7509.8
1157.03607	7604.3
1160.65467	7813.1
1164.27079	8234.6
1167.88443	8892.6
1171.49561	10022.1
1175.10432	12040.4
1178.71056	14731.4
1182.31434	16619.5
1185.91565	16805.9
1189.51451	15725.3
1193.11091	14034.9
1196.70485	12366.5
1200.29634	11339.9
1203.88538	10612.6
1207.47197	9618.5
1211.05612	8702
1214.63782	8189.7
1218.21708	7942.2
1221.79391	7883
1225.36829	7870
1228.94024	7940.6
1232.50976	7910
1236.07685	7949.2
1239.6415	8023.7
1243.20374	8128
1246.76355	8218.4
1250.32093	8360.6
1253.8759	8564.6
1257.42845	8929.1
1260.97859	9352.1
1264.52631	9803.1
1268.07163	10260.2
1271.61453	10663.7
1275.15503	10873
1278.69312	10916.8
1282.22882	10922.9
1285.76211	11262.4
1289.29301	11781.3
1292.82151	12326.7
1296.34761	12893.9
1299.87133	13965.4
1303.39266	15960.2
1306.9116	19097.3
1310.42815	22370.8
1313.94233	23531.7
1317.45412	21870.1
1320.96354	18857.7
1324.47058	15954.5
1327.97525	13692.3
1331.47754	12461.5
1334.97747	12083.5
1338.47502	12346.2
1341.97022	13238.7
1345.46305	14734.1
1348.95352	16841.2
1352.44163	19460.8
1355.92738	23207.1
1359.41078	28631.5
1362.89183	32926
1366.37053	30627.8
1369.84688	24069.4
1373.32088	18314.4
1376.79254	14639.3
1380.26186	12715.3
1383.72883	11601.4
1387.19347	10819.4
1390.65578	10018
1394.11575	9392.2
1397.57339	9068.5
1401.0287	8985.6
1404.48168	8989
1407.93234	9092.8
1411.38068	9260.3
1414.82669	9444.9
1418.27039	9514.6
1421.71177	9487.5
1425.15083	9331.3
1428.58758	9281.1
1432.02203	9403.8
1435.45416	9545
1438.88399	9533.9
1442.31151	9480.3
1445.73673	9492.4
1449.15965	9570.4
1452.58027	9497.3
1455.9986	9355.6
1459.41463	9297.8
1462.82837	9410.7
1466.23982	9712.4
1469.64898	9987.7
1473.05586	10184.6
1476.46045	10337.1
1479.86276	10618.8
1483.26279	11098.6
1486.66054	11669.9
1490.05602	12481
1493.44922	13679
1496.84016	15640.9
1500.22882	18809.8
1503.61521	23000.5
1506.99934	27647.2
1510.38121	31451.8
1513.76081	32249.6
1517.13816	28984.6
1520.51324	23365.3
1523.88607	18308.5
1527.25665	15068.6
1530.62498	13299.3
1533.99105	12265.6
1537.35488	11615.1
1540.71647	11359.2
1544.07581	11355.8
1547.4329	11439.6
1550.78776	11588.8
1554.14038	11765.4
1557.49077	11971.2
1560.83892	12408.2
1564.18484	13104.5
1567.52853	13985.7
1570.86999	14691
1574.20922	15051.5
1577.54624	14775.1
1580.88103	13428.6
1584.2136	11654.8
1587.54395	10603.5
1590.87208	10441.2
1594.19801	11057.3
1597.52172	12090.4
1600.84321	12567.5
1604.16251	12048.3
1607.47959	11177.6
1610.79447	10283.4
1614.10715	9364.2
1617.41763	8660.9
1620.7259	8215.1
1624.03199	8039.3
1627.33587	8089.6
1630.63757	8344.5
1633.93707	8844.4
1637.23439	9700.1
1640.52951	11106.3
1643.82246	13376.5
1647.11321	16347.5
1650.40179	18671.6
1653.68819	18083.4
1656.97241	14906.9
1660.25446	11536.1
1663.53433	9262
1666.81203	8026.9
1670.08756	7368
1673.36092	6973
1676.63211	6709.4
1679.90115	6550.5
1683.16801	6416.3
1686.43272	6308.1
1689.69527	6224.5
1692.95567	6107.3
1696.2139	5995.7
1699.46999	5881.8
1702.72392	5839.5
1705.97571	5897.1
1709.22535	5989.3
1712.47284	6073.8
1715.71819	6120.5
1718.96139	6164.8
1722.20246	6140.5
1725.44139	6094.3
1728.67818	6037.4
1731.91284	5960.9
1735.14537	5884.2
1738.37576	5840.7
1741.60403	5806
1744.83017	5760.6
1748.05418	5724.3
1751.27607	5659.8
1754.49584	5615.2
1757.71349	5546.3
1760.92903	5505
1764.14244	5490.3
1767.35375	5476.6
1770.56294	5440
1773.77002	5424.9
1776.97499	5443.8
1780.17785	5465.3
1783.37861	5482.5
1786.57727	5488
1789.77382	5480.2
1792.96828	5489
1796.16064	5481.6
1799.3509	5471.5
1802.53907	5460.9
1805.72514	5433.7
1808.90913	5409.7
1812.09102	5390
1815.27083	5354.8
1818.44856	5364.4
1821.6242	5344.7
1824.79776	5333.2
1827.96924	5324.8
1831.13864	5315.3
1834.30597	5300.3
1837.47122	5316.3
1840.6344	5291.5
1843.7955	5282.9
1846.95454	5259.4
1850.11151	5266.2
1853.26642	5251.4
1856.41926	5254.2
1859.57004	5243.9
1862.71876	5247.6
1865.86542	5231.2
1869.01003	5252.9
1872.15258	5251.4
1875.29308	5237.5
1878.43152	5257.4
1881.56792	5255.8
1884.70227	5247.6
1887.83457	5243.5
1890.96482	5234.1
1894.09304	5229.9
1897.21921	5229.6
1900.34335	5220.3
1903.46544	5229.2
1906.58551	5217
1909.70353	5224.5
1912.81953	5226.5
1915.93349	5223.6
1919.04543	5211.2
1922.15534	5203.2
1925.26322	5179.4
1928.36908	5174
1931.47292	5144.4
1934.57473	5132
1937.67453	5116.4
1940.77232	5083
1943.86808	5072.2
1946.96184	5055.6
1950.05358	5026.3
1953.14331	5027.9
1956.23103	4999.2
1959.31675	4990.8
1962.40046	4992.6
1965.48217	4988.5
1968.56188	4982.9
1971.63959	4958.9
1974.7153	4959.1
1977.78901	4951.1
1980.86073	4930.3
1983.93046	4896.6
1986.99819	4863.7
1990.06394	4860.6
1993.1277	4835.4
1996.18947	4833.5
1999.24925	4786.9
2002.30706	4777.4
2005.36288	4766.1
2008.41672	4746.2
2011.46859	4722.8
2014.51848	4704.5
2017.56639	4701.6
2020.61233	4683.8
2023.6563	4668.9
2026.6983	4661
2029.73833	4651.8
2032.7764	4618.9
2035.8125	4619.5
2038.84664	4614
2041.87881	4611.8
2044.90903	4604.6
2047.93729	4591.5
2050.96359	4598.1
2053.98794	4588.9
2057.01034	4584.3
2060.03078	4586.3
2063.04927	4572.7
2066.06582	4563.7
2069.08042	4538.8
2072.09307	4539.4
2075.10378	4531.3
2078.11255	4535.2
2081.11938	4540.2
2084.12426	4536.4
2087.12722	4521.1
2090.12824	4514.3
2093.12732	4513.3
2096.12447	4532.2
2099.11969	4509.4
2102.11299	4521.7
2105.10435	4527.3
2108.09379	4519.8
2111.08131	4534.2
2114.0669	4526.8
2117.05057	4531.7
2120.03233	4538.3
2123.01216	4553.9
2125.99008	4551.6
2128.96609	4553.8
2131.94018	4563
2134.91236	4584.2
2137.88263	4566.2
2140.851	4548.3
2143.81746	4562.8
2146.78201	4550.3
2149.74466	4547.5
2152.7054	4538.7
2155.66425	4536.6
2158.6212	4518.4
2161.57625	4523.5
2164.52941	4523.1
2167.48067	4508.8
2170.43004	4505.8
2173.37752	4507.7
2176.32311	4500.3
2179.26681	4512.3
2182.20863	4504.9
2185.14856	4508.8
2188.08661	4505.1
2191.02278	4509.4
2193.95707	4503.5
2196.88948	4494.8
2199.82001	4481.5
2202.74867	4493.3
2205.67545	4485.8
2208.60037	4477.8
2211.52341	4469.8
2214.44458	4467
2217.36388	4464
2220.28132	4450.7
2223.1969	4431.1
2226.11061	4422.5
2229.02246	4405.8
2231.93245	4399.3
2234.84058	4379.3
2237.74686	4387.9
2240.65128	4373.7
2243.55385	4388.2
2246.45456	4394.5
2249.35343	4380.9
2252.25044	4380.2
2255.14561	4376.8
2258.03893	4391.8
2260.93041	4364.5
2263.82004	4382.5
2266.70783	4388.4
2269.59378	4362.5
2272.4779	4369.5
2275.36017	4344.5
2278.24061	4338.5
2281.11922	4328
2283.996	4304.6
2286.87094	4288.4
2289.74405	4301.8
2292.61534	4272.5
2295.4848	4263
2298.35243	4257.4
2301.21824	4257.1
2304.08223	4247.9
2306.94439	4254.7
2309.80474	4250.8
2312.66327	4244.9
2315.51999	4241.2
2318.37489	4239.1
2321.22797	4229
2324.07925	4231.2
2326.92871	4228.4
2329.77637	4204.1
2332.62222	4207.8
2335.46626	4218.6
2338.3085	4205.1
2341.14893	4214.7
2343.98756	4213.2
2346.8244	4216.2
2349.65943	4220.2
2352.49267	4238.1
2355.32411	4251.7
2358.15376	4272.6
2360.98161	4282.1
2363.80768	4290.4
2366.63195	4304
2369.45444	4306.7
2372.27514	4306.7
2375.09405	4305.2
2377.91118	4279.5
2380.72652	4272.9
2383.54009	4240.2
2386.35187	4220.2
2389.16188	4180.8
2391.97011	4164.3
2394.77657	4141.8
2397.58125	4118.6
2400.38416	4107
2403.18529	4093.2
2405.98466	4084.2
2408.78226	4074.3
2411.57809	4068.5
2414.37216	4047.3
2417.16446	4056.7
2419.955	4038.9
2422.74378	4049.2
2425.5308	4040.8
2428.31606	4052.6
2431.09956	4066.8
2433.88131	4065.3
2436.6613	4067.8
2439.43954	4068
2442.21603	4066.5
2444.99077	4066
2447.76377	4084.3
2450.53501	4070.4
2453.30451	4085.2
2456.07226	4086.1
2458.83827	4066.9
2461.60254	4069.5
2464.36507	4072
2467.12586	4068.9
2469.88492	4069.5
2472.64224	4077.2
2475.39782	4075.6
2478.15167	4085.8
2480.90379	4116.3
2483.65417	4131
2486.40283	4143.3
2489.14976	4173.4
2491.89497	4160.8
2494.63845	4154.5
2497.3802	4159.2
2500.12024	4147.7
2502.85855	4119.1
2505.59514	4102.4
2508.33002	4062.2
2511.06318	4045.2
2513.79462	4005.5
2516.52435	3983.5
2519.25237	3969.9
2521.97867	3950.9
2524.70327	3933.1
2527.42616	3922.4
2530.14734	3922.8
2532.86681	3919.5
2535.58458	3928.9
2538.30065	3941.8
2541.01501	3918.5
2543.72768	3931.6
2546.43864	3915.7
2549.14791	3936.2
2551.85548	3933.4
2554.56136	3929.6
2557.26554	3914.4
2559.96803	3916.9
2562.66883	3920.7
2565.36794	3914.1
2568.06536	3907.1
2570.7611	3906.9
2573.45514	3879.4
2576.14751	3886
2578.83819	3871.2
2581.52719	3848.1
2584.21451	3851.4
2586.90015	3838.2
2589.58411	3827.2
2592.2664	3827.9
2594.94701	3817.1
2597.62594	3835.4
2600.30321	3824.5
2602.9788	3822.9
2605.65273	3818.2
2608.32498	3819.6
2610.99557	3823.8
2613.66449	3827.5
2616.33175	3830.7
2618.99734	3828.8
2621.66128	3827
2624.32355	3810.8
2626.98416	3800.6
2629.64311	3796
2632.30041	3786.9
2634.95605	3756.8
2637.61004	3748.7
2640.26238	3759.1
2642.91306	3755.4
2645.56209	3745.5
2648.20948	3723.6
2650.85521	3724.6
2653.4993	3730.2
2656.14175	3741.1
2658.78255	3731.9
2661.42171	3739.1
2664.05923	3752.4
2666.6951	3777.1
2669.32934	3787.9
2671.96194	3769.4
2674.59291	3795.4
2677.22224	3791.2
2679.84993	3792.1
2682.476	3783.7
2685.10043	3797.9
2687.72324	3774.9
2690.34441	3786.6
2692.96396	3793.3
2695.58188	3794.1
2698.19818	3764.3
2700.81285	3767.4
2703.4259	3755
2706.03733	3701.4
2708.64714	3714.3
2711.25533	3764.1
2713.86191	3761.7
2716.46687	3790.8
2719.07021	3795.9
2721.67194	3790.4
2724.27206	3802.9
2726.87057	3786.4
2729.46747	3796.5
2732.06276	3796.4
2734.65644	3782.7
2737.24852	3759.4
2739.83899	3763
2742.42786	3762.1
2745.01513	3740.8
2747.60079	3739.8
2750.18486	3739.3
2752.76733	3730
2755.3482	3710.1
2757.92747	3707.1
2760.50515	3711.7
2763.08123	3711.6
2765.65573	3685.1
2768.22863	3685.2
2770.79994	3689.3
2773.36967	3689.6
2775.9378	3667.3
2778.50435	3684.7
2781.06932	3678
2783.6327	3682
2786.1945	3697.7
2788.75471	3690.5
2791.31335	3681.6
2793.87041	3674.7
2796.42589	3685.3
2798.97979	3696.3
2801.53212	3681.3
2804.08288	3689
2806.63206	3683.5
2809.17967	3689.5
2811.72571	3688.1
2814.27018	3693.3
2816.81308	3711.8
2819.35442	3722.9
2821.89419	3725.2
2824.43239	3744
2826.96904	3742.2
2829.50412	3736.3
2832.03763	3762.1
2834.56959	3751.7
2837.1	3758.1
2839.62884	3779.2
2842.15613	3791.2
2844.68186	3832.2
2847.20604	3866.9
2849.72867	3893.2
2852.24974	3920.8
2854.76927	3925.2
2857.28724	3879.3
2859.80367	3890.3
2862.31855	3915.4
2864.83189	3896.2
2867.34368	3890.8
2869.85393	3884.5
2872.36264	3916.3
2874.8698	3903.1
2877.37543	3885
2879.87952	3892.7
2882.38207	3885.1
2884.88308	3863.7
2887.38256	3878.1
2889.88051	3851.6
2892.37692	3866.6
2894.8718	3848.3
2897.36515	3861.5
2899.85698	3861.2
2902.34727	3869.3
2904.83604	3865.8
2907.32328	3882
2909.809	3863.5
2912.29319	3867.9
2914.77587	3873.5
2917.25702	3864
2919.73665	3858.5
2922.21476	3845.7
2924.69136	3843.2
2927.16644	3840.9
2929.64	3835
2932.11205	3810.3
2934.58258	3789.1
2937.05161	3785.2
2939.51912	3778
2941.98513	3761.2
2944.44962	3733.2
2946.91261	3700.7
2949.37409	3716.4
2951.83407	3680.5
2954.29254	3663.4
2956.74951	3655
2959.20498	3645.7
2961.65895	3655
2964.11142	3623
2966.56239	3604.2
2969.01186	3601.6
2971.45984	3581.9
2973.90632	3600.8
2976.35131	3574.2
2978.7948	3571.2
2981.23681	3557
2983.67732	3549.2
2986.11635	3534.8
2988.55388	3515.3
2990.98993	3510.9
2993.4245	3504.6
2995.85758	3500.4
2998.28917	3499.6
3000.71928	3499.7
3003.14791	3496.7
3005.57506	3489.2
3008.00073	3495.4
3010.42493	3472.8
3012.84764	3473.7
3015.26888	3493.8
3017.68865	3472.2
3020.10694	3460.3
3022.52376	3470.4
3024.9391	3447.3
3027.35298	3437.1
3029.76539	3426.8
3032.17632	3431.1
3034.5858	3423.6
3036.9938	3410.1
3039.40034	3420.8
3041.80542	3382
3044.20903	3389.7
3046.61118	3376.2
3049.01187	3384.2
3051.4111	3388.7
3053.80888	3371.7
3056.20519	3357
3058.60005	3364.9
3060.99345	3351.5
3063.3854	3349.5
3065.7759	3340.7
3068.16494	3327.5
3070.55254	3315.6
3072.93868	3293.6
3075.32338	3289.2
3077.70662	3286.8
3080.08842	3279.1
3082.46878	3262
3084.84769	3252.4
3087.22515	3253.4
3089.60118	3249
3091.97576	3245.5
3094.3489	3245.2
3096.72061	3256.5
3099.09087	3251.7
3101.4597	3248.8
3103.82709	3250
3106.19305	3242.7
3108.55757	3244.9
3110.92066	3236.9
3113.28232	3248.9
3115.64255	3237.4
3118.00134	3227.9
3120.35871	3233.4
3122.71466	3233.2
3125.06917	3229.3
3127.42226	3223.9
3129.77393	3226.1
3132.12417	3231.8
3134.47299	3230.2
3136.82039	3229.2
3139.16636	3242.8
3141.51092	3237.4
3143.85406	3231.2
3146.19579	3246.2
3148.53609	3248.3
3150.87499	3259.1
3153.21246	3266.3
3155.54853	3260.8
3157.88318	3270.5
3160.21642	3283.3
3162.54826	3280.3
3164.87868	3285.9
3167.2077	3282.4
3169.5353	3289.2
3171.86151	3293.6
3174.18631	3282.4
3176.5097	3293.5
3178.83169	3278.2
3181.15228	3298.7
3183.47147	3293.5
3185.78926	3291.4
3188.10565	3296.2
3190.42065	3303.1
3192.73424	3294.1
3195.04645	3304.2
3197.35725	3310.7
3199.66667	3308.3
3201.97469	3321.5
3204.28132	3309.4
3206.58656	3328.3
3208.8904	3326.2
3211.19287	3344.2
3213.49394	3345.7
3215.79363	3356.5
3218.09193	3357.7
3220.38884	3355.9
3222.68438	3328.2
3224.97853	3340.2
3227.2713	3352.8
3229.56269	3327.2
3231.8527	3360.8
3234.14133	3349.1
3236.42858	3332.1
3238.71446	3326.1
3240.99896	3324.8
3243.28209	3332.7
3245.56384	3314.4
3247.84423	3304.2
3250.12324	3319
3252.40088	3329.1
3254.67715	3329.8
3256.95205	3306.1
3259.22558	3319.3
3261.49775	3312.9
3263.76855	3312.2
3266.03799	3316.2
3268.30606	3311
3270.57277	3295.1
3272.83812	3295.9
3275.10211	3299.9
3277.36474	3279.9
3279.62601	3300.1
3281.88593	3278.2
3284.14448	3283.7
3286.40168	3294.3
3288.65753	3282.6
3290.91202	3291.8
3293.16516	3293.6
3295.41695	3277.7
3297.66738	3263.4
3299.91647	3237.3
3302.16421	3224.2
3304.4106	3212.7
3306.65564	3181.2
3308.89933	3161.5
3311.14169	3129
3313.38269	3103.5
3315.62236	3074.5
3317.86068	3043.9
3320.09766	3033.8
3322.3333	3004.7
3324.5676	3007
3326.80056	2924.3
3329.03219	2910.2
3331.26248	1.5
3333.49143	0
3335.71905	0.6
