Data from AgNPs_FTO_APTES_UA_50uM_CRN_10uM_R6G_10uM_NaF_0.1M_Addition_RamanShift__4__13-18-04-863.txt Node

Date: Mon Feb 21 13:18:04 GMT 2022
User: TCL
Spectrometer: QEP01345
Trigger mode: 4
Integration Time (sec): 7.000000E0
Scans to average: 10
Electric dark correction enabled: true
Nonlinearity correction enabled: false
Boxcar width: 0
XAxis mode: Raman Shifts
Number of Pixels in Spectrum: 1044
>>>>>Begin Spectral Data<<<<<
46.04893	0.3625
50.45542	-0.5375
54.85868	-1.0375
59.25871	-2.1375
63.6555	72.9625
68.04907	77.1625
72.43941	80.0625
76.82654	86.9625
81.21044	87.4625
85.59113	94.1625
89.96862	96.3625
94.34289	100.0625
98.71396	98.0625
103.08183	104.8625
107.4465	106.0625
111.80798	105.6625
116.16626	107.6625
120.52136	110.2625
124.87327	122.2625
129.222	119.1625
133.56755	125.4625
137.90993	141.0625
142.24913	144.8625
146.58517	167.7625
150.91804	193.2625
155.24774	224.6625
159.57429	278.0625
163.89768	349.1625
168.21792	469.9625
172.53501	639.5625
176.84895	887.7625
181.15975	1247.4625
185.46741	1758.1625
189.77193	2395.8625
194.07331	3208.5625
198.37157	4119.9625
202.6667	5072.1625
206.9587	6032.5625
211.24758	6966.4625
215.53334	7931.2625
219.81599	8962.9625
224.09553	10111.9625
228.37195	11411.7625
232.64527	12840.8625
236.91549	14301.1625
241.18261	15737.1625
245.44663	17018.2625
249.70755	18102.5625
253.96539	18992.8625
258.22014	19762.5625
262.4718	20380.0625
266.72039	20786.4625
270.96589	20977.1625
275.20832	20952.8625
279.44768	20711.5625
283.68397	20440.4625
287.91719	20162.2625
292.14735	20048.7625
296.37445	19999.8625
300.59849	20117.4625
304.81948	20288.0625
309.03742	20376.7625
313.25231	20386.0625
317.46415	20122.5625
321.67296	19764.9625
325.87872	19476.3625
330.08145	19382.6625
334.28114	19404.2625
338.47781	19550.3625
342.67145	19776.5625
346.86207	20129.3625
351.04966	20582.4625
355.23424	21081.6625
359.4158	21479.5625
363.59435	21738.2625
367.76989	21873.0625
371.94243	21961.9625
376.11196	22050.0625
380.27849	22172.3625
384.44203	22333.8625
388.60257	22489.3625
392.76012	22669.0625
396.91468	22864.7625
401.06626	23106.3625
405.21485	23362.5625
409.36047	23207.8625
413.50311	22860.8625
417.64277	22627.7625
421.77947	22617.3625
425.9132	22714.5625
430.04396	22818.5625
434.17176	23000.1625
438.2966	23316.3625
442.41849	23943.1625
446.53742	24960.7625
450.6534	25946.0625
454.76644	26457.6625
458.87653	26474.6625
462.98368	26133.1625
467.08789	25554.4625
471.18916	24884.3625
475.2875	24198.9625
479.38291	23605.4625
483.4754	23233.0625
487.56496	22969.9625
491.6516	22767.8625
495.73531	22615.1625
499.81612	22707.9625
503.89401	22854.1625
507.96899	22931.9625
512.04106	22870.6625
516.11023	22747.6625
520.1765	22604.1625
524.23987	22594.0625
528.30034	22614.8625
532.35792	22508.0625
536.41261	22205.3625
540.46441	21859.4625
544.51333	21707.1625
548.55936	21805.6625
552.60252	22322.1625
556.64279	23031.5625
560.6802	23565.6625
564.71473	23668.4625
568.7464	23842.9625
572.7752	24332.2625
576.80114	24993.8625
580.82422	25574.7625
584.84444	26804.7625
588.86181	28772.7625
592.87633	31178.6625
596.888	32013.7625
600.89682	30381.8625
604.9028	29366.0625
608.90594	31101.8625
612.90624	33511.4625
616.90371	31165.8625
620.89834	25809.8625
624.89015	23438.9625
628.87913	23084.7625
632.86528	23154.3625
636.84862	23091.3625
640.82913	22568.0625
644.80683	21899.5625
648.78172	21503.2625
652.75379	21489.0625
656.72306	21892.0625
660.68952	22390.9625
664.65319	22223.3625
668.61405	21685.5625
672.57211	21658.4625
676.52738	21875.9625
680.47986	21877.4625
684.42955	21596.3625
688.37646	21496.5625
692.32058	21695.8625
696.26192	22091.5625
700.20048	22455.7625
704.13626	22598.4625
708.06928	22458.4625
711.99952	22240.7625
715.927	22253.2625
719.85171	22482.4625
723.77365	22454.6625
727.69284	22096.5625
731.60928	21827.6625
735.52295	21786.6625
739.43388	21900.3625
743.34206	22019.4625
747.24749	22127.5625
751.15017	22322.2625
755.05012	22598.7625
758.94733	23279.4625
762.8418	24499.9625
766.73354	26552.4625
770.62254	28522.6625
774.50882	29004.0625
778.39237	27782.6625
782.27321	25783.2625
786.15132	23976.8625
790.02671	22865.2625
793.89938	22251.0625
797.76935	22019.5625
801.6366	21899.1625
805.50115	21762.0625
809.36299	21628.4625
813.22213	21463.9625
817.07857	21293.1625
820.93231	21162.6625
824.78336	21105.0625
828.63172	21082.8625
832.47738	21131.7625
836.32036	21154.7625
840.16066	21237.4625
843.99827	21328.5625
847.8332	21262.3625
851.66546	21201.7625
855.49504	21244.2625
859.32195	21193.6625
863.1462	21132.7625
866.96777	21055.2625
870.78668	21004.3625
874.60293	21081.1625
878.41652	21128.0625
882.22745	21301.7625
886.03573	21429.5625
889.84136	21431.3625
893.64433	21328.3625
897.44466	21228.6625
901.24235	21129.0625
905.0374	21035.3625
908.8298	20932.4625
912.61957	20872.5625
916.40671	21041.1625
920.19121	21330.3625
923.97308	21706.2625
927.75233	21876.5625
931.52895	21750.1625
935.30295	21475.6625
939.07433	21084.9625
942.84309	20746.2625
946.60924	20595.4625
950.37278	20571.6625
954.13371	20519.3625
957.89203	20473.2625
961.64774	20422.2625
965.40086	20439.4625
969.15137	20458.8625
972.89929	20387.3625
976.64461	20425.3625
980.38733	20476.0625
984.12747	20572.4625
987.86502	20727.7625
991.59999	20989.0625
995.33237	21370.0625
999.06217	22073.9625
1002.78939	22967.9625
1006.51404	23725.5625
1010.23611	24174.3625
1013.95561	24475.4625
1017.67255	24535.8625
1021.38692	24167.5625
1025.09872	23663.3625
1028.80796	23507.6625
1032.51465	23913.9625
1036.21877	24353.0625
1039.92035	24477.2625
1043.61937	24295.6625
1047.31584	23812.1625
1051.00976	23261.0625
1054.70114	22905.8625
1058.38998	22784.4625
1062.07627	22853.6625
1065.76003	22981.0625
1069.44126	23262.9625
1073.11995	23598.1625
1076.79611	23996.3625
1080.46974	24359.7625
1084.14085	24757.7625
1087.80943	25147.6625
1091.47549	25300.8625
1095.13903	25126.7625
1098.80005	24667.6625
1102.45857	24128.9625
1106.11456	23845.6625
1109.76805	23773.6625
1113.41903	23931.1625
1117.06751	24196.9625
1120.71348	24491.3625
1124.35696	24798.7625
1127.99793	25144.5625
1131.63641	25269.8625
1135.2724	25141.8625
1138.90589	24950.7625
1142.5369	24909.2625
1146.16542	25040.1625
1149.79145	25241.9625
1153.415	25401.6625
1157.03607	25693.8625
1160.65467	26394.7625
1164.27079	27626.4625
1167.88443	29271.3625
1171.49561	31384.4625
1175.10432	34186.6625
1178.71056	37737.4625
1182.31434	40927.7625
1185.91565	42155.8625
1189.51451	41390.0625
1193.11091	39544.9625
1196.70485	37551.1625
1200.29634	35675.2625
1203.88538	34211.3625
1207.47197	33119.3625
1211.05612	32257.0625
1214.63782	31557.8625
1218.21708	31295.5625
1221.79391	31280.1625
1225.36829	31518.1625
1228.94024	31298.8625
1232.50976	30532.8625
1236.07685	29630.0625
1239.6415	29064.5625
1243.20374	28954.9625
1246.76355	29073.5625
1250.32093	29451.2625
1253.8759	30108.0625
1257.42845	31047.1625
1260.97859	32153.1625
1264.52631	33460.1625
1268.07163	34726.1625
1271.61453	35964.8625
1275.15503	37170.4625
1278.69312	38275.7625
1282.22882	39486.0625
1285.76211	40876.4625
1289.29301	42601.4625
1292.82151	44532.0625
1296.34761	47046.7625
1299.87133	50100.9625
1303.39266	53695.1625
1306.9116	57403.9625
1310.42815	60562.7625
1313.94233	62178.1625
1317.45412	61401.9625
1320.96354	58906.4625
1324.47058	56253.5625
1327.97525	53931.6625
1331.47754	52347.6625
1334.97747	51460.0625
1338.47502	50747.9625
1341.97022	50050.5625
1345.46305	49281.0625
1348.95352	49198.3625
1352.44163	50349.9625
1355.92738	53106.7625
1359.41078	57222.1625
1362.89183	60464.2625
1366.37053	59842.6625
1369.84688	54365.5625
1373.32088	47362.3625
1376.79254	42583.6625
1380.26186	40775.7625
1383.72883	40458.1625
1387.19347	40221.0625
1390.65578	39469.0625
1394.11575	39119.5625
1397.57339	39505.1625
1401.0287	40052.8625
1404.48168	40488.1625
1407.93234	40568.5625
1411.38068	40108.2625
1414.82669	39399.9625
1418.27039	38424.6625
1421.71177	37076.2625
1425.15083	35913.6625
1428.58758	35481.8625
1432.02203	35956.5625
1435.45416	37054.4625
1438.88399	37991.9625
1442.31151	38517.6625
1445.73673	38646.6625
1449.15965	38593.8625
1452.58027	38290.1625
1455.9986	37861.3625
1459.41463	37804.5625
1462.82837	38408.6625
1466.23982	39443.3625
1469.64898	40557.4625
1473.05586	41317.9625
1476.46045	41855.2625
1479.86276	41964.6625
1483.26279	41822.8625
1486.66054	41877.8625
1490.05602	42324.8625
1493.44922	42816.0625
1496.84016	43107.4625
1500.22882	43488.2625
1503.61521	44313.5625
1506.99934	45438.7625
1510.38121	46310.5625
1513.76081	46240.0625
1517.13816	44844.5625
1520.51324	42994.6625
1523.88607	41479.2625
1527.25665	40825.8625
1530.62498	40730.6625
1533.99105	40582.2625
1537.35488	39953.7625
1540.71647	39031.6625
1544.07581	37950.1625
1547.4329	36924.7625
1550.78776	36093.5625
1554.14038	35519.9625
1557.49077	35116.6625
1560.83892	34964.3625
1564.18484	35041.2625
1567.52853	35272.4625
1570.86999	35676.6625
1574.20922	36315.7625
1577.54624	36814.8625
1580.88103	36776.7625
1584.2136	36937.7625
1587.54395	38185.4625
1590.87208	40707.8625
1594.19801	44234.2625
1597.52172	47664.0625
1600.84321	48841.3625
1604.16251	46549.4625
1607.47959	42174.7625
1610.79447	37474.2625
1614.10715	33571.9625
1617.41763	30663.7625
1620.7259	28872.2625
1624.03199	28190.2625
1627.33587	28451.2625
1630.63757	29650.8625
1633.93707	32037.9625
1637.23439	35981.5625
1640.52951	41705.8625
1643.82246	48560.7625
1647.11321	53705.4625
1650.40179	53670.2625
1653.68819	48273.6625
1656.97241	40358.2625
1660.25446	33476.3625
1663.53433	28838.9625
1666.81203	26087.3625
1670.08756	24438.3625
1673.36092	23430.7625
1676.63211	22827.6625
1679.90115	22329.3625
1683.16801	21957.9625
1686.43272	21711.0625
1689.69527	21464.0625
1692.95567	21312.3625
1696.2139	21081.3625
1699.46999	20911.1625
1702.72392	20826.5625
1705.97571	20884.1625
1709.22535	20915.9625
1712.47284	20955.2625
1715.71819	20947.2625
1718.96139	20892.3625
1722.20246	20795.6625
1725.44139	20706.8625
1728.67818	20569.8625
1731.91284	20468.0625
1735.14537	20336.5625
1738.37576	20260.8625
1741.60403	20204.7625
1744.83017	20121.6625
1748.05418	20028.1625
1751.27607	19934.6625
1754.49584	19846.5625
1757.71349	19826.8625
1760.92903	19770.6625
1764.14244	19759.5625
1767.35375	19777.1625
1770.56294	19704.3625
1773.77002	19691.9625
1776.97499	19686.8625
1780.17785	19699.8625
1783.37861	19697.1625
1786.57727	19709.2625
1789.77382	19692.4625
1792.96828	19686.9625
1796.16064	19628.0625
1799.3509	19611.8625
1802.53907	19582.1625
1805.72514	19532.9625
1808.90913	19510.3625
1812.09102	19465.6625
1815.27083	19436.8625
1818.44856	19450.9625
1821.6242	19424.2625
1824.79776	19427.8625
1827.96924	19437.0625
1831.13864	19466.8625
1834.30597	19454.8625
1837.47122	19472.9625
1840.6344	19473.6625
1843.7955	19466.2625
1846.95454	19486.8625
1850.11151	19440.3625
1853.26642	19437.1625
1856.41926	19430.2625
1859.57004	19384.9625
1862.71876	19355.9625
1865.86542	19364.4625
1869.01003	19360.5625
1872.15258	19370.6625
1875.29308	19322.2625
1878.43152	19321.7625
1881.56792	19312.4625
1884.70227	19377.1625
1887.83457	19311.3625
1890.96482	19277.2625
1894.09304	19273.4625
1897.21921	19239.8625
1900.34335	19270.5625
1903.46544	19242.5625
1906.58551	19211.2625
1909.70353	19190.4625
1912.81953	19133.7625
1915.93349	19105.7625
1919.04543	19065.3625
1922.15534	19016.4625
1925.26322	18975.4625
1928.36908	18938.2625
1931.47292	18897.4625
1934.57473	18848.3625
1937.67453	18769.1625
1940.77232	18751.0625
1943.86808	18693.8625
1946.96184	18667.7625
1950.05358	18619.2625
1953.14331	18570.8625
1956.23103	18532.2625
1959.31675	18473.2625
1962.40046	18427.7625
1965.48217	18397.6625
1968.56188	18368.6625
1971.63959	18304.3625
1974.7153	18271.6625
1977.78901	18198.5625
1980.86073	18171.3625
1983.93046	18092.1625
1986.99819	18053.9625
1990.06394	18011.0625
1993.1277	17962.6625
1996.18947	17913.2625
1999.24925	17855.1625
2002.30706	17721.2625
2005.36288	17764.6625
2008.41672	17703.3625
2011.46859	17668.8625
2014.51848	17628.2625
2017.56639	17618.2625
2020.61233	17559.3625
2023.6563	17522.2625
2026.6983	17513.3625
2029.73833	17480.8625
2032.7764	17459.4625
2035.8125	17461.1625
2038.84664	17412.5625
2041.87881	17382.5625
2044.90903	17354.4625
2047.93729	17346.6625
2050.96359	17340.0625
2053.98794	17320.4625
2057.01034	17311.3625
2060.03078	17303.6625
2063.04927	17322.7625
2066.06582	17322.2625
2069.08042	17259.7625
2072.09307	17268.0625
2075.10378	17273.4625
2078.11255	17253.4625
2081.11938	17267.5625
2084.12426	17227.5625
2087.12722	17257.2625
2090.12824	17255.5625
2093.12732	17268.7625
2096.12447	17299.2625
2099.11969	17269.9625
2102.11299	17277.3625
2105.10435	17271.0625
2108.09379	17255.9625
2111.08131	17277.1625
2114.0669	17287.3625
2117.05057	17345.3625
2120.03233	17330.9625
2123.01216	17322.0625
2125.99008	17344.3625
2128.96609	17361.7625
2131.94018	17390.1625
2134.91236	17434.9625
2137.88263	17422.7625
2140.851	17466.4625
2143.81746	17448.1625
2146.78201	17433.1625
2149.74466	17469.4625
2152.7054	17474.1625
2155.66425	17488.8625
2158.6212	17474.6625
2161.57625	17431.9625
2164.52941	17463.9625
2167.48067	17405.3625
2170.43004	17426.5625
2173.37752	17408.8625
2176.32311	17461.4625
2179.26681	17453.1625
2182.20863	17484.0625
2185.14856	17518.0625
2188.08661	17496.0625
2191.02278	17516.3625
2193.95707	17473.5625
2196.88948	17501.0625
2199.82001	17499.6625
2202.74867	17473.8625
2205.67545	17495.6625
2208.60037	17451.2625
2211.52341	17450.7625
2214.44458	17403.5625
2217.36388	17404.8625
2220.28132	17363.0625
2223.1969	17332.2625
2226.11061	17289.1625
2229.02246	17282.0625
2231.93245	17293.4625
2234.84058	17266.5625
2237.74686	17235.0625
2240.65128	17262.2625
2243.55385	17214.7625
2246.45456	17246.5625
2249.35343	17190.5625
2252.25044	17139.4625
2255.14561	17114.6625
2258.03893	17138.4625
2260.93041	17074.3625
2263.82004	17030.9625
2266.70783	16981.6625
2269.59378	16970.8625
2272.4779	16931.5625
2275.36017	16909.6625
2278.24061	16890.7625
2281.11922	16862.2625
2283.996	16826.6625
2286.87094	16803.2625
2289.74405	16811.0625
2292.61534	16793.0625
2295.4848	16793.2625
2298.35243	16798.9625
2301.21824	16822.6625
2304.08223	16809.6625
2306.94439	16835.3625
2309.80474	16864.1625
2312.66327	16884.2625
2315.51999	16847.3625
2318.37489	16813.3625
2321.22797	16819.3625
2324.07925	16792.2625
2326.92871	16826.4625
2329.77637	16789.8625
2332.62222	16725.1625
2335.46626	16708.7625
2338.3085	16718.2625
2341.14893	16733.9625
2343.98756	16778.9625
2346.8244	16751.2625
2349.65943	16772.6625
2352.49267	16778.0625
2355.32411	16800.0625
2358.15376	16779.6625
2360.98161	16767.0625
2363.80768	16712.9625
2366.63195	16716.1625
2369.45444	16719.4625
2372.27514	16674.3625
2375.09405	16682.1625
2377.91118	16674.3625
2380.72652	16606.2625
2383.54009	16597.7625
2386.35187	16589.2625
2389.16188	16571.2625
2391.97011	16561.7625
2394.77657	16556.3625
2397.58125	16508.7625
2400.38416	16493.4625
2403.18529	16452.3625
2405.98466	16454.0625
2408.78226	16410.3625
2411.57809	16410.3625
2414.37216	16353.3625
2417.16446	16358.9625
2419.955	16358.8625
2422.74378	16388.4625
2425.5308	16331.0625
2428.31606	16326.1625
2431.09956	16321.9625
2433.88131	16306.8625
2436.6613	16327.9625
2439.43954	16337.1625
2442.21603	16351.1625
2444.99077	16315.7625
2447.76377	16330.0625
2450.53501	16345.4625
2453.30451	16349.6625
2456.07226	16333.3625
2458.83827	16357.0625
2461.60254	16367.3625
2464.36507	16366.4625
2467.12586	16378.0625
2469.88492	16403.5625
2472.64224	16396.5625
2475.39782	16371.1625
2478.15167	16407.1625
2480.90379	16419.2625
2483.65417	16387.7625
2486.40283	16409.7625
2489.14976	16437.6625
2491.89497	16458.5625
2494.63845	16443.7625
2497.3802	16442.9625
2500.12024	16469.1625
2502.85855	16413.9625
2505.59514	16408.9625
2508.33002	16380.8625
2511.06318	16387.9625
2513.79462	16401.5625
2516.52435	16390.4625
2519.25237	16406.1625
2521.97867	16363.0625
2524.70327	16397.4625
2527.42616	16374.8625
2530.14734	16359.0625
2532.86681	16340.0625
2535.58458	16375.0625
2538.30065	16347.9625
2541.01501	16326.9625
2543.72768	16311.7625
2546.43864	16321.6625
2549.14791	16310.5625
2551.85548	16288.0625
2554.56136	16278.6625
2557.26554	16275.1625
2559.96803	16304.2625
2562.66883	16275.5625
2565.36794	16305.3625
2568.06536	16308.8625
2570.7611	16301.6625
2573.45514	16293.8625
2576.14751	16288.4625
2578.83819	16277.3625
2581.52719	16279.4625
2584.21451	16241.6625
2586.90015	16238.6625
2589.58411	16229.7625
2592.2664	16254.6625
2594.94701	16278.6625
2597.62594	16232.4625
2600.30321	16233.1625
2602.9788	16253.1625
2605.65273	16205.9625
2608.32498	16238.8625
2610.99557	16234.8625
2613.66449	16242.3625
2616.33175	16273.6625
2618.99734	16306.9625
2621.66128	16257.3625
2624.32355	16204.5625
2626.98416	16225.7625
2629.64311	16214.1625
2632.30041	16206.0625
2634.95605	16213.1625
2637.61004	16202.6625
2640.26238	16151.2625
2642.91306	16143.7625
2645.56209	16116.1625
2648.20948	16124.5625
2650.85521	16170.4625
2653.4993	16174.4625
2656.14175	16205.0625
2658.78255	16222.3625
2661.42171	16259.3625
2664.05923	16276.0625
2666.6951	16264.5625
2669.32934	16289.5625
2671.96194	16291.5625
2674.59291	16318.5625
2677.22224	16306.1625
2679.84993	16330.4625
2682.476	16283.6625
2685.10043	16263.4625
2687.72324	16270.0625
2690.34441	16250.5625
2692.96396	16236.1625
2695.58188	16299.4625
2698.19818	16222.1625
2700.81285	16273.9625
2703.4259	16214.6625
2706.03733	16178.7625
2708.64714	16201.4625
2711.25533	16267.1625
2713.86191	16287.3625
2716.46687	16317.1625
2719.07021	16313.9625
2721.67194	16351.0625
2724.27206	16380.8625
2726.87057	16378.8625
2729.46747	16399.3625
2732.06276	16426.8625
2734.65644	16413.8625
2737.24852	16406.5625
2739.83899	16395.3625
2742.42786	16438.5625
2745.01513	16397.1625
2747.60079	16430.5625
2750.18486	16359.4625
2752.76733	16315.3625
2755.3482	16347.9625
2757.92747	16344.9625
2760.50515	16368.2625
2763.08123	16373.7625
2765.65573	16351.8625
2768.22863	16349.9625
2770.79994	16336.3625
2773.36967	16332.1625
2775.9378	16363.9625
2778.50435	16399.6625
2781.06932	16372.0625
2783.6327	16376.4625
2786.1945	16375.8625
2788.75471	16360.8625
2791.31335	16388.0625
2793.87041	16326.4625
2796.42589	16295.0625
2798.97979	16272.2625
2801.53212	16247.0625
2804.08288	16236.6625
2806.63206	16257.3625
2809.17967	16222.6625
2811.72571	16140.9625
2814.27018	16145.7625
2816.81308	16092.9625
2819.35442	16088.9625
2821.89419	16036.3625
2824.43239	16082.2625
2826.96904	16104.3625
2829.50412	16073.1625
2832.03763	16049.6625
2834.56959	16064.6625
2837.1	16044.0625
2839.62884	15995.3625
2842.15613	15965.4625
2844.68186	15984.8625
2847.20604	15967.2625
2849.72867	16003.4625
2852.24974	15993.0625
2854.76927	15985.6625
2857.28724	15961.7625
2859.80367	15972.5625
2862.31855	15962.4625
2864.83189	15932.9625
2867.34368	15947.9625
2869.85393	15974.6625
2872.36264	15941.2625
2874.8698	15972.5625
2877.37543	15932.7625
2879.87952	15940.9625
2882.38207	15929.6625
2884.88308	15949.7625
2887.38256	15978.0625
2889.88051	15966.8625
2892.37692	15986.1625
2894.8718	16028.1625
2897.36515	16047.0625
2899.85698	16052.1625
2902.34727	16072.2625
2904.83604	16106.3625
2907.32328	16135.0625
2909.809	16128.6625
2912.29319	16160.1625
2914.77587	16153.1625
2917.25702	16142.8625
2919.73665	16104.2625
2922.21476	16149.5625
2924.69136	16125.9625
2927.16644	16131.8625
2929.64	16105.9625
2932.11205	16053.7625
2934.58258	15996.7625
2937.05161	16048.5625
2939.51912	16058.0625
2941.98513	16027.8625
2944.44962	16032.1625
2946.91261	15960.7625
2949.37409	16016.3625
2951.83407	15965.9625
2954.29254	15958.0625
2956.74951	15965.9625
2959.20498	15935.7625
2961.65895	15940.3625
2964.11142	15954.1625
2966.56239	15921.6625
2969.01186	15922.5625
2971.45984	15874.9625
2973.90632	15849.5625
2976.35131	15809.2625
2978.7948	15791.3625
2981.23681	15806.8625
2983.67732	15749.2625
2986.11635	15737.3625
2988.55388	15685.0625
2990.98993	15648.7625
2993.4245	15621.8625
2995.85758	15616.9625
2998.28917	15567.7625
3000.71928	15560.4625
3003.14791	15511.5625
3005.57506	15490.6625
3008.00073	15446.4625
3010.42493	15478.8625
3012.84764	15452.2625
3015.26888	15427.1625
3017.68865	15338.3625
3020.10694	15338.6625
3022.52376	15312.1625
3024.9391	15298.5625
3027.35298	15286.3625
3029.76539	15295.0625
3032.17632	15292.2625
3034.5858	15270.4625
3036.9938	15263.2625
3039.40034	15225.4625
3041.80542	15237.8625
3044.20903	15207.0625
3046.61118	15233.0625
3049.01187	15192.4625
3051.4111	15184.9625
3053.80888	15164.0625
3056.20519	15143.3625
3058.60005	15129.4625
3060.99345	15111.3625
3063.3854	15071.6625
3065.7759	15045.1625
3068.16494	15020.1625
3070.55254	14929.7625
3072.93868	14907.9625
3075.32338	14856.1625
3077.70662	14842.8625
3080.08842	14812.2625
3082.46878	14821.0625
3084.84769	14759.4625
3087.22515	14787.2625
3089.60118	14809.6625
3091.97576	14808.9625
3094.3489	14801.5625
3096.72061	14808.8625
3099.09087	14763.2625
3101.4597	14760.8625
3103.82709	14785.2625
3106.19305	14784.1625
3108.55757	14735.3625
3110.92066	14682.3625
3113.28232	14692.1625
3115.64255	14645.9625
3118.00134	14591.0625
3120.35871	14592.8625
3122.71466	14566.6625
3125.06917	14548.5625
3127.42226	14523.0625
3129.77393	14538.4625
3132.12417	14528.8625
3134.47299	14522.4625
3136.82039	14513.5625
3139.16636	14498.9625
3141.51092	14495.0625
3143.85406	14522.1625
3146.19579	14496.9625
3148.53609	14455.4625
3150.87499	14492.6625
3153.21246	14484.8625
3155.54853	14507.4625
3157.88318	14479.1625
3160.21642	14516.6625
3162.54826	14517.6625
3164.87868	14549.5625
3167.2077	14530.4625
3169.5353	14496.0625
3171.86151	14545.9625
3174.18631	14515.6625
3176.5097	14504.6625
3178.83169	14479.5625
3181.15228	14489.9625
3183.47147	14425.6625
3185.78926	14400.2625
3188.10565	14424.5625
3190.42065	14406.9625
3192.73424	14406.3625
3195.04645	14402.5625
3197.35725	14405.1625
3199.66667	14413.9625
3201.97469	14409.3625
3204.28132	14441.2625
3206.58656	14445.1625
3208.8904	14401.3625
3211.19287	14425.4625
3213.49394	14413.7625
3215.79363	14406.9625
3218.09193	14450.5625
3220.38884	14422.1625
3222.68438	14418.1625
3224.97853	14411.6625
3227.2713	14412.0625
3229.56269	14414.3625
3231.8527	14409.9625
3234.14133	14411.3625
3236.42858	14387.2625
3238.71446	14369.9625
3240.99896	14329.7625
3243.28209	14313.0625
3245.56384	14293.6625
3247.84423	14302.2625
3250.12324	14271.2625
3252.40088	14303.3625
3254.67715	14277.6625
3256.95205	14287.8625
3259.22558	14268.6625
3261.49775	14238.0625
3263.76855	14259.7625
3266.03799	14205.2625
3268.30606	14192.5625
3270.57277	14180.0625
3272.83812	14151.0625
3275.10211	14127.8625
3277.36474	14130.2625
3279.62601	14109.5625
3281.88593	14095.3625
3284.14448	14121.5625
3286.40168	14114.8625
3288.65753	14131.6625
3290.91202	14147.9625
3293.16516	14089.1625
3295.41695	14101.5625
3297.66738	14020.3625
3299.91647	13927.3625
3302.16421	13845.2625
3304.4106	13800.7625
3306.65564	13697.8625
3308.89933	13605.0625
3311.14169	13564.7625
3313.38269	13428.0625
3315.62236	13308.2625
3317.86068	13228.0625
3320.09766	13119.1625
3322.3333	13055.8625
3324.5676	13014.9625
3326.80056	12796.5625
3329.03219	12729.7625
3331.26248	3.7625
3333.49143	0.2625
3335.71905	0.0625
