Data from AgNPs_FTO_APTES_UA_50uM_CRN_500uM_R6G_10uM_NaF_0.1M_Addition_RamanShift__33__17-20-23-563.txt Node

Date: Mon Feb 21 17:20:23 GMT 2022
User: TCL
Spectrometer: QEP01345
Trigger mode: 4
Integration Time (sec): 7.000000E0
Scans to average: 10
Electric dark correction enabled: true
Nonlinearity correction enabled: false
Boxcar width: 0
XAxis mode: Raman Shifts
Number of Pixels in Spectrum: 1044
>>>>>Begin Spectral Data<<<<<
46.04893	-1.9
50.45542	0.6
54.85868	-1
59.25871	-1.7
63.6555	47
68.04907	49.2
72.43941	56.2
76.82654	55.8
81.21044	58.4
85.59113	62.4
89.96862	67
94.34289	67.4
98.71396	68.7
103.08183	73.2
107.4465	74
111.80798	75.2
116.16626	75.4
120.52136	78.6
124.87327	77.2
129.222	84.5
133.56755	85.3
137.90993	90
142.24913	92.8
146.58517	101.9
150.91804	109.7
155.24774	132.4
159.57429	158.9
163.89768	203
168.21792	270.2
172.53501	358.5
176.84895	492.5
181.15975	682.3
185.46741	957.7
189.77193	1322.5
194.07331	1774
198.37157	2267.6
202.6667	2814.5
206.9587	3368.4
211.24758	3929.6
215.53334	4548.5
219.81599	5236.7
224.09553	6064.8
228.37195	6983.3
232.64527	8016.1
236.91549	8967.9
241.18261	9824.5
245.44663	10497.8
249.70755	10960.2
253.96539	11285.5
258.22014	11451.7
262.4718	11593.1
266.72039	11607.8
270.96589	11532.3
275.20832	11275.3
279.44768	10931.4
283.68397	10555.1
287.91719	10376.1
292.14735	10505.2
296.37445	11098.9
300.59849	12113
304.81948	13332.4
309.03742	14278.1
313.25231	14381.6
317.46415	13318.9
321.67296	11541.7
325.87872	10104.5
330.08145	9417.1
334.28114	9367.6
338.47781	9663.3
342.67145	10189
346.86207	11014.5
351.04966	12277.7
355.23424	13713.7
359.4158	14693.8
363.59435	15102
367.76989	15097.3
371.94243	14904.8
376.11196	14634.2
380.27849	14381.5
384.44203	13938.2
388.60257	13414.8
392.76012	13054.1
396.91468	13092.3
401.06626	13541.3
405.21485	13850.9
409.36047	13248.8
413.50311	11808.3
417.64277	10455
421.77947	9646.9
425.9132	9262.2
430.04396	9132.2
434.17176	9147.7
438.2966	9359.7
442.41849	9689.5
446.53742	10089.7
450.6534	10397.8
454.76644	10571.9
458.87653	10473.1
462.98368	10258.5
467.08789	9972.7
471.18916	9601.8
475.2875	9165.8
479.38291	8819.3
483.4754	8591.6
487.56496	8428.4
491.6516	8348.8
495.73531	8349.6
499.81612	8453.1
503.89401	8673.4
507.96899	9001.8
512.04106	9456.1
516.11023	9959.1
520.1765	10293.2
524.23987	10277.5
528.30034	9914.7
532.35792	9447.2
536.41261	8998.7
540.46441	8546.3
544.51333	8241.5
548.55936	8267.5
552.60252	8559.4
556.64279	8945.8
560.6802	9212.7
564.71473	9618.9
568.7464	10576.1
572.7752	10995.3
576.80114	10037.2
580.82422	8919
584.84444	8391.2
588.86181	8238
592.87633	8319.9
596.888	8565
600.89682	9224
604.9028	11735.8
608.90594	18877
612.90624	28687.2
616.90371	27529.1
620.89834	15600.6
624.89015	9946.2
628.87913	8894.5
632.86528	9161.7
636.84862	9630.6
640.82913	9400.6
644.80683	8489.4
648.78172	7842.8
652.75379	7877.1
656.72306	8667.9
660.68952	9623.1
664.65319	9331.5
668.61405	8186
672.57211	7642.3
676.52738	7606.7
680.47986	7615.3
684.42955	7465.8
688.37646	7356.1
692.32058	7363.1
696.26192	7472.9
700.20048	7628.3
704.13626	7765.3
708.06928	7698.9
711.99952	7576.1
715.927	7556.3
719.85171	7652.7
723.77365	7771.2
727.69284	7668.1
731.60928	7575.4
735.52295	7549.6
739.43388	7572.7
743.34206	7591.3
747.24749	7615.1
751.15017	7607.3
755.05012	7855.4
758.94733	8738.5
762.8418	10890.7
766.73354	14640.3
770.62254	18559.1
774.50882	21106.7
778.39237	20380.1
782.27321	16211.6
786.15132	11755.9
790.02671	9289.6
793.89938	8248.5
797.76935	7837.4
801.6366	7651.8
805.50115	7584.2
809.36299	7569.9
813.22213	7547.5
817.07857	7476.3
820.93231	7429.4
824.78336	7421.8
828.63172	7520
832.47738	7539.8
836.32036	7452
840.16066	7315
843.99827	7186.5
847.8332	7135.3
851.66546	7174.2
855.49504	7194.7
859.32195	7164.3
863.1462	7114.8
866.96777	7046.4
870.78668	7069
874.60293	7118
878.41652	7197.1
882.22745	7347
886.03573	7457
889.84136	7409
893.64433	7324.6
897.44466	7311
901.24235	7289.8
905.0374	7211.6
908.8298	7081.5
912.61957	6946.3
916.40671	6967
920.19121	6997.3
923.97308	7098.6
927.75233	7367.2
931.52895	7680.9
935.30295	7570.4
939.07433	7106.6
942.84309	6678.2
946.60924	6422
950.37278	6298.3
954.13371	6238.9
957.89203	6227.8
961.64774	6217.8
965.40086	6197.3
969.15137	6157.2
972.89929	6131.2
976.64461	6132.3
980.38733	6137
984.12747	6137.1
987.86502	6154
991.59999	6184.9
995.33237	6271
999.06217	6426.7
1002.78939	6614.9
1006.51404	6859.3
1010.23611	7156.5
1013.95561	7319
1017.67255	7289.5
1021.38692	7135.7
1025.09872	6901.5
1028.80796	6742.5
1032.51465	6701.3
1036.21877	6786.6
1039.92035	6901.2
1043.61937	7011.8
1047.31584	7085.5
1051.00976	7081.6
1054.70114	7018.2
1058.38998	6956.7
1062.07627	6961.9
1065.76003	6970.1
1069.44126	6998.7
1073.11995	7092.9
1076.79611	7341.7
1080.46974	7771.6
1084.14085	8368.9
1087.80943	8929.8
1091.47549	9094.1
1095.13903	8697.9
1098.80005	8052.5
1102.45857	7619.6
1106.11456	7540.9
1109.76805	7809.6
1113.41903	8379.8
1117.06751	9231.2
1120.71348	10334.4
1124.35696	11543.5
1127.99793	12367
1131.63641	11907.2
1135.2724	10510.5
1138.90589	9349.5
1142.5369	8606.4
1146.16542	8123.6
1149.79145	7824
1153.415	7737.6
1157.03607	7805.2
1160.65467	8074.4
1164.27079	8566.7
1167.88443	9393
1171.49561	10825
1175.10432	13377.5
1178.71056	16843.7
1182.31434	19274.1
1185.91565	19441
1189.51451	18053.6
1193.11091	15917.7
1196.70485	13806.9
1200.29634	12554.4
1203.88538	11653.2
1207.47197	10370.6
1211.05612	9212.4
1214.63782	8500.3
1218.21708	8194.6
1221.79391	8056
1225.36829	8032.9
1228.94024	8003.9
1232.50976	7963.7
1236.07685	8016.7
1239.6415	8092.9
1243.20374	8228.3
1246.76355	8369.4
1250.32093	8512.3
1253.8759	8786.4
1257.42845	9196.6
1260.97859	9713.9
1264.52631	10301.4
1268.07163	10919.5
1271.61453	11400.3
1275.15503	11652.3
1278.69312	11563
1282.22882	11491
1285.76211	11890.2
1289.29301	12571
1292.82151	13286.8
1296.34761	14048.3
1299.87133	15420.8
1303.39266	18004.6
1306.9116	22044.4
1310.42815	26304.1
1313.94233	27932.3
1317.45412	25641.6
1320.96354	21635.8
1324.47058	17850.4
1327.97525	14919.4
1331.47754	13224.8
1334.97747	12625
1338.47502	12931.9
1341.97022	14014.7
1345.46305	15975
1348.95352	18792.2
1352.44163	22347.1
1355.92738	27278.5
1359.41078	34458
1362.89183	40042.9
1366.37053	37152.9
1369.84688	28662.6
1373.32088	21255.9
1376.79254	16617.6
1380.26186	14082.4
1383.72883	12640.8
1387.19347	11621.2
1390.65578	10590.1
1394.11575	9790.1
1397.57339	9346.5
1401.0287	9152.1
1404.48168	9152.3
1407.93234	9165.1
1411.38068	9279.3
1414.82669	9448.6
1418.27039	9560.4
1421.71177	9552.9
1425.15083	9429.2
1428.58758	9378.2
1432.02203	9501.8
1435.45416	9681.7
1438.88399	9661
1442.31151	9610.6
1445.73673	9647.6
1449.15965	9746.6
1452.58027	9670.3
1455.9986	9457.7
1459.41463	9403.4
1462.82837	9571.1
1466.23982	9910.8
1469.64898	10275.6
1473.05586	10491.1
1476.46045	10627.1
1479.86276	10951.6
1483.26279	11495.8
1486.66054	12193.4
1490.05602	13122.7
1493.44922	14559.9
1496.84016	16996.1
1500.22882	20933.7
1503.61521	26411.3
1506.99934	32581.2
1510.38121	37752.4
1513.76081	39102.5
1517.13816	35072.7
1520.51324	27717.9
1523.88607	21018.8
1527.25665	16754.6
1530.62498	14456.8
1533.99105	13117.1
1537.35488	12297
1540.71647	11881.8
1544.07581	11866
1547.4329	12063.8
1550.78776	12270.1
1554.14038	12512.7
1557.49077	12808.1
1560.83892	13337.4
1564.18484	14259.8
1567.52853	15430.3
1570.86999	16339.7
1574.20922	16858.4
1577.54624	16557.7
1580.88103	14812.3
1584.2136	12546.2
1587.54395	11055.8
1590.87208	10725.5
1594.19801	11390.7
1597.52172	12612.7
1600.84321	13157.2
1604.16251	12533.4
1607.47959	11522.2
1610.79447	10512.6
1614.10715	9456.2
1617.41763	8616.9
1620.7259	8121.2
1624.03199	7932.6
1627.33587	7991.4
1630.63757	8280.9
1633.93707	8868.3
1637.23439	9894.5
1640.52951	11736.4
1643.82246	14729.8
1647.11321	18755.1
1650.40179	21968.9
1653.68819	21460.9
1656.97241	17385.1
1660.25446	12981.7
1663.53433	10063.3
1666.81203	8416.7
1670.08756	7530.9
1673.36092	6970.1
1676.63211	6629.2
1679.90115	6399.5
1683.16801	6222.7
1686.43272	6072.2
1689.69527	5983
1692.95567	5895.1
1696.2139	5839.8
1699.46999	5783.1
1702.72392	5762.2
1705.97571	5754.2
1709.22535	5771.6
1712.47284	5756.6
1715.71819	5796.9
1718.96139	5773.9
1722.20246	5766.5
1725.44139	5691
1728.67818	5625.7
1731.91284	5519.9
1735.14537	5452.1
1738.37576	5364.7
1741.60403	5328.2
1744.83017	5305.4
1748.05418	5277
1751.27607	5231.2
1754.49584	5238.9
1757.71349	5205.6
1760.92903	5195.7
1764.14244	5159.8
1767.35375	5126.3
1770.56294	5081.7
1773.77002	5052.6
1776.97499	5006.1
1780.17785	4976.9
1783.37861	4949.5
1786.57727	4929.8
1789.77382	4893.1
1792.96828	4889
1796.16064	4896.9
1799.3509	4883.4
1802.53907	4846.3
1805.72514	4847.6
1808.90913	4791.9
1812.09102	4770.8
1815.27083	4748.9
1818.44856	4734.1
1821.6242	4716.2
1824.79776	4683.6
1827.96924	4692.3
1831.13864	4668.5
1834.30597	4658.3
1837.47122	4652.1
1840.6344	4634.3
1843.7955	4620.5
1846.95454	4621.1
1850.11151	4622
1853.26642	4589.3
1856.41926	4593.8
1859.57004	4593.4
1862.71876	4593.3
1865.86542	4568.7
1869.01003	4587.4
1872.15258	4595.2
1875.29308	4583
1878.43152	4582.6
1881.56792	4589.6
1884.70227	4575.4
1887.83457	4572.6
1890.96482	4586.7
1894.09304	4561.3
1897.21921	4557.7
1900.34335	4557.6
1903.46544	4564.1
1906.58551	4550.4
1909.70353	4560.3
1912.81953	4552.3
1915.93349	4541.4
1919.04543	4522.2
1922.15534	4527.7
1925.26322	4498
1928.36908	4501.5
1931.47292	4459.2
1934.57473	4424.3
1937.67453	4414.3
1940.77232	4394.2
1943.86808	4375.6
1946.96184	4374.8
1950.05358	4353.4
1953.14331	4344.1
1956.23103	4327.5
1959.31675	4322.5
1962.40046	4301.5
1965.48217	4326.4
1968.56188	4306.7
1971.63959	4301
1974.7153	4294.1
1977.78901	4283.3
1980.86073	4247.2
1983.93046	4249.2
1986.99819	4201.1
1990.06394	4178.9
1993.1277	4154.4
1996.18947	4131.2
1999.24925	4112
2002.30706	4100.9
2005.36288	4080.1
2008.41672	4077.1
2011.46859	4050.6
2014.51848	4038.1
2017.56639	4035.5
2020.61233	4013.2
2023.6563	4006.2
2026.6983	3979.4
2029.73833	3986.1
2032.7764	3944.9
2035.8125	3949.3
2038.84664	3933.7
2041.87881	3947.8
2044.90903	3926.4
2047.93729	3918.5
2050.96359	3917.2
2053.98794	3899.7
2057.01034	3892.6
2060.03078	3892.1
2063.04927	3881
2066.06582	3877.5
2069.08042	3875
2072.09307	3849
2075.10378	3841.6
2078.11255	3845
2081.11938	3869.3
2084.12426	3847
2087.12722	3837.3
2090.12824	3850.9
2093.12732	3849.2
2096.12447	3854.1
2099.11969	3855.9
2102.11299	3838.1
2105.10435	3834.7
2108.09379	3846.9
2111.08131	3855.6
2114.0669	3864.1
2117.05057	3865.1
2120.03233	3868.5
2123.01216	3871.8
2125.99008	3872
2128.96609	3883.3
2131.94018	3882.6
2134.91236	3895.2
2137.88263	3884.5
2140.851	3885.5
2143.81746	3856.2
2146.78201	3852.1
2149.74466	3858.6
2152.7054	3839.7
2155.66425	3819.5
2158.6212	3828.9
2161.57625	3823
2164.52941	3797
2167.48067	3805.9
2170.43004	3790.2
2173.37752	3809.4
2176.32311	3806.1
2179.26681	3794.4
2182.20863	3798.4
2185.14856	3814.1
2188.08661	3798.1
2191.02278	3801.9
2193.95707	3784.8
2196.88948	3779.1
2199.82001	3779.5
2202.74867	3759.4
2205.67545	3766.3
2208.60037	3761.7
2211.52341	3753.3
2214.44458	3750.3
2217.36388	3729.9
2220.28132	3730.7
2223.1969	3712.4
2226.11061	3707.9
2229.02246	3687
2231.93245	3698.3
2234.84058	3670.7
2237.74686	3660.9
2240.65128	3668.9
2243.55385	3653.5
2246.45456	3656.4
2249.35343	3650.9
2252.25044	3655.2
2255.14561	3661.7
2258.03893	3694.7
2260.93041	3696
2263.82004	3687.2
2266.70783	3679.4
2269.59378	3668.2
2272.4779	3666.3
2275.36017	3662.5
2278.24061	3635.7
2281.11922	3624.3
2283.996	3615.8
2286.87094	3600.2
2289.74405	3574.9
2292.61534	3569.1
2295.4848	3559.6
2298.35243	3563.6
2301.21824	3540.9
2304.08223	3535
2306.94439	3546.3
2309.80474	3530.9
2312.66327	3526.1
2315.51999	3541.6
2318.37489	3526.3
2321.22797	3526.2
2324.07925	3513.6
2326.92871	3508.3
2329.77637	3504.2
2332.62222	3494.7
2335.46626	3506.7
2338.3085	3502.7
2341.14893	3496.9
2343.98756	3502.9
2346.8244	3516.4
2349.65943	3521
2352.49267	3547.3
2355.32411	3567
2358.15376	3573.3
2360.98161	3609.5
2363.80768	3618.6
2366.63195	3653.4
2369.45444	3649.2
2372.27514	3662.9
2375.09405	3654.5
2377.91118	3625.4
2380.72652	3606.8
2383.54009	3575.5
2386.35187	3532.5
2389.16188	3497.2
2391.97011	3482.8
2394.77657	3455
2397.58125	3429.8
2400.38416	3407
2403.18529	3401.2
2405.98466	3377.6
2408.78226	3390
2411.57809	3382.2
2414.37216	3373.4
2417.16446	3380.5
2419.955	3359.3
2422.74378	3363.3
2425.5308	3364.9
2428.31606	3371.4
2431.09956	3379.1
2433.88131	3363.5
2436.6613	3385
2439.43954	3391.5
2442.21603	3400.7
2444.99077	3402.4
2447.76377	3415.2
2450.53501	3422
2453.30451	3421
2456.07226	3418.7
2458.83827	3421.2
2461.60254	3422.8
2464.36507	3403.5
2467.12586	3393.2
2469.88492	3394
2472.64224	3406.2
2475.39782	3421.7
2478.15167	3443.9
2480.90379	3447.1
2483.65417	3477
2486.40283	3507.5
2489.14976	3532.4
2491.89497	3549.7
2494.63845	3548.7
2497.3802	3549.2
2500.12024	3515.4
2502.85855	3492
2505.59514	3462.8
2508.33002	3427
2511.06318	3398.9
2513.79462	3357.8
2516.52435	3321.6
2519.25237	3289.5
2521.97867	3272.4
2524.70327	3258.9
2527.42616	3237.6
2530.14734	3242.3
2532.86681	3233.4
2535.58458	3224.9
2538.30065	3234.7
2541.01501	3253.8
2543.72768	3239.7
2546.43864	3246.5
2549.14791	3255.7
2551.85548	3251.3
2554.56136	3252.3
2557.26554	3249.5
2559.96803	3262.8
2562.66883	3249.7
2565.36794	3242.2
2568.06536	3226.1
2570.7611	3221.8
2573.45514	3220.4
2576.14751	3208.2
2578.83819	3199
2581.52719	3186.6
2584.21451	3168.5
2586.90015	3162.3
2589.58411	3163.8
2592.2664	3158.3
2594.94701	3146.3
2597.62594	3139.4
2600.30321	3140.1
2602.9788	3131.1
2605.65273	3126.5
2608.32498	3151.8
2610.99557	3148.6
2613.66449	3146
2616.33175	3149.4
2618.99734	3151.6
2621.66128	3153.9
2624.32355	3120.3
2626.98416	3108.2
2629.64311	3121.6
2632.30041	3090.1
2634.95605	3089.9
2637.61004	3071.4
2640.26238	3070.6
2642.91306	3058.1
2645.56209	3061.4
2648.20948	3062.2
2650.85521	3048.5
2653.4993	3039
2656.14175	3058.3
2658.78255	3064.9
2661.42171	3081
2664.05923	3093.5
2666.6951	3096
2669.32934	3101.2
2671.96194	3097.2
2674.59291	3111.4
2677.22224	3105.4
2679.84993	3121
2682.476	3119
2685.10043	3111
2687.72324	3105.7
2690.34441	3097
2692.96396	3100.2
2695.58188	3100.4
2698.19818	3099
2700.81285	3096.8
2703.4259	3098
2706.03733	3112.8
2708.64714	3120.8
2711.25533	3117.5
2713.86191	3124.6
2716.46687	3134.9
2719.07021	3138.6
2721.67194	3147.1
2724.27206	3132.6
2726.87057	3142.9
2729.46747	3123.2
2732.06276	3125.7
2734.65644	3115.1
2737.24852	3106.2
2739.83899	3092.9
2742.42786	3085.4
2745.01513	3072.4
2747.60079	3048.5
2750.18486	3059.2
2752.76733	3043.2
2755.3482	3041.5
2757.92747	3036.2
2760.50515	3021.3
2763.08123	3020.4
2765.65573	3016.3
2768.22863	3019.5
2770.79994	3013
2773.36967	3004.3
2775.9378	3018.8
2778.50435	3010.4
2781.06932	3008.5
2783.6327	3011.4
2786.1945	3023.9
2788.75471	3029.1
2791.31335	3017.4
2793.87041	3028.4
2796.42589	3018.5
2798.97979	3028.3
2801.53212	3018
2804.08288	3039.3
2806.63206	3041.6
2809.17967	3043.8
2811.72571	3059.9
2814.27018	3071.9
2816.81308	3077.1
2819.35442	3080.4
2821.89419	3113.9
2824.43239	3118.8
2826.96904	3136.9
2829.50412	3135.9
2832.03763	3149.8
2834.56959	3143.3
2837.1	3152.4
2839.62884	3172.4
2842.15613	3186.2
2844.68186	3243.2
2847.20604	3286.5
2849.72867	3318.8
2852.24974	3351.5
2854.76927	3363.1
2857.28724	3352.6
2859.80367	3354.5
2862.31855	3363.7
2864.83189	3349
2867.34368	3358.1
2869.85393	3349.7
2872.36264	3358
2874.8698	3369.3
2877.37543	3361.9
2879.87952	3347.1
2882.38207	3320.1
2884.88308	3313.8
2887.38256	3309.6
2889.88051	3287.9
2892.37692	3285.1
2894.8718	3285.1
2897.36515	3301.7
2899.85698	3287.6
2902.34727	3301.7
2904.83604	3292.6
2907.32328	3315
2909.809	3293.6
2912.29319	3300.5
2914.77587	3289.8
2917.25702	3307.2
2919.73665	3289.8
2922.21476	3294.9
2924.69136	3270.8
2927.16644	3272.6
2929.64	3253.1
2932.11205	3250.1
2934.58258	3223.9
2937.05161	3222.9
2939.51912	3207.3
2941.98513	3163.6
2944.44962	3147.5
2946.91261	3123.2
2949.37409	3106
2951.83407	3090.5
2954.29254	3062.7
2956.74951	3061.3
2959.20498	3048.4
2961.65895	3041.4
2964.11142	3029.6
2966.56239	3014.5
2969.01186	3011.9
2971.45984	3001.8
2973.90632	2992.4
2976.35131	2971.9
2978.7948	2969.4
2981.23681	2959
2983.67732	2937.1
2986.11635	2937.2
2988.55388	2926.3
2990.98993	2921.9
2993.4245	2917.9
2995.85758	2912.9
2998.28917	2906.8
3000.71928	2903.9
3003.14791	2907.6
3005.57506	2894.2
3008.00073	2895.7
3010.42493	2890.1
3012.84764	2897.5
3015.26888	2895.6
3017.68865	2888.9
3020.10694	2882.3
3022.52376	2882.3
3024.9391	2867.4
3027.35298	2862.6
3029.76539	2861.6
3032.17632	2858.6
3034.5858	2834.1
3036.9938	2822.1
3039.40034	2806.5
3041.80542	2821.3
3044.20903	2796.3
3046.61118	2799.6
3049.01187	2796.4
3051.4111	2776.9
3053.80888	2781.1
3056.20519	2793.3
3058.60005	2772.5
3060.99345	2782.6
3063.3854	2779.5
3065.7759	2761.4
3068.16494	2766.8
3070.55254	2745.6
3072.93868	2731.8
3075.32338	2730.4
3077.70662	2708.2
3080.08842	2706.7
3082.46878	2717.6
3084.84769	2700.2
3087.22515	2701.4
3089.60118	2679.4
3091.97576	2684.4
3094.3489	2690.5
3096.72061	2685.6
3099.09087	2692.9
3101.4597	2681.6
3103.82709	2687.7
3106.19305	2671.1
3108.55757	2691.7
3110.92066	2684.4
3113.28232	2675.8
3115.64255	2675.7
3118.00134	2683.2
3120.35871	2668.2
3122.71466	2665
3125.06917	2665
3127.42226	2667
3129.77393	2673.9
3132.12417	2686.5
3134.47299	2687.1
3136.82039	2676.9
3139.16636	2687.9
3141.51092	2701
3143.85406	2694.6
3146.19579	2710
3148.53609	2709.6
3150.87499	2712.5
3153.21246	2724.1
3155.54853	2723.1
3157.88318	2738.9
3160.21642	2741.6
3162.54826	2741.3
3164.87868	2753.7
3167.2077	2751.2
3169.5353	2761.4
3171.86151	2752.5
3174.18631	2767.1
3176.5097	2746.2
3178.83169	2754.5
3181.15228	2749.8
3183.47147	2759.1
3185.78926	2767
3188.10565	2759
3190.42065	2770.4
3192.73424	2785.2
3195.04645	2782.3
3197.35725	2788.9
3199.66667	2799.2
3201.97469	2811.7
3204.28132	2810.3
3206.58656	2822.9
3208.8904	2832.2
3211.19287	2825.2
3213.49394	2835
3215.79363	2842.1
3218.09193	2849.4
3220.38884	2861.9
3222.68438	2853.7
3224.97853	2856.3
3227.2713	2868.4
3229.56269	2859.3
3231.8527	2857.4
3234.14133	2839.3
3236.42858	2831.3
3238.71446	2826.3
3240.99896	2827.8
3243.28209	2835.2
3245.56384	2851.1
3247.84423	2837.5
3250.12324	2829.6
3252.40088	2835.5
3254.67715	2821.1
3256.95205	2825.3
3259.22558	2823
3261.49775	2808.5
3263.76855	2823.2
3266.03799	2822.8
3268.30606	2821.6
3270.57277	2814
3272.83812	2822.9
3275.10211	2811.2
3277.36474	2793.6
3279.62601	2808.3
3281.88593	2794.7
3284.14448	2805.7
3286.40168	2812
3288.65753	2800.4
3290.91202	2818.7
3293.16516	2798.9
3295.41695	2804.7
3297.66738	2782.5
3299.91647	2776
3302.16421	2770.8
3304.4106	2743.5
3306.65564	2729.3
3308.89933	2716.6
3311.14169	2692.7
3313.38269	2655.7
3315.62236	2636.6
3317.86068	2612.4
3320.09766	2581.5
3322.3333	2570.5
3324.5676	2544.2
3326.80056	2521.5
3329.03219	2516.6
3331.26248	1.5
3333.49143	0.9
3335.71905	0
