Data from AgNPs_FTO_APTES_UA_50uM_CRN_20uM_R6G_10uM_NaF_0.1M_Addition_RamanShift__30__14-29-14-953.txt Node

Date: Mon Feb 21 14:29:14 GMT 2022
User: TCL
Spectrometer: QEP01345
Trigger mode: 4
Integration Time (sec): 7.000000E0
Scans to average: 10
Electric dark correction enabled: true
Nonlinearity correction enabled: false
Boxcar width: 0
XAxis mode: Raman Shifts
Number of Pixels in Spectrum: 1044
>>>>>Begin Spectral Data<<<<<
46.04893	0.5
50.45542	-1.7
54.85868	-0.9
59.25871	-0.8
63.6555	43.6
68.04907	49
72.43941	52.8
76.82654	53.1
81.21044	59.7
85.59113	61.4
89.96862	60.4
94.34289	67.3
98.71396	64.9
103.08183	72.8
107.4465	71.2
111.80798	68
116.16626	68.7
120.52136	71.6
124.87327	80.3
129.222	73.5
133.56755	74.9
137.90993	78.5
142.24913	85.9
146.58517	90.3
150.91804	99.7
155.24774	115.4
159.57429	135
163.89768	166.7
168.21792	219.8
172.53501	284.9
176.84895	396.1
181.15975	539.1
185.46741	753.8
189.77193	1035.9
194.07331	1396.4
198.37157	1783.9
202.6667	2206.5
206.9587	2623.7
211.24758	3060.2
215.53334	3536.8
219.81599	4047.9
224.09553	4702.3
228.37195	5405.1
232.64527	6164.1
236.91549	6891.3
241.18261	7538.7
245.44663	8010.2
249.70755	8357.8
253.96539	8582.1
258.22014	8732.9
262.4718	8848.1
266.72039	8920.1
270.96589	8895.6
275.20832	8781.8
279.44768	8543.4
283.68397	8342.1
287.91719	8244.3
292.14735	8330.1
296.37445	8745.6
300.59849	9437.3
304.81948	10253.7
309.03742	10851.6
313.25231	10900.9
317.46415	10121.9
321.67296	8889.6
325.87872	7886.9
330.08145	7393.1
334.28114	7399.2
338.47781	7608.2
342.67145	7979.5
346.86207	8573
351.04966	9457.1
355.23424	10471.4
359.4158	11216.5
363.59435	11489.1
367.76989	11487.5
371.94243	11375
376.11196	11145.2
380.27849	10933.8
384.44203	10653.2
388.60257	10305.9
392.76012	10067.3
396.91468	10103.7
401.06626	10443.5
405.21485	10709.1
409.36047	10284
413.50311	9271
417.64277	8361.5
421.77947	7777.3
425.9132	7512.2
430.04396	7395.9
434.17176	7440.3
438.2966	7577.5
442.41849	7876.8
446.53742	8184.6
450.6534	8481.9
454.76644	8584.7
458.87653	8556.4
462.98368	8375.7
467.08789	8163.1
471.18916	7873
475.2875	7531.5
479.38291	7298.2
483.4754	7122
487.56496	7027.1
491.6516	6959
495.73531	6972.6
499.81612	7029.1
503.89401	7206.3
507.96899	7439.5
512.04106	7733.6
516.11023	8054.3
520.1765	8279.6
524.23987	8207
528.30034	7963.6
532.35792	7635.4
536.41261	7326.4
540.46441	6970.9
544.51333	6763.1
548.55936	6787.7
552.60252	7028.5
556.64279	7357.7
560.6802	7501.4
564.71473	7784.3
568.7464	8455.8
572.7752	8768
576.80114	8169.6
580.82422	7501
584.84444	7205.4
588.86181	7110.7
592.87633	7126.7
596.888	7267.1
600.89682	7781
604.9028	9605
608.90594	14695.3
612.90624	21648.8
616.90371	20570.1
620.89834	12066.2
624.89015	8121.8
628.87913	7399.9
632.86528	7554.2
636.84862	7867.9
640.82913	7671.7
644.80683	7019.3
648.78172	6540.9
652.75379	6581
656.72306	7199.7
660.68952	7916.8
664.65319	7677.1
668.61405	6862
672.57211	6454.5
676.52738	6413.5
680.47986	6415.9
684.42955	6305
688.37646	6224.5
692.32058	6250
696.26192	6316
700.20048	6458.3
704.13626	6579.5
708.06928	6555
711.99952	6437.6
715.927	6431.5
719.85171	6501.8
723.77365	6533
727.69284	6469.5
731.60928	6364
735.52295	6355.3
739.43388	6397.2
743.34206	6463.6
747.24749	6478.3
751.15017	6527.5
755.05012	6759
758.94733	7425.9
762.8418	9030.1
766.73354	11827.4
770.62254	14655.9
774.50882	16325.4
778.39237	15724.9
782.27321	12668.8
786.15132	9503.9
790.02671	7711.8
793.89938	6970.1
797.76935	6647.4
801.6366	6526.8
805.50115	6448.4
809.36299	6448.6
813.22213	6395.7
817.07857	6372.2
820.93231	6337.2
824.78336	6354.5
828.63172	6410.8
832.47738	6435.7
836.32036	6367.4
840.16066	6289.6
843.99827	6213.6
847.8332	6190.8
851.66546	6169.5
855.49504	6192.5
859.32195	6173.1
863.1462	6118
866.96777	6092.1
870.78668	6075.9
874.60293	6114.7
878.41652	6184.6
882.22745	6274.8
886.03573	6369.5
889.84136	6347.7
893.64433	6286.8
897.44466	6261.1
901.24235	6273.2
905.0374	6197.5
908.8298	6115
912.61957	6040.5
916.40671	6029.2
920.19121	6101
923.97308	6228.5
927.75233	6407
931.52895	6605
935.30295	6515.8
939.07433	6149.4
942.84309	5814.2
946.60924	5644.6
950.37278	5538.6
954.13371	5510
957.89203	5499.7
961.64774	5471.5
965.40086	5462.3
969.15137	5440.3
972.89929	5418.1
976.64461	5419.9
980.38733	5411.4
984.12747	5442.6
987.86502	5457.4
991.59999	5502.5
995.33237	5587.2
999.06217	5742
1002.78939	5971.4
1006.51404	6166.7
1010.23611	6397.9
1013.95561	6530.8
1017.67255	6491.7
1021.38692	6353
1025.09872	6193.2
1028.80796	6086.7
1032.51465	6135.7
1036.21877	6265.8
1039.92035	6353.3
1043.61937	6405
1047.31584	6398.8
1051.00976	6361.7
1054.70114	6286
1058.38998	6239.3
1062.07627	6275.8
1065.76003	6283.5
1069.44126	6353.7
1073.11995	6488.4
1076.79611	6683.4
1080.46974	6990.3
1084.14085	7422.1
1087.80943	7829.1
1091.47549	7934
1095.13903	7629.7
1098.80005	7101
1102.45857	6756.6
1106.11456	6644.9
1109.76805	6811.2
1113.41903	7199.5
1117.06751	7817.7
1120.71348	8631.8
1124.35696	9521.9
1127.99793	10117.8
1131.63641	9749.1
1135.2724	8760.5
1138.90589	7908
1142.5369	7402.9
1146.16542	7056.4
1149.79145	6859.4
1153.415	6814.5
1157.03607	6912.3
1160.65467	7129.1
1164.27079	7570.9
1167.88443	8234.7
1171.49561	9378
1175.10432	11370.8
1178.71056	14017.5
1182.31434	15860.1
1185.91565	16078.9
1189.51451	15085.8
1193.11091	13509.9
1196.70485	11870.6
1200.29634	10832.6
1203.88538	10040.9
1207.47197	9004.7
1211.05612	8117.4
1214.63782	7590.7
1218.21708	7375.5
1221.79391	7340.3
1225.36829	7381.1
1228.94024	7395.9
1232.50976	7394
1236.07685	7414.3
1239.6415	7451
1243.20374	7532.5
1246.76355	7606.7
1250.32093	7712.2
1253.8759	7939.3
1257.42845	8285.4
1260.97859	8761.1
1264.52631	9221.6
1268.07163	9691.8
1271.61453	10110.9
1275.15503	10365.9
1278.69312	10433.6
1282.22882	10525.8
1285.76211	10925.6
1289.29301	11485.5
1292.82151	12053.8
1296.34761	12660.7
1299.87133	13748.1
1303.39266	15785.2
1306.9116	18859.7
1310.42815	22004.4
1313.94233	23071
1317.45412	21351.3
1320.96354	18473.5
1324.47058	15737.8
1327.97525	13644.6
1331.47754	12489.8
1334.97747	12142.9
1338.47502	12345.4
1341.97022	13129.5
1345.46305	14513.5
1348.95352	16461.3
1352.44163	18934.5
1355.92738	22469.2
1359.41078	27621.2
1362.89183	31481.4
1366.37053	29186.8
1369.84688	23048.7
1373.32088	17722.1
1376.79254	14283.5
1380.26186	12415.1
1383.72883	11268.1
1387.19347	10413.1
1390.65578	9619.5
1394.11575	9066.5
1397.57339	8770.6
1401.0287	8737
1404.48168	8776.6
1407.93234	8856.4
1411.38068	9005
1414.82669	9107
1418.27039	9109
1421.71177	8973.6
1425.15083	8819.8
1428.58758	8752.4
1432.02203	8889.1
1435.45416	9010.5
1438.88399	8956.9
1442.31151	8929.4
1445.73673	8949.1
1449.15965	9054.1
1452.58027	8994
1455.9986	8883.2
1459.41463	8845.4
1462.82837	8999.1
1466.23982	9294.1
1469.64898	9598.4
1473.05586	9791.1
1476.46045	9923.7
1479.86276	10201.5
1483.26279	10650.9
1486.66054	11214.4
1490.05602	12046.5
1493.44922	13296
1496.84016	15291.6
1500.22882	18414.6
1503.61521	22572.1
1506.99934	27078.8
1510.38121	30448.5
1513.76081	30813.2
1517.13816	27411.6
1520.51324	22022.7
1523.88607	17340.1
1527.25665	14398.1
1530.62498	12791.3
1533.99105	11877.8
1537.35488	11266.5
1540.71647	11001.5
1544.07581	10975.5
1547.4329	11039.7
1550.78776	11140
1554.14038	11229.7
1557.49077	11386.3
1560.83892	11733.4
1564.18484	12437.1
1567.52853	13284.7
1570.86999	14016
1574.20922	14344
1577.54624	14081
1580.88103	12725.8
1584.2136	11049
1587.54395	10090.5
1590.87208	10025.1
1594.19801	10737.1
1597.52172	11818
1600.84321	12265.5
1604.16251	11672.4
1607.47959	10682.5
1610.79447	9687.7
1614.10715	8680.8
1617.41763	7963.6
1620.7259	7552.8
1624.03199	7371.3
1627.33587	7450.5
1630.63757	7725.6
1633.93707	8268.1
1637.23439	9214
1640.52951	10703.4
1643.82246	12978.4
1647.11321	15903.3
1650.40179	17992.4
1653.68819	17254.8
1656.97241	14075.1
1660.25446	10766.1
1663.53433	8550.1
1666.81203	7319.6
1670.08756	6628.7
1673.36092	6268.8
1676.63211	6020.1
1679.90115	5850.4
1683.16801	5683.6
1686.43272	5592.7
1689.69527	5504.9
1692.95567	5378.6
1696.2139	5294.7
1699.46999	5159.5
1702.72392	5141.2
1705.97571	5189.2
1709.22535	5282.5
1712.47284	5344.8
1715.71819	5383.1
1718.96139	5381
1722.20246	5372.9
1725.44139	5329.7
1728.67818	5272
1731.91284	5207.8
1735.14537	5121.8
1738.37576	5079
1741.60403	5048.9
1744.83017	5009
1748.05418	4981.1
1751.27607	4940.2
1754.49584	4885.5
1757.71349	4815.1
1760.92903	4757.3
1764.14244	4749
1767.35375	4745
1770.56294	4694.3
1773.77002	4693.1
1776.97499	4706.7
1780.17785	4731.2
1783.37861	4732.5
1786.57727	4736.3
1789.77382	4734.6
1792.96828	4728.8
1796.16064	4744.1
1799.3509	4719.7
1802.53907	4712.8
1805.72514	4711.5
1808.90913	4684.4
1812.09102	4664
1815.27083	4634.8
1818.44856	4634
1821.6242	4609.9
1824.79776	4596.7
1827.96924	4589.3
1831.13864	4579.6
1834.30597	4582.4
1837.47122	4562.8
1840.6344	4556.5
1843.7955	4553.5
1846.95454	4546.9
1850.11151	4546
1853.26642	4537
1856.41926	4552
1859.57004	4534.1
1862.71876	4531.3
1865.86542	4549.4
1869.01003	4550.2
1872.15258	4538
1875.29308	4545.4
1878.43152	4546.3
1881.56792	4544.6
1884.70227	4535.4
1887.83457	4530.9
1890.96482	4542.1
1894.09304	4543
1897.21921	4529.2
1900.34335	4522.9
1903.46544	4550.8
1906.58551	4543.4
1909.70353	4545.3
1912.81953	4537.2
1915.93349	4557.4
1919.04543	4542.1
1922.15534	4510.8
1925.26322	4510.8
1928.36908	4490.3
1931.47292	4466.2
1934.57473	4439.6
1937.67453	4411.2
1940.77232	4393.4
1943.86808	4383
1946.96184	4356.4
1950.05358	4351.4
1953.14331	4333.8
1956.23103	4308
1959.31675	4278.4
1962.40046	4292
1965.48217	4272.9
1968.56188	4282.4
1971.63959	4273.3
1974.7153	4276.2
1977.78901	4239.7
1980.86073	4227.2
1983.93046	4196
1986.99819	4188.1
1990.06394	4151.5
1993.1277	4155.1
1996.18947	4137.1
1999.24925	4110.5
2002.30706	4085.6
2005.36288	4084.4
2008.41672	4073.5
2011.46859	4042.2
2014.51848	4045.9
2017.56639	4031.2
2020.61233	4014.9
2023.6563	3984
2026.6983	3976.4
2029.73833	3984.5
2032.7764	3970.2
2035.8125	3955.9
2038.84664	3950.4
2041.87881	3949.1
2044.90903	3935.2
2047.93729	3941.3
2050.96359	3929.4
2053.98794	3927
2057.01034	3930.1
2060.03078	3911
2063.04927	3901.2
2066.06582	3895.6
2069.08042	3890.5
2072.09307	3895.5
2075.10378	3862.6
2078.11255	3870.9
2081.11938	3871.5
2084.12426	3862
2087.12722	3861.3
2090.12824	3868.6
2093.12732	3862.7
2096.12447	3878.1
2099.11969	3852.9
2102.11299	3863
2105.10435	3863.9
2108.09379	3861.4
2111.08131	3863.8
2114.0669	3867.6
2117.05057	3875.7
2120.03233	3882.5
2123.01216	3895.2
2125.99008	3888.9
2128.96609	3893.4
2131.94018	3896
2134.91236	3894.2
2137.88263	3893.8
2140.851	3900
2143.81746	3885.7
2146.78201	3876.6
2149.74466	3867
2152.7054	3866.6
2155.66425	3853.7
2158.6212	3852.4
2161.57625	3855.3
2164.52941	3835.3
2167.48067	3836.1
2170.43004	3841.8
2173.37752	3843.9
2176.32311	3846.3
2179.26681	3839.7
2182.20863	3841.3
2185.14856	3834.1
2188.08661	3841.9
2191.02278	3843.2
2193.95707	3829.5
2196.88948	3813.5
2199.82001	3822.7
2202.74867	3811.6
2205.67545	3815
2208.60037	3795.8
2211.52341	3806
2214.44458	3779
2217.36388	3789.4
2220.28132	3786.6
2223.1969	3767.4
2226.11061	3760.8
2229.02246	3739.4
2231.93245	3736.4
2234.84058	3729.2
2237.74686	3719.5
2240.65128	3721.3
2243.55385	3727.1
2246.45456	3708.1
2249.35343	3725.7
2252.25044	3732.4
2255.14561	3715.5
2258.03893	3743.1
2260.93041	3716.8
2263.82004	3729.9
2266.70783	3724.6
2269.59378	3715.6
2272.4779	3708.6
2275.36017	3695.9
2278.24061	3686.6
2281.11922	3676.9
2283.996	3667.1
2286.87094	3651.9
2289.74405	3641.7
2292.61534	3641.8
2295.4848	3618.8
2298.35243	3603.4
2301.21824	3618.3
2304.08223	3610.9
2306.94439	3600.5
2309.80474	3601.6
2312.66327	3610.9
2315.51999	3612
2318.37489	3602.1
2321.22797	3600.6
2324.07925	3594.8
2326.92871	3593.1
2329.77637	3595
2332.62222	3579
2335.46626	3572.3
2338.3085	3570
2341.14893	3581.3
2343.98756	3575.2
2346.8244	3591.8
2349.65943	3594
2352.49267	3616.1
2355.32411	3625.6
2358.15376	3640.4
2360.98161	3653.6
2363.80768	3659.2
2366.63195	3688.1
2369.45444	3677.5
2372.27514	3683.3
2375.09405	3686.3
2377.91118	3669.6
2380.72652	3644.6
2383.54009	3620.8
2386.35187	3606.7
2389.16188	3565
2391.97011	3556.3
2394.77657	3526.6
2397.58125	3508.9
2400.38416	3499.6
2403.18529	3486.1
2405.98466	3478.8
2408.78226	3470.2
2411.57809	3453.3
2414.37216	3451.1
2417.16446	3453.2
2419.955	3443.7
2422.74378	3442.4
2425.5308	3456.4
2428.31606	3453.3
2431.09956	3447.1
2433.88131	3445.1
2436.6613	3453
2439.43954	3471.1
2442.21603	3473.4
2444.99077	3471
2447.76377	3483.6
2450.53501	3496.5
2453.30451	3492.8
2456.07226	3489.1
2458.83827	3480.3
2461.60254	3477.9
2464.36507	3481.3
2467.12586	3488.5
2469.88492	3488.3
2472.64224	3491.5
2475.39782	3499.4
2478.15167	3485.9
2480.90379	3516
2483.65417	3533.5
2486.40283	3566.8
2489.14976	3576.9
2491.89497	3583.8
2494.63845	3580.6
2497.3802	3568
2500.12024	3559.2
2502.85855	3551
2505.59514	3524.1
2508.33002	3513.1
2511.06318	3480.2
2513.79462	3449.7
2516.52435	3422.5
2519.25237	3411.8
2521.97867	3379.4
2524.70327	3370.4
2527.42616	3374.6
2530.14734	3352.9
2532.86681	3349.2
2535.58458	3376.9
2538.30065	3377.5
2541.01501	3380.1
2543.72768	3371.8
2546.43864	3372.3
2549.14791	3369.7
2551.85548	3377.2
2554.56136	3373.9
2557.26554	3371.5
2559.96803	3362.3
2562.66883	3368.9
2565.36794	3356.4
2568.06536	3359.4
2570.7611	3356.8
2573.45514	3330.1
2576.14751	3350.4
2578.83819	3312.1
2581.52719	3311.4
2584.21451	3315.3
2586.90015	3305.2
2589.58411	3298.4
2592.2664	3285.3
2594.94701	3285.5
2597.62594	3291.7
2600.30321	3282.5
2602.9788	3289.3
2605.65273	3301
2608.32498	3304.2
2610.99557	3299.3
2613.66449	3302
2616.33175	3296.5
2618.99734	3294.9
2621.66128	3286
2624.32355	3293.7
2626.98416	3287.5
2629.64311	3276.6
2632.30041	3270.4
2634.95605	3261.6
2637.61004	3231.1
2640.26238	3241.9
2642.91306	3230.1
2645.56209	3227
2648.20948	3221.2
2650.85521	3207.3
2653.4993	3226.5
2656.14175	3209.1
2658.78255	3225.6
2661.42171	3233
2664.05923	3257
2666.6951	3256.9
2669.32934	3277.7
2671.96194	3263.4
2674.59291	3274
2677.22224	3270.9
2679.84993	3266.7
2682.476	3270
2685.10043	3280.6
2687.72324	3267.7
2690.34441	3276.1
2692.96396	3265.4
2695.58188	3268.6
2698.19818	3248.8
2700.81285	3248.7
2703.4259	3237.5
2706.03733	3185
2708.64714	3207.2
2711.25533	3258
2713.86191	3263.2
2716.46687	3270.1
2719.07021	3281.1
2721.67194	3289.5
2724.27206	3287.3
2726.87057	3297.5
2729.46747	3276.7
2732.06276	3297.4
2734.65644	3268
2737.24852	3273.4
2739.83899	3258.1
2742.42786	3267.4
2745.01513	3250.2
2747.60079	3256.2
2750.18486	3234
2752.76733	3223
2755.3482	3233.5
2757.92747	3217.2
2760.50515	3219.3
2763.08123	3207.9
2765.65573	3202.4
2768.22863	3199.6
2770.79994	3190.9
2773.36967	3200.5
2775.9378	3196.4
2778.50435	3194.9
2781.06932	3198.2
2783.6327	3201.3
2786.1945	3212.7
2788.75471	3227.2
2791.31335	3218
2793.87041	3201.6
2796.42589	3206.2
2798.97979	3213
2801.53212	3211.1
2804.08288	3217.2
2806.63206	3208
2809.17967	3219.4
2811.72571	3226.8
2814.27018	3237.5
2816.81308	3246.3
2819.35442	3263.6
2821.89419	3268
2824.43239	3285.9
2826.96904	3291.2
2829.50412	3286.6
2832.03763	3291
2834.56959	3301.3
2837.1	3303.7
2839.62884	3316.1
2842.15613	3340.4
2844.68186	3354.5
2847.20604	3398.7
2849.72867	3414.1
2852.24974	3440.5
2854.76927	3437.1
2857.28724	3412.1
2859.80367	3433.7
2862.31855	3440.1
2864.83189	3429.5
2867.34368	3437.2
2869.85393	3453.3
2872.36264	3445.7
2874.8698	3443
2877.37543	3437.8
2879.87952	3442.8
2882.38207	3421.8
2884.88308	3409.6
2887.38256	3413.4
2889.88051	3405.1
2892.37692	3411.9
2894.8718	3406.7
2897.36515	3412.3
2899.85698	3419.1
2902.34727	3417.4
2904.83604	3407.8
2907.32328	3423.4
2909.809	3415.4
2912.29319	3420.2
2914.77587	3404
2917.25702	3403.8
2919.73665	3390.8
2922.21476	3385.6
2924.69136	3380.3
2927.16644	3379.2
2929.64	3355.1
2932.11205	3371.6
2934.58258	3344.1
2937.05161	3350.9
2939.51912	3325.5
2941.98513	3307.7
2944.44962	3309.5
2946.91261	3251.7
2949.37409	3251.7
2951.83407	3233.2
2954.29254	3227.7
2956.74951	3212.8
2959.20498	3205.4
2961.65895	3190.8
2964.11142	3191.3
2966.56239	3175
2969.01186	3167.3
2971.45984	3143.1
2973.90632	3144.8
2976.35131	3133.1
2978.7948	3121.9
2981.23681	3113.4
2983.67732	3117.6
2986.11635	3095.3
2988.55388	3082.8
2990.98993	3079.8
2993.4245	3079.9
2995.85758	3077.4
2998.28917	3069.6
3000.71928	3061.7
3003.14791	3071.5
3005.57506	3062.8
3008.00073	3059.5
3010.42493	3036.6
3012.84764	3049.8
3015.26888	3044.5
3017.68865	3038.3
3020.10694	3035.4
3022.52376	3033.4
3024.9391	3028.1
3027.35298	3009.9
3029.76539	2995.7
3032.17632	3002
3034.5858	2998.9
3036.9938	2992.7
3039.40034	2990.7
3041.80542	2972.2
3044.20903	2970.3
3046.61118	2976.2
3049.01187	2965.7
3051.4111	2962.2
3053.80888	2966.3
3056.20519	2940.3
3058.60005	2944.6
3060.99345	2943.4
3063.3854	2930.8
3065.7759	2936.6
3068.16494	2925.1
3070.55254	2902.8
3072.93868	2877.9
3075.32338	2884.3
3077.70662	2878
3080.08842	2870.7
3082.46878	2862.7
3084.84769	2849.7
3087.22515	2853.4
3089.60118	2856.6
3091.97576	2852.1
3094.3489	2857.8
3096.72061	2852.4
3099.09087	2841.4
3101.4597	2863.6
3103.82709	2862.8
3106.19305	2855.7
3108.55757	2849.6
3110.92066	2834.9
3113.28232	2834.4
3115.64255	2835.6
3118.00134	2840.3
3120.35871	2844.9
3122.71466	2836.4
3125.06917	2837.4
3127.42226	2838.8
3129.77393	2836.8
3132.12417	2835.7
3134.47299	2847.4
3136.82039	2852.4
3139.16636	2847.4
3141.51092	2849.6
3143.85406	2848.8
3146.19579	2857.2
3148.53609	2871.9
3150.87499	2860.8
3153.21246	2885.9
3155.54853	2902.7
3157.88318	2890.1
3160.21642	2898.8
3162.54826	2900.1
3164.87868	2906.2
3167.2077	2904.1
3169.5353	2919.6
3171.86151	2924.2
3174.18631	2927
3176.5097	2914.4
3178.83169	2919.8
3181.15228	2921.3
3183.47147	2923.7
3185.78926	2929.4
3188.10565	2926.9
3190.42065	2932.1
3192.73424	2946.9
3195.04645	2956.8
3197.35725	2937.7
3199.66667	2954.8
3201.97469	2970.6
3204.28132	2941.7
3206.58656	2980.1
3208.8904	2963
3211.19287	2979.7
3213.49394	2997.6
3215.79363	3005.4
3218.09193	3003.2
3220.38884	2991.5
3222.68438	2982
3224.97853	2982.8
3227.2713	2997
3229.56269	2984.3
3231.8527	3008.9
3234.14133	2991.1
3236.42858	2990
3238.71446	2984.8
3240.99896	2978.1
3243.28209	2977.2
3245.56384	2975.8
3247.84423	2972.4
3250.12324	2972
3252.40088	2974
3254.67715	2980
3256.95205	2992.6
3259.22558	2975.5
3261.49775	2974.6
3263.76855	2984.9
3266.03799	2981.6
3268.30606	2963.8
3270.57277	2962.6
3272.83812	2957.8
3275.10211	2945.4
3277.36474	2947.8
3279.62601	2950.3
3281.88593	2948.5
3284.14448	2961.9
3286.40168	2948.4
3288.65753	2949
3290.91202	2958
3293.16516	2945.7
3295.41695	2945.5
3297.66738	2926.2
3299.91647	2920.7
3302.16421	2891.4
3304.4106	2890.7
3306.65564	2865.8
3308.89933	2835.7
3311.14169	2823.4
3313.38269	2773.4
3315.62236	2759.2
3317.86068	2744.6
3320.09766	2720.3
3322.3333	2702.6
3324.5676	2677.4
3326.80056	2620.5
3329.03219	2606.3
3331.26248	0.7
3333.49143	-0.2
3335.71905	0.8
