Data from AgNPs_FTO_APTES_UA_50uM_CRN_100uM_R6G_10uM_NaF_0.1M_Addition_RamanShift__1__15-17-05-013.txt Node

Date: Mon Feb 21 15:17:05 GMT 2022
User: TCL
Spectrometer: QEP01345
Trigger mode: 4
Integration Time (sec): 7.000000E0
Scans to average: 10
Electric dark correction enabled: true
Nonlinearity correction enabled: false
Boxcar width: 0
XAxis mode: Raman Shifts
Number of Pixels in Spectrum: 1044
>>>>>Begin Spectral Data<<<<<
46.04893	-0.9375
50.45542	-0.4375
54.85868	-0.5375
59.25871	-1.3375
63.6555	61.3625
68.04907	68.5625
72.43941	65.3625
76.82654	72.3625
81.21044	74.1625
85.59113	77.8625
89.96862	82.9625
94.34289	86.3625
98.71396	86.8625
103.08183	94.9625
107.4465	93.0625
111.80798	91.3625
116.16626	93.5625
120.52136	96.5625
124.87327	102.9625
129.222	104.0625
133.56755	105.6625
137.90993	116.0625
142.24913	118.4625
146.58517	133.5625
150.91804	150.6625
155.24774	179.3625
159.57429	213.3625
163.89768	271.1625
168.21792	363.6625
172.53501	484.5625
176.84895	679.6625
181.15975	944.6625
185.46741	1321.8625
189.77193	1839.8625
194.07331	2451.8625
198.37157	3142.5625
202.6667	3880.0625
206.9587	4622.2625
211.24758	5343.5625
215.53334	6086.4625
219.81599	6847.5625
224.09553	7722.2625
228.37195	8661.6625
232.64527	9721.3625
236.91549	10832.2625
241.18261	11874.8625
245.44663	12882.4625
249.70755	13755.1625
253.96539	14498.7625
258.22014	15088.8625
262.4718	15594.4625
266.72039	15920.3625
270.96589	16125.4625
275.20832	16136.7625
279.44768	15964.6625
283.68397	15744.1625
287.91719	15530.5625
292.14735	15406.2625
296.37445	15420.0625
300.59849	15545.2625
304.81948	15682.9625
309.03742	15787.1625
313.25231	15749.5625
317.46415	15538.0625
321.67296	15136.6625
325.87872	14865.0625
330.08145	14701.4625
334.28114	14714.1625
338.47781	14835.9625
342.67145	15064.5625
346.86207	15347.8625
351.04966	15689.1625
355.23424	16070.6625
359.4158	16412.0625
363.59435	16652.5625
367.76989	16792.0625
371.94243	16878.5625
376.11196	16968.9625
380.27849	17038.9625
384.44203	17111.9625
388.60257	17224.0625
392.76012	17297.6625
396.91468	17441.7625
401.06626	17673.7625
405.21485	17876.4625
409.36047	17728.3625
413.50311	17361.9625
417.64277	17076.9625
421.77947	16945.3625
425.9132	16912.3625
430.04396	16985.9625
434.17176	17083.5625
438.2966	17251.6625
442.41849	17599.8625
446.53742	18068.1625
450.6534	18580.6625
454.76644	18879.3625
458.87653	18934.2625
462.98368	18753.3625
467.08789	18565.3625
471.18916	18259.4625
475.2875	17898.6625
479.38291	17592.5625
483.4754	17404.0625
487.56496	17246.5625
491.6516	17143.4625
495.73531	17119.5625
499.81612	17138.1625
503.89401	17278.5625
507.96899	17361.3625
512.04106	17355.2625
516.11023	17353.3625
520.1765	17336.1625
524.23987	17284.8625
528.30034	17265.2625
532.35792	17161.9625
536.41261	17014.9625
540.46441	16803.7625
544.51333	16725.6625
548.55936	16745.4625
552.60252	17027.9625
556.64279	17381.8625
560.6802	17599.4625
564.71473	17632.7625
568.7464	17759.3625
572.7752	18034.2625
576.80114	18205.3625
580.82422	18446.1625
584.84444	18987.0625
588.86181	19697.9625
592.87633	20557.7625
596.888	20916.9625
600.89682	20518.7625
604.9028	20661.6625
608.90594	22547.8625
612.90624	24842.5625
616.90371	23546.4625
620.89834	19626.7625
624.89015	17831.3625
628.87913	17608.9625
632.86528	17708.8625
636.84862	17715.8625
640.82913	17489.7625
644.80683	17050.9625
648.78172	16791.9625
652.75379	16722.0625
656.72306	16984.2625
660.68952	17303.1625
664.65319	17209.6625
668.61405	16924.5625
672.57211	16868.5625
676.52738	16978.4625
680.47986	16991.6625
684.42955	16814.8625
688.37646	16706.9625
692.32058	16742.1625
696.26192	16988.3625
700.20048	17199.1625
704.13626	17271.7625
708.06928	17184.3625
711.99952	17056.9625
715.927	17035.3625
719.85171	17148.1625
723.77365	17135.7625
727.69284	16948.2625
731.60928	16743.8625
735.52295	16737.6625
739.43388	16800.1625
743.34206	16849.3625
747.24749	16901.3625
751.15017	17023.5625
755.05012	17175.2625
758.94733	17613.6625
762.8418	18407.8625
766.73354	19813.0625
770.62254	21319.1625
774.50882	21920.2625
778.39237	21212.5625
782.27321	19736.7625
786.15132	18387.1625
790.02671	17525.3625
793.89938	17139.6625
797.76935	16949.8625
801.6366	16869.0625
805.50115	16794.8625
809.36299	16695.5625
813.22213	16577.7625
817.07857	16554.7625
820.93231	16444.4625
824.78336	16450.2625
828.63172	16395.5625
832.47738	16450.3625
836.32036	16482.9625
840.16066	16540.2625
843.99827	16591.7625
847.8332	16567.7625
851.66546	16500.6625
855.49504	16472.0625
859.32195	16482.7625
863.1462	16433.5625
866.96777	16419.4625
870.78668	16392.0625
874.60293	16494.0625
878.41652	16486.4625
882.22745	16600.2625
886.03573	16668.7625
889.84136	16655.7625
893.64433	16571.0625
897.44466	16481.1625
901.24235	16414.2625
905.0374	16377.7625
908.8298	16287.9625
912.61957	16300.2625
916.40671	16361.0625
920.19121	16514.3625
923.97308	16698.0625
927.75233	16820.9625
931.52895	16856.2625
935.30295	16697.4625
939.07433	16448.2625
942.84309	16189.4625
946.60924	16123.3625
950.37278	16029.6625
954.13371	15958.8625
957.89203	15926.3625
961.64774	15897.8625
965.40086	15905.4625
969.15137	15877.2625
972.89929	15848.3625
976.64461	15861.2625
980.38733	15891.6625
984.12747	15981.2625
987.86502	16096.4625
991.59999	16276.5625
995.33237	16560.7625
999.06217	16967.6625
1002.78939	17413.1625
1006.51404	17691.8625
1010.23611	17900.6625
1013.95561	18092.6625
1017.67255	18115.3625
1021.38692	17968.8625
1025.09872	17747.8625
1028.80796	17779.2625
1032.51465	18098.5625
1036.21877	18490.2625
1039.92035	18594.9625
1043.61937	18471.8625
1047.31584	18169.1625
1051.00976	17783.3625
1054.70114	17549.8625
1058.38998	17430.2625
1062.07627	17454.3625
1065.76003	17522.5625
1069.44126	17633.8625
1073.11995	17843.8625
1076.79611	18123.7625
1080.46974	18341.7625
1084.14085	18557.8625
1087.80943	18751.5625
1091.47549	18866.0625
1095.13903	18735.8625
1098.80005	18480.5625
1102.45857	18160.9625
1106.11456	17974.4625
1109.76805	17926.2625
1113.41903	18014.0625
1117.06751	18161.8625
1120.71348	18387.6625
1124.35696	18649.3625
1127.99793	18904.7625
1131.63641	18994.1625
1135.2724	18844.5625
1138.90589	18640.2625
1142.5369	18497.6625
1146.16542	18434.9625
1149.79145	18387.5625
1153.415	18408.6625
1157.03607	18532.3625
1160.65467	18909.2625
1164.27079	19503.7625
1167.88443	20342.9625
1171.49561	21435.9625
1175.10432	22913.0625
1178.71056	24841.9625
1182.31434	26656.4625
1185.91565	27510.6625
1189.51451	27306.7625
1193.11091	26386.1625
1196.70485	25243.2625
1200.29634	24168.7625
1203.88538	23364.3625
1207.47197	22623.8625
1211.05612	21991.6625
1214.63782	21504.3625
1218.21708	21229.1625
1221.79391	21093.9625
1225.36829	21101.0625
1228.94024	21012.3625
1232.50976	20705.2625
1236.07685	20386.2625
1239.6415	20132.1625
1243.20374	20175.4625
1246.76355	20304.8625
1250.32093	20541.3625
1253.8759	20898.0625
1257.42845	21378.2625
1260.97859	21958.9625
1264.52631	22617.6625
1268.07163	23264.5625
1271.61453	23928.1625
1275.15503	24562.7625
1278.69312	25097.9625
1282.22882	25520.7625
1285.76211	26063.0625
1289.29301	26754.6625
1292.82151	27726.0625
1296.34761	28844.0625
1299.87133	30276.1625
1303.39266	32195.2625
1306.9116	34286.8625
1310.42815	36236.8625
1313.94233	37104.4625
1317.45412	36569.3625
1320.96354	35050.2625
1324.47058	33448.8625
1327.97525	31983.4625
1331.47754	31099.4625
1334.97747	30614.1625
1338.47502	30385.1625
1341.97022	30292.9625
1345.46305	30367.9625
1348.95352	30784.8625
1352.44163	31777.6625
1355.92738	33414.1625
1359.41078	35853.0625
1362.89183	37818.5625
1366.37053	37278.1625
1369.84688	33861.7625
1373.32088	29734.2625
1376.79254	26972.4625
1380.26186	25705.9625
1383.72883	25298.4625
1387.19347	24950.9625
1390.65578	24484.5625
1394.11575	24193.3625
1397.57339	24166.6625
1401.0287	24288.2625
1404.48168	24401.6625
1407.93234	24399.1625
1411.38068	24242.3625
1414.82669	23966.4625
1418.27039	23525.2625
1421.71177	23058.2625
1425.15083	22563.1625
1428.58758	22391.7625
1432.02203	22550.3625
1435.45416	23021.8625
1438.88399	23456.0625
1442.31151	23677.2625
1445.73673	23762.5625
1449.15965	23788.8625
1452.58027	23722.5625
1455.9986	23529.5625
1459.41463	23597.2625
1462.82837	23922.8625
1466.23982	24390.1625
1469.64898	24910.2625
1473.05586	25320.1625
1476.46045	25582.0625
1479.86276	25705.5625
1483.26279	25680.5625
1486.66054	25790.7625
1490.05602	26059.9625
1493.44922	26543.8625
1496.84016	27136.6625
1500.22882	27967.7625
1503.61521	29213.6625
1506.99934	30636.5625
1510.38121	31781.5625
1513.76081	31863.2625
1517.13816	30723.4625
1520.51324	28926.8625
1523.88607	27301.1625
1527.25665	26337.0625
1530.62498	25977.7625
1533.99105	25638.4625
1537.35488	25272.1625
1540.71647	24903.7625
1544.07581	24459.3625
1547.4329	23994.6625
1550.78776	23714.6625
1554.14038	23515.9625
1557.49077	23456.2625
1560.83892	23500.1625
1564.18484	23601.7625
1567.52853	23812.2625
1570.86999	24092.9625
1574.20922	24405.2625
1577.54624	24521.0625
1580.88103	24219.8625
1584.2136	23911.4625
1587.54395	24139.0625
1590.87208	25085.0625
1594.19801	26538.4625
1597.52172	28075.0625
1600.84321	28729.7625
1604.16251	27869.3625
1607.47959	26082.9625
1610.79447	24120.7625
1614.10715	22234.4625
1617.41763	20847.5625
1620.7259	19951.9625
1624.03199	19489.2625
1627.33587	19499.5625
1630.63757	20005.7625
1633.93707	20956.7625
1637.23439	22634.5625
1640.52951	24987.4625
1643.82246	28028.5625
1647.11321	30577.3625
1650.40179	31211.1625
1653.68819	29255.1625
1656.97241	25621.5625
1660.25446	22242.4625
1663.53433	19785.5625
1666.81203	18355.0625
1670.08756	17444.7625
1673.36092	16941.0625
1676.63211	16581.4625
1679.90115	16328.6625
1683.16801	16132.2625
1686.43272	16026.7625
1689.69527	15888.0625
1692.95567	15748.8625
1696.2139	15580.1625
1699.46999	15414.5625
1702.72392	15344.9625
1705.97571	15430.2625
1709.22535	15486.1625
1712.47284	15559.3625
1715.71819	15573.3625
1718.96139	15552.6625
1722.20246	15551.5625
1725.44139	15476.6625
1728.67818	15419.9625
1731.91284	15348.4625
1735.14537	15279.2625
1738.37576	15209.4625
1741.60403	15196.3625
1744.83017	15116.5625
1748.05418	15048.5625
1751.27607	15027.0625
1754.49584	14979.3625
1757.71349	14928.3625
1760.92903	14849.7625
1764.14244	14869.8625
1767.35375	14809.6625
1770.56294	14794.7625
1773.77002	14776.3625
1776.97499	14837.3625
1780.17785	14836.1625
1783.37861	14864.7625
1786.57727	14824.4625
1789.77382	14850.1625
1792.96828	14833.0625
1796.16064	14794.7625
1799.3509	14765.7625
1802.53907	14762.5625
1805.72514	14754.5625
1808.90913	14699.7625
1812.09102	14667.6625
1815.27083	14646.1625
1818.44856	14637.6625
1821.6242	14641.6625
1824.79776	14642.2625
1827.96924	14623.3625
1831.13864	14593.3625
1834.30597	14569.7625
1837.47122	14570.7625
1840.6344	14567.7625
1843.7955	14578.6625
1846.95454	14563.8625
1850.11151	14560.7625
1853.26642	14523.5625
1856.41926	14540.5625
1859.57004	14546.7625
1862.71876	14537.5625
1865.86542	14513.2625
1869.01003	14503.8625
1872.15258	14499.9625
1875.29308	14457.3625
1878.43152	14470.3625
1881.56792	14488.1625
1884.70227	14475.0625
1887.83457	14461.0625
1890.96482	14417.9625
1894.09304	14415.1625
1897.21921	14402.3625
1900.34335	14388.8625
1903.46544	14358.8625
1906.58551	14337.3625
1909.70353	14350.4625
1912.81953	14354.8625
1915.93349	14335.2625
1919.04543	14284.3625
1922.15534	14301.3625
1925.26322	14245.8625
1928.36908	14229.2625
1931.47292	14214.0625
1934.57473	14164.7625
1937.67453	14169.2625
1940.77232	14155.9625
1943.86808	14102.0625
1946.96184	14071.4625
1950.05358	14044.0625
1953.14331	13998.0625
1956.23103	13977.5625
1959.31675	13942.8625
1962.40046	13906.4625
1965.48217	13841.9625
1968.56188	13838.9625
1971.63959	13804.5625
1974.7153	13780.7625
1977.78901	13736.5625
1980.86073	13687.7625
1983.93046	13630.8625
1986.99819	13598.2625
1990.06394	13586.4625
1993.1277	13547.7625
1996.18947	13480.4625
1999.24925	13458.6625
2002.30706	13415.3625
2005.36288	13393.8625
2008.41672	13366.6625
2011.46859	13345.5625
2014.51848	13250.5625
2017.56639	13266.2625
2020.61233	13235.1625
2023.6563	13217.9625
2026.6983	13179.5625
2029.73833	13142.0625
2032.7764	13128.7625
2035.8125	13127.7625
2038.84664	13102.6625
2041.87881	13099.8625
2044.90903	13099.9625
2047.93729	13050.9625
2050.96359	13079.8625
2053.98794	13058.9625
2057.01034	13042.7625
2060.03078	13053.6625
2063.04927	12995.8625
2066.06582	12991.6625
2069.08042	13006.3625
2072.09307	12991.8625
2075.10378	13008.4625
2078.11255	12967.0625
2081.11938	12978.0625
2084.12426	12991.2625
2087.12722	12972.2625
2090.12824	12955.8625
2093.12732	12941.6625
2096.12447	12974.7625
2099.11969	12981.0625
2102.11299	12981.0625
2105.10435	13001.6625
2108.09379	13021.4625
2111.08131	13011.9625
2114.0669	13023.9625
2117.05057	13030.9625
2120.03233	13026.4625
2123.01216	13080.5625
2125.99008	13093.3625
2128.96609	13102.4625
2131.94018	13059.4625
2134.91236	13107.4625
2137.88263	13102.9625
2140.851	13138.6625
2143.81746	13142.4625
2146.78201	13169.0625
2149.74466	13143.7625
2152.7054	13149.5625
2155.66425	13147.2625
2158.6212	13162.3625
2161.57625	13140.6625
2164.52941	13152.9625
2167.48067	13141.2625
2170.43004	13148.7625
2173.37752	13133.2625
2176.32311	13177.6625
2179.26681	13151.9625
2182.20863	13132.4625
2185.14856	13173.3625
2188.08661	13194.0625
2191.02278	13184.5625
2193.95707	13165.6625
2196.88948	13162.1625
2199.82001	13197.9625
2202.74867	13180.7625
2205.67545	13199.8625
2208.60037	13146.9625
2211.52341	13131.9625
2214.44458	13114.2625
2217.36388	13099.6625
2220.28132	13072.4625
2223.1969	13069.4625
2226.11061	13049.4625
2229.02246	13022.4625
2231.93245	13022.2625
2234.84058	12981.9625
2237.74686	12990.4625
2240.65128	12991.3625
2243.55385	12976.1625
2246.45456	12962.3625
2249.35343	12968.0625
2252.25044	12938.7625
2255.14561	12891.8625
2258.03893	12905.5625
2260.93041	12839.7625
2263.82004	12848.1625
2266.70783	12829.2625
2269.59378	12812.2625
2272.4779	12758.4625
2275.36017	12775.5625
2278.24061	12704.6625
2281.11922	12679.6625
2283.996	12697.3625
2286.87094	12668.2625
2289.74405	12691.9625
2292.61534	12675.2625
2295.4848	12637.0625
2298.35243	12662.8625
2301.21824	12673.1625
2304.08223	12697.8625
2306.94439	12696.0625
2309.80474	12702.9625
2312.66327	12709.1625
2315.51999	12671.3625
2318.37489	12676.7625
2321.22797	12676.6625
2324.07925	12670.1625
2326.92871	12641.3625
2329.77637	12638.7625
2332.62222	12620.2625
2335.46626	12603.4625
2338.3085	12582.3625
2341.14893	12610.9625
2343.98756	12608.3625
2346.8244	12620.1625
2349.65943	12635.6625
2352.49267	12601.9625
2355.32411	12602.4625
2358.15376	12587.8625
2360.98161	12601.1625
2363.80768	12575.9625
2366.63195	12541.2625
2369.45444	12549.3625
2372.27514	12522.7625
2375.09405	12520.4625
2377.91118	12518.0625
2380.72652	12477.3625
2383.54009	12455.6625
2386.35187	12439.5625
2389.16188	12404.9625
2391.97011	12403.3625
2394.77657	12397.9625
2397.58125	12381.0625
2400.38416	12354.5625
2403.18529	12349.6625
2405.98466	12325.5625
2408.78226	12284.7625
2411.57809	12250.9625
2414.37216	12252.1625
2417.16446	12264.3625
2419.955	12226.5625
2422.74378	12242.1625
2425.5308	12256.1625
2428.31606	12250.5625
2431.09956	12221.4625
2433.88131	12234.6625
2436.6613	12222.7625
2439.43954	12241.2625
2442.21603	12235.2625
2444.99077	12226.6625
2447.76377	12246.3625
2450.53501	12241.4625
2453.30451	12262.9625
2456.07226	12222.7625
2458.83827	12215.0625
2461.60254	12227.7625
2464.36507	12215.2625
2467.12586	12223.2625
2469.88492	12268.0625
2472.64224	12240.8625
2475.39782	12247.6625
2478.15167	12243.3625
2480.90379	12227.0625
2483.65417	12231.1625
2486.40283	12262.0625
2489.14976	12248.2625
2491.89497	12243.5625
2494.63845	12246.1625
2497.3802	12193.3625
2500.12024	12235.2625
2502.85855	12255.9625
2505.59514	12231.6625
2508.33002	12194.6625
2511.06318	12192.8625
2513.79462	12176.8625
2516.52435	12157.5625
2519.25237	12165.4625
2521.97867	12112.9625
2524.70327	12179.9625
2527.42616	12131.6625
2530.14734	12132.2625
2532.86681	12153.0625
2535.58458	12143.7625
2538.30065	12133.1625
2541.01501	12140.9625
2543.72768	12132.4625
2546.43864	12113.2625
2549.14791	12102.5625
2551.85548	12090.0625
2554.56136	12058.5625
2557.26554	12062.8625
2559.96803	12049.3625
2562.66883	12073.3625
2565.36794	12047.0625
2568.06536	12042.6625
2570.7611	12038.9625
2573.45514	12013.8625
2576.14751	12024.2625
2578.83819	12031.8625
2581.52719	11982.0625
2584.21451	11977.2625
2586.90015	11959.4625
2589.58411	11948.7625
2592.2664	11921.3625
2594.94701	11929.4625
2597.62594	11934.6625
2600.30321	11939.2625
2602.9788	11936.9625
2605.65273	11921.1625
2608.32498	11918.1625
2610.99557	11925.3625
2613.66449	11935.5625
2616.33175	11890.5625
2618.99734	11917.7625
2621.66128	11939.5625
2624.32355	11882.0625
2626.98416	11928.5625
2629.64311	11870.3625
2632.30041	11859.2625
2634.95605	11847.6625
2637.61004	11821.4625
2640.26238	11795.4625
2642.91306	11811.2625
2645.56209	11804.6625
2648.20948	11795.3625
2650.85521	11801.7625
2653.4993	11802.2625
2656.14175	11810.9625
2658.78255	11775.7625
2661.42171	11804.8625
2664.05923	11824.5625
2666.6951	11879.9625
2669.32934	11869.6625
2671.96194	11873.9625
2674.59291	11862.6625
2677.22224	11850.2625
2679.84993	11874.9625
2682.476	11853.0625
2685.10043	11824.9625
2687.72324	11830.1625
2690.34441	11825.6625
2692.96396	11834.0625
2695.58188	11856.2625
2698.19818	11817.2625
2700.81285	11822.0625
2703.4259	11809.6625
2706.03733	11738.8625
2708.64714	11780.7625
2711.25533	11824.5625
2713.86191	11838.2625
2716.46687	11849.0625
2719.07021	11892.5625
2721.67194	11899.0625
2724.27206	11895.9625
2726.87057	11914.2625
2729.46747	11943.1625
2732.06276	11902.6625
2734.65644	11915.2625
2737.24852	11912.0625
2739.83899	11899.1625
2742.42786	11873.2625
2745.01513	11870.8625
2747.60079	11883.3625
2750.18486	11875.0625
2752.76733	11870.3625
2755.3482	11866.0625
2757.92747	11868.5625
2760.50515	11852.6625
2763.08123	11851.3625
2765.65573	11835.1625
2768.22863	11807.2625
2770.79994	11796.8625
2773.36967	11807.6625
2775.9378	11795.3625
2778.50435	11768.1625
2781.06932	11788.0625
2783.6327	11813.5625
2786.1945	11779.8625
2788.75471	11792.8625
2791.31335	11780.0625
2793.87041	11748.1625
2796.42589	11734.5625
2798.97979	11717.6625
2801.53212	11705.9625
2804.08288	11714.1625
2806.63206	11684.8625
2809.17967	11628.4625
2811.72571	11640.6625
2814.27018	11629.4625
2816.81308	11613.6625
2819.35442	11608.8625
2821.89419	11602.0625
2824.43239	11612.1625
2826.96904	11591.8625
2829.50412	11583.8625
2832.03763	11555.0625
2834.56959	11589.9625
2837.1	11560.5625
2839.62884	11575.6625
2842.15613	11549.2625
2844.68186	11570.3625
2847.20604	11566.1625
2849.72867	11561.9625
2852.24974	11558.4625
2854.76927	11550.5625
2857.28724	11506.3625
2859.80367	11509.1625
2862.31855	11518.5625
2864.83189	11523.4625
2867.34368	11496.5625
2869.85393	11506.0625
2872.36264	11525.0625
2874.8698	11512.1625
2877.37543	11507.5625
2879.87952	11527.7625
2882.38207	11491.8625
2884.88308	11495.3625
2887.38256	11509.4625
2889.88051	11507.6625
2892.37692	11534.2625
2894.8718	11517.4625
2897.36515	11558.0625
2899.85698	11568.0625
2902.34727	11589.8625
2904.83604	11572.2625
2907.32328	11600.7625
2909.809	11623.8625
2912.29319	11630.5625
2914.77587	11628.9625
2917.25702	11632.2625
2919.73665	11620.9625
2922.21476	11629.7625
2924.69136	11604.8625
2927.16644	11600.0625
2929.64	11599.3625
2932.11205	11588.7625
2934.58258	11562.9625
2937.05161	11579.7625
2939.51912	11565.3625
2941.98513	11583.5625
2944.44962	11560.1625
2946.91261	11504.4625
2949.37409	11575.5625
2951.83407	11513.4625
2954.29254	11531.4625
2956.74951	11510.0625
2959.20498	11486.3625
2961.65895	11488.4625
2964.11142	11503.4625
2966.56239	11448.4625
2969.01186	11471.8625
2971.45984	11434.1625
2973.90632	11419.0625
2976.35131	11395.9625
2978.7948	11407.1625
2981.23681	11413.0625
2983.67732	11381.2625
2986.11635	11348.5625
2988.55388	11306.0625
2990.98993	11287.7625
2993.4245	11270.9625
2995.85758	11245.0625
2998.28917	11211.7625
3000.71928	11240.3625
3003.14791	11201.2625
3005.57506	11184.7625
3008.00073	11191.1625
3010.42493	11165.7625
3012.84764	11174.5625
3015.26888	11138.6625
3017.68865	11141.7625
3020.10694	11157.8625
3022.52376	11110.4625
3024.9391	11109.8625
3027.35298	11082.1625
3029.76539	11074.5625
3032.17632	11087.4625
3034.5858	11056.5625
3036.9938	11061.1625
3039.40034	11033.8625
3041.80542	11039.3625
3044.20903	11012.1625
3046.61118	11020.4625
3049.01187	10995.9625
3051.4111	10996.3625
3053.80888	10990.3625
3056.20519	10975.2625
3058.60005	10936.5625
3060.99345	10951.1625
3063.3854	10906.5625
3065.7759	10914.8625
3068.16494	10878.5625
3070.55254	10860.5625
3072.93868	10813.5625
3075.32338	10792.5625
3077.70662	10800.0625
3080.08842	10734.5625
3082.46878	10764.7625
3084.84769	10720.9625
3087.22515	10740.3625
3089.60118	10738.2625
3091.97576	10734.8625
3094.3489	10769.2625
3096.72061	10759.7625
3099.09087	10749.0625
3101.4597	10763.4625
3103.82709	10757.1625
3106.19305	10760.5625
3108.55757	10746.1625
3110.92066	10719.8625
3113.28232	10732.2625
3115.64255	10666.3625
3118.00134	10671.3625
3120.35871	10695.1625
3122.71466	10676.4625
3125.06917	10640.0625
3127.42226	10631.1625
3129.77393	10636.4625
3132.12417	10615.7625
3134.47299	10631.7625
3136.82039	10608.4625
3139.16636	10623.5625
3141.51092	10600.9625
3143.85406	10585.3625
3146.19579	10605.0625
3148.53609	10617.5625
3150.87499	10621.6625
3153.21246	10608.1625
3155.54853	10654.0625
3157.88318	10636.0625
3160.21642	10657.5625
3162.54826	10665.8625
3164.87868	10679.9625
3167.2077	10689.0625
3169.5353	10661.9625
3171.86151	10662.1625
3174.18631	10668.7625
3176.5097	10667.0625
3178.83169	10658.9625
3181.15228	10655.7625
3183.47147	10617.8625
3185.78926	10639.7625
3188.10565	10626.0625
3190.42065	10606.4625
3192.73424	10624.5625
3195.04645	10619.2625
3197.35725	10592.2625
3199.66667	10600.0625
3201.97469	10597.5625
3204.28132	10583.6625
3206.58656	10588.6625
3208.8904	10609.2625
3211.19287	10627.6625
3213.49394	10632.2625
3215.79363	10648.9625
3218.09193	10641.1625
3220.38884	10649.1625
3222.68438	10609.8625
3224.97853	10626.2625
3227.2713	10618.4625
3229.56269	10617.6625
3231.8527	10635.9625
3234.14133	10596.0625
3236.42858	10565.3625
3238.71446	10569.2625
3240.99896	10526.5625
3243.28209	10526.3625
3245.56384	10513.6625
3247.84423	10539.7625
3250.12324	10512.0625
3252.40088	10530.1625
3254.67715	10505.9625
3256.95205	10481.0625
3259.22558	10507.1625
3261.49775	10506.1625
3263.76855	10507.2625
3266.03799	10485.0625
3268.30606	10493.3625
3270.57277	10482.7625
3272.83812	10476.2625
3275.10211	10450.7625
3277.36474	10406.2625
3279.62601	10390.8625
3281.88593	10423.4625
3284.14448	10428.8625
3286.40168	10430.4625
3288.65753	10400.6625
3290.91202	10412.6625
3293.16516	10399.5625
3295.41695	10393.5625
3297.66738	10304.1625
3299.91647	10293.1625
3302.16421	10238.0625
3304.4106	10178.8625
3306.65564	10103.5625
3308.89933	10030.2625
3311.14169	9953.9625
3313.38269	9886.8625
3315.62236	9834.3625
3317.86068	9738.5625
3320.09766	9675.2625
3322.3333	9636.7625
3324.5676	9594.4625
3326.80056	9425.0625
3329.03219	9383.4625
3331.26248	2.7625
3333.49143	-0.7375
3335.71905	-0.0375
