Data from AgNPs_FTO_APTES_UA_50uM_CRN_100uM_R6G_10uM_NaF_0.1M_Addition_RamanShift__31__15-52-05-057.txt Node

Date: Mon Feb 21 15:52:05 GMT 2022
User: TCL
Spectrometer: QEP01345
Trigger mode: 4
Integration Time (sec): 7.000000E0
Scans to average: 10
Electric dark correction enabled: true
Nonlinearity correction enabled: false
Boxcar width: 0
XAxis mode: Raman Shifts
Number of Pixels in Spectrum: 1044
>>>>>Begin Spectral Data<<<<<
46.04893	-0.4375
50.45542	-1.0375
54.85868	-0.7375
59.25871	-0.4375
63.6555	37.0625
68.04907	44.6625
72.43941	46.5625
76.82654	46.3625
81.21044	49.4625
85.59113	54.6625
89.96862	55.0625
94.34289	58.7625
98.71396	56.8625
103.08183	62.4625
107.4465	61.9625
111.80798	61.5625
116.16626	60.0625
120.52136	60.4625
124.87327	69.9625
129.222	66.6625
133.56755	66.9625
137.90993	72.0625
142.24913	76.3625
146.58517	84.4625
150.91804	95.1625
155.24774	109.6625
159.57429	130.9625
163.89768	169.0625
168.21792	224.7625
172.53501	292.6625
176.84895	414.3625
181.15975	571.0625
185.46741	799.4625
189.77193	1101.0625
194.07331	1472.4625
198.37157	1893.4625
202.6667	2343.0625
206.9587	2799.4625
211.24758	3250.8625
215.53334	3757.6625
219.81599	4344.2625
224.09553	5014.1625
228.37195	5763.5625
232.64527	6588.8625
236.91549	7372.3625
241.18261	8068.2625
245.44663	8580.8625
249.70755	8936.8625
253.96539	9220.5625
258.22014	9338.6625
262.4718	9479.1625
266.72039	9571.9625
270.96589	9583.0625
275.20832	9458.7625
279.44768	9218.4625
283.68397	8943.1625
287.91719	8801.9625
292.14735	8917.8625
296.37445	9367.9625
300.59849	10153.0625
304.81948	11088.9625
309.03742	11778.1625
313.25231	11834.5625
317.46415	10967.5625
321.67296	9592.9625
325.87872	8460.7625
330.08145	7953.0625
334.28114	7903.6625
338.47781	8161.1625
342.67145	8588.8625
346.86207	9223.4625
351.04966	10256.1625
355.23424	11375.6625
359.4158	12173.0625
363.59435	12500.0625
367.76989	12525.8625
371.94243	12395.0625
376.11196	12221.3625
380.27849	12022.3625
384.44203	11687.1625
388.60257	11287.8625
392.76012	11019.6625
396.91468	11044.4625
401.06626	11449.1625
405.21485	11707.6625
409.36047	11212.1625
413.50311	10110.1625
417.64277	9027.3625
421.77947	8382.5625
425.9132	8058.4625
430.04396	7925.7625
434.17176	7938.0625
438.2966	8100.6625
442.41849	8421.0625
446.53742	8745.1625
450.6534	9025.9625
454.76644	9191.0625
458.87653	9154.9625
462.98368	8990.0625
467.08789	8754.4625
471.18916	8454.0625
475.2875	8111.9625
479.38291	7808.7625
483.4754	7646.9625
487.56496	7487.1625
491.6516	7428.1625
495.73531	7413.5625
499.81612	7519.9625
503.89401	7691.9625
507.96899	8003.7625
512.04106	8338.9625
516.11023	8755.5625
520.1765	9039.9625
524.23987	8978.1625
528.30034	8643.4625
532.35792	8312.1625
536.41261	7929.7625
540.46441	7595.5625
544.51333	7348.8625
548.55936	7353.7625
552.60252	7621.2625
556.64279	7971.7625
560.6802	8135.5625
564.71473	8430.4625
568.7464	9155.4625
572.7752	9497.7625
576.80114	8785.9625
580.82422	7928.8625
584.84444	7541.2625
588.86181	7432.8625
592.87633	7472.2625
596.888	7644.5625
600.89682	8233.0625
604.9028	10246.9625
608.90594	15967.9625
612.90624	23877.6625
616.90371	22783.5625
620.89834	13202.7625
624.89015	8769.1625
628.87913	7945.2625
632.86528	8104.9625
636.84862	8454.0625
640.82913	8294.7625
644.80683	7603.0625
648.78172	7111.5625
652.75379	7183.7625
656.72306	7830.1625
660.68952	8631.4625
664.65319	8369.5625
668.61405	7457.7625
672.57211	7006.0625
676.52738	6998.9625
680.47986	7022.6625
684.42955	6882.1625
688.37646	6786.6625
692.32058	6794.8625
696.26192	6859.3625
700.20048	7009.1625
704.13626	7104.9625
708.06928	7049.6625
711.99952	6963.3625
715.927	6958.8625
719.85171	7066.4625
723.77365	7146.2625
727.69284	7065.8625
731.60928	6980.6625
735.52295	6972.9625
739.43388	7002.4625
743.34206	7043.3625
747.24749	7064.9625
751.15017	7087.6625
755.05012	7323.7625
758.94733	7988.1625
762.8418	9699.5625
766.73354	12694.2625
770.62254	15900.3625
774.50882	17942.6625
778.39237	17274.4625
782.27321	13855.4625
786.15132	10354.6625
790.02671	8408.0625
793.89938	7585.0625
797.76935	7266.0625
801.6366	7119.1625
805.50115	7038.7625
809.36299	7026.0625
813.22213	6989.1625
817.07857	6930.1625
820.93231	6907.3625
824.78336	6946.3625
828.63172	6998.9625
832.47738	7021.2625
836.32036	6956.7625
840.16066	6892.1625
843.99827	6797.8625
847.8332	6758.7625
851.66546	6773.3625
855.49504	6766.2625
859.32195	6765.4625
863.1462	6708.8625
866.96777	6674.1625
870.78668	6669.4625
874.60293	6717.2625
878.41652	6765.6625
882.22745	6906.5625
886.03573	6994.0625
889.84136	6945.6625
893.64433	6855.9625
897.44466	6861.3625
901.24235	6860.8625
905.0374	6827.5625
908.8298	6706.7625
912.61957	6654.1625
916.40671	6650.5625
920.19121	6685.4625
923.97308	6768.2625
927.75233	6987.1625
931.52895	7240.1625
935.30295	7146.5625
939.07433	6782.6625
942.84309	6422.2625
946.60924	6220.9625
950.37278	6120.6625
954.13371	6082.8625
957.89203	6054.0625
961.64774	6049.2625
965.40086	6026.8625
969.15137	5993.6625
972.89929	5981.5625
976.64461	5973.5625
980.38733	5974.9625
984.12747	5995.4625
987.86502	6012.3625
991.59999	6064.8625
995.33237	6147.1625
999.06217	6269.6625
1002.78939	6459.8625
1006.51404	6650.8625
1010.23611	6902.0625
1013.95561	7063.6625
1017.67255	7036.9625
1021.38692	6904.6625
1025.09872	6748.9625
1028.80796	6620.4625
1032.51465	6620.4625
1036.21877	6732.5625
1039.92035	6857.9625
1043.61937	6900.5625
1047.31584	6902.1625
1051.00976	6889.6625
1054.70114	6817.7625
1058.38998	6768.6625
1062.07627	6783.8625
1065.76003	6794.2625
1069.44126	6809.7625
1073.11995	6909.4625
1076.79611	7112.6625
1080.46974	7442.1625
1084.14085	7931.3625
1087.80943	8388.0625
1091.47549	8536.6625
1095.13903	8199.3625
1098.80005	7641.7625
1102.45857	7276.2625
1106.11456	7241.5625
1109.76805	7424.4625
1113.41903	7886.6625
1117.06751	8561.9625
1120.71348	9439.3625
1124.35696	10341.6625
1127.99793	10970.6625
1131.63641	10621.9625
1135.2724	9522.8625
1138.90589	8601.3625
1142.5369	8022.2625
1146.16542	7660.9625
1149.79145	7410.7625
1153.415	7338.0625
1157.03607	7421.0625
1160.65467	7668.1625
1164.27079	8068.8625
1167.88443	8788.4625
1171.49561	9968.3625
1175.10432	12078.6625
1178.71056	14936.5625
1182.31434	16956.5625
1185.91565	17062.5625
1189.51451	15952.8625
1193.11091	14166.3625
1196.70485	12349.4625
1200.29634	11282.2625
1203.88538	10529.2625
1207.47197	9501.2625
1211.05612	8544.6625
1214.63782	7987.9625
1218.21708	7728.9625
1221.79391	7666.6625
1225.36829	7673.3625
1228.94024	7732.4625
1232.50976	7701.3625
1236.07685	7721.9625
1239.6415	7790.3625
1243.20374	7892.5625
1246.76355	8019.8625
1250.32093	8174.3625
1253.8759	8392.1625
1257.42845	8727.3625
1260.97859	9176.9625
1264.52631	9653.7625
1268.07163	10148.0625
1271.61453	10574.9625
1275.15503	10781.7625
1278.69312	10793.1625
1282.22882	10765.8625
1285.76211	11104.7625
1289.29301	11674.1625
1292.82151	12237.7625
1296.34761	12853.6625
1299.87133	13964.7625
1303.39266	16019.4625
1306.9116	19340.8625
1310.42815	22735.8625
1313.94233	24051.2625
1317.45412	22333.8625
1320.96354	19144.3625
1324.47058	16053.4625
1327.97525	13665.3625
1331.47754	12351.4625
1334.97747	11908.8625
1338.47502	12145.1625
1341.97022	13029.8625
1345.46305	14590.6625
1348.95352	16833.6625
1352.44163	19660.0625
1355.92738	23620.5625
1359.41078	29423.5625
1362.89183	34022.9625
1366.37053	31694.6625
1369.84688	24729.3625
1373.32088	18588.2625
1376.79254	14761.7625
1380.26186	12690.5625
1383.72883	11554.3625
1387.19347	10701.4625
1390.65578	9860.0625
1394.11575	9202.0625
1397.57339	8872.0625
1401.0287	8745.1625
1404.48168	8737.5625
1407.93234	8813.3625
1411.38068	8992.8625
1414.82669	9165.5625
1418.27039	9244.3625
1421.71177	9252.1625
1425.15083	9094.9625
1428.58758	9057.0625
1432.02203	9181.3625
1435.45416	9311.7625
1438.88399	9310.1625
1442.31151	9261.8625
1445.73673	9313.2625
1449.15965	9368.2625
1452.58027	9316.3625
1455.9986	9156.4625
1459.41463	9070.0625
1462.82837	9201.3625
1466.23982	9495.4625
1469.64898	9807.2625
1473.05586	9968.8625
1476.46045	10170.2625
1479.86276	10460.6625
1483.26279	10930.9625
1486.66054	11535.3625
1490.05602	12364.8625
1493.44922	13639.7625
1496.84016	15675.5625
1500.22882	18963.5625
1503.61521	23403.4625
1506.99934	28317.8625
1510.38121	32381.4625
1513.76081	33353.0625
1517.13816	29989.0625
1520.51324	24064.4625
1523.88607	18656.6625
1527.25665	15203.4625
1530.62498	13287.2625
1533.99105	12160.7625
1537.35488	11502.1625
1540.71647	11176.7625
1544.07581	11170.1625
1547.4329	11284.9625
1550.78776	11471.5625
1554.14038	11645.4625
1557.49077	11912.3625
1560.83892	12340.1625
1564.18484	13091.0625
1567.52853	14007.6625
1570.86999	14770.0625
1574.20922	15149.1625
1577.54624	14893.5625
1580.88103	13453.0625
1584.2136	11610.6625
1587.54395	10452.8625
1590.87208	10231.5625
1594.19801	10854.3625
1597.52172	11936.8625
1600.84321	12422.7625
1604.16251	11871.4625
1607.47959	10966.0625
1610.79447	10063.9625
1614.10715	9134.1625
1617.41763	8421.3625
1620.7259	7972.6625
1624.03199	7809.7625
1627.33587	7854.2625
1630.63757	8067.9625
1633.93707	8598.3625
1637.23439	9486.1625
1640.52951	10943.3625
1643.82246	13300.4625
1647.11321	16492.9625
1650.40179	19004.9625
1653.68819	18481.5625
1656.97241	15180.4625
1660.25446	11557.3625
1663.53433	9153.3625
1666.81203	7847.4625
1670.08756	7158.2625
1673.36092	6758.4625
1676.63211	6503.2625
1679.90115	6321.9625
1683.16801	6163.5625
1686.43272	6076.9625
1689.69527	5981.2625
1692.95567	5852.9625
1696.2139	5749.7625
1699.46999	5628.4625
1702.72392	5594.8625
1705.97571	5678.0625
1709.22535	5744.6625
1712.47284	5843.1625
1715.71819	5869.7625
1718.96139	5898.5625
1722.20246	5907.3625
1725.44139	5843.0625
1728.67818	5794.7625
1731.91284	5710.6625
1735.14537	5620.8625
1738.37576	5589.4625
1741.60403	5551.7625
1744.83017	5505.0625
1748.05418	5473.5625
1751.27607	5428.1625
1754.49584	5365.8625
1757.71349	5304.6625
1760.92903	5251.5625
1764.14244	5218.0625
1767.35375	5206.2625
1770.56294	5172.9625
1773.77002	5141.5625
1776.97499	5178.2625
1780.17785	5191.1625
1783.37861	5214.4625
1786.57727	5190.5625
1789.77382	5215.7625
1792.96828	5217.3625
1796.16064	5229.5625
1799.3509	5196.3625
1802.53907	5189.3625
1805.72514	5159.0625
1808.90913	5140.4625
1812.09102	5107.0625
1815.27083	5100.8625
1818.44856	5079.1625
1821.6242	5078.3625
1824.79776	5058.2625
1827.96924	5041.4625
1831.13864	5038.7625
1834.30597	5034.3625
1837.47122	5011.8625
1840.6344	5007.4625
1843.7955	5002.6625
1846.95454	4990.5625
1850.11151	5000.9625
1853.26642	4985.5625
1856.41926	4995.2625
1859.57004	4975.4625
1862.71876	4972.5625
1865.86542	4972.1625
1869.01003	4980.0625
1872.15258	4980.1625
1875.29308	4979.3625
1878.43152	4974.6625
1881.56792	4971.9625
1884.70227	4972.4625
1887.83457	4961.3625
1890.96482	4952.9625
1894.09304	4949.4625
1897.21921	4939.6625
1900.34335	4949.7625
1903.46544	4946.9625
1906.58551	4933.9625
1909.70353	4950.3625
1912.81953	4934.7625
1915.93349	4946.4625
1919.04543	4926.2625
1922.15534	4910.1625
1925.26322	4898.9625
1928.36908	4891.4625
1931.47292	4862.7625
1934.57473	4856.3625
1937.67453	4808.7625
1940.77232	4821.3625
1943.86808	4789.4625
1946.96184	4785.1625
1950.05358	4753.5625
1953.14331	4739.9625
1956.23103	4746.8625
1959.31675	4726.1625
1962.40046	4716.6625
1965.48217	4709.5625
1968.56188	4725.1625
1971.63959	4696.2625
1974.7153	4686.8625
1977.78901	4672.6625
1980.86073	4653.4625
1983.93046	4635.2625
1986.99819	4613.6625
1990.06394	4587.3625
1993.1277	4553.3625
1996.18947	4530.7625
1999.24925	4515.1625
2002.30706	4498.7625
2005.36288	4484.5625
2008.41672	4485.5625
2011.46859	4457.1625
2014.51848	4441.6625
2017.56639	4430.4625
2020.61233	4424.7625
2023.6563	4416.0625
2026.6983	4390.4625
2029.73833	4388.9625
2032.7764	4349.2625
2035.8125	4368.4625
2038.84664	4355.2625
2041.87881	4360.3625
2044.90903	4338.1625
2047.93729	4314.1625
2050.96359	4320.4625
2053.98794	4319.2625
2057.01034	4307.1625
2060.03078	4313.7625
2063.04927	4293.2625
2066.06582	4292.2625
2069.08042	4298.9625
2072.09307	4263.8625
2075.10378	4269.9625
2078.11255	4268.2625
2081.11938	4272.2625
2084.12426	4263.6625
2087.12722	4252.8625
2090.12824	4256.7625
2093.12732	4255.1625
2096.12447	4251.9625
2099.11969	4256.2625
2102.11299	4256.3625
2105.10435	4270.4625
2108.09379	4256.8625
2111.08131	4262.4625
2114.0669	4266.1625
2117.05057	4266.6625
2120.03233	4273.3625
2123.01216	4288.7625
2125.99008	4306.6625
2128.96609	4286.8625
2131.94018	4287.1625
2134.91236	4303.1625
2137.88263	4272.8625
2140.851	4286.7625
2143.81746	4290.9625
2146.78201	4295.5625
2149.74466	4274.0625
2152.7054	4269.0625
2155.66425	4254.1625
2158.6212	4255.0625
2161.57625	4242.8625
2164.52941	4243.5625
2167.48067	4239.4625
2170.43004	4240.1625
2173.37752	4223.8625
2176.32311	4244.1625
2179.26681	4234.4625
2182.20863	4249.7625
2185.14856	4242.6625
2188.08661	4256.8625
2191.02278	4228.6625
2193.95707	4218.1625
2196.88948	4213.7625
2199.82001	4222.9625
2202.74867	4204.5625
2205.67545	4201.8625
2208.60037	4199.0625
2211.52341	4208.3625
2214.44458	4188.1625
2217.36388	4178.5625
2220.28132	4174.4625
2223.1969	4158.1625
2226.11061	4156.2625
2229.02246	4136.1625
2231.93245	4124.9625
2234.84058	4125.5625
2237.74686	4119.6625
2240.65128	4104.8625
2243.55385	4114.9625
2246.45456	4098.3625
2249.35343	4104.7625
2252.25044	4104.7625
2255.14561	4108.3625
2258.03893	4107.9625
2260.93041	4099.5625
2263.82004	4118.5625
2266.70783	4113.7625
2269.59378	4101.1625
2272.4779	4094.6625
2275.36017	4080.7625
2278.24061	4074.6625
2281.11922	4071.0625
2283.996	4054.5625
2286.87094	4049.3625
2289.74405	4034.2625
2292.61534	4006.0625
2295.4848	3991.5625
2298.35243	3987.5625
2301.21824	3992.2625
2304.08223	3976.1625
2306.94439	3996.1625
2309.80474	3984.8625
2312.66327	3980.0625
2315.51999	3981.2625
2318.37489	3968.4625
2321.22797	3968.4625
2324.07925	3952.3625
2326.92871	3953.5625
2329.77637	3969.9625
2332.62222	3961.2625
2335.46626	3950.3625
2338.3085	3923.1625
2341.14893	3946.8625
2343.98756	3943.7625
2346.8244	3957.3625
2349.65943	3972.3625
2352.49267	3981.2625
2355.32411	3990.8625
2358.15376	4020.6625
2360.98161	4029.4625
2363.80768	4034.5625
2366.63195	4055.8625
2369.45444	4071.6625
2372.27514	4067.7625
2375.09405	4052.0625
2377.91118	4051.2625
2380.72652	4018.8625
2383.54009	3991.4625
2386.35187	3970.0625
2389.16188	3930.4625
2391.97011	3901.1625
2394.77657	3893.1625
2397.58125	3868.9625
2400.38416	3863.1625
2403.18529	3840.8625
2405.98466	3823.9625
2408.78226	3815.5625
2411.57809	3806.1625
2414.37216	3797.1625
2417.16446	3787.0625
2419.955	3796.8625
2422.74378	3803.3625
2425.5308	3802.9625
2428.31606	3809.5625
2431.09956	3797.6625
2433.88131	3799.6625
2436.6613	3808.7625
2439.43954	3818.7625
2442.21603	3816.6625
2444.99077	3822.6625
2447.76377	3832.1625
2450.53501	3831.6625
2453.30451	3846.6625
2456.07226	3840.1625
2458.83827	3827.0625
2461.60254	3818.2625
2464.36507	3819.1625
2467.12586	3830.9625
2469.88492	3822.0625
2472.64224	3837.8625
2475.39782	3824.5625
2478.15167	3832.4625
2480.90379	3865.8625
2483.65417	3887.1625
2486.40283	3896.5625
2489.14976	3940.1625
2491.89497	3925.9625
2494.63845	3921.7625
2497.3802	3897.5625
2500.12024	3915.6625
2502.85855	3889.8625
2505.59514	3865.9625
2508.33002	3836.1625
2511.06318	3804.9625
2513.79462	3789.1625
2516.52435	3741.1625
2519.25237	3722.2625
2521.97867	3706.0625
2524.70327	3689.0625
2527.42616	3678.8625
2530.14734	3675.4625
2532.86681	3668.6625
2535.58458	3675.4625
2538.30065	3683.1625
2541.01501	3681.4625
2543.72768	3678.8625
2546.43864	3689.2625
2549.14791	3695.7625
2551.85548	3690.9625
2554.56136	3681.3625
2557.26554	3673.7625
2559.96803	3675.9625
2562.66883	3676.8625
2565.36794	3672.8625
2568.06536	3659.6625
2570.7611	3665.1625
2573.45514	3639.4625
2576.14751	3636.4625
2578.83819	3620.0625
2581.52719	3608.4625
2584.21451	3603.0625
2586.90015	3605.0625
2589.58411	3591.9625
2592.2664	3573.2625
2594.94701	3578.3625
2597.62594	3580.6625
2600.30321	3577.2625
2602.9788	3578.3625
2605.65273	3597.2625
2608.32498	3585.2625
2610.99557	3590.6625
2613.66449	3584.4625
2616.33175	3587.4625
2618.99734	3586.5625
2621.66128	3586.7625
2624.32355	3584.1625
2626.98416	3572.7625
2629.64311	3556.9625
2632.30041	3549.8625
2634.95605	3522.4625
2637.61004	3508.4625
2640.26238	3519.3625
2642.91306	3500.8625
2645.56209	3502.6625
2648.20948	3482.8625
2650.85521	3483.6625
2653.4993	3475.2625
2656.14175	3488.5625
2658.78255	3500.8625
2661.42171	3510.4625
2664.05923	3515.3625
2666.6951	3526.3625
2669.32934	3541.5625
2671.96194	3539.5625
2674.59291	3549.2625
2677.22224	3537.3625
2679.84993	3559.4625
2682.476	3531.0625
2685.10043	3534.7625
2687.72324	3541.1625
2690.34441	3538.3625
2692.96396	3535.0625
2695.58188	3544.8625
2698.19818	3527.2625
2700.81285	3525.8625
2703.4259	3498.3625
2706.03733	3443.5625
2708.64714	3479.5625
2711.25533	3515.8625
2713.86191	3534.2625
2716.46687	3537.6625
2719.07021	3550.4625
2721.67194	3567.8625
2724.27206	3563.2625
2726.87057	3551.3625
2729.46747	3546.8625
2732.06276	3557.6625
2734.65644	3538.4625
2737.24852	3535.0625
2739.83899	3514.5625
2742.42786	3515.3625
2745.01513	3497.6625
2747.60079	3495.5625
2750.18486	3498.9625
2752.76733	3501.1625
2755.3482	3476.6625
2757.92747	3472.2625
2760.50515	3465.6625
2763.08123	3473.5625
2765.65573	3457.6625
2768.22863	3442.0625
2770.79994	3439.1625
2773.36967	3427.9625
2775.9378	3432.3625
2778.50435	3447.7625
2781.06932	3451.3625
2783.6327	3446.5625
2786.1945	3451.4625
2788.75471	3443.4625
2791.31335	3433.5625
2793.87041	3437.6625
2796.42589	3442.7625
2798.97979	3454.5625
2801.53212	3435.2625
2804.08288	3447.6625
2806.63206	3459.0625
2809.17967	3456.4625
2811.72571	3467.5625
2814.27018	3450.5625
2816.81308	3483.1625
2819.35442	3492.1625
2821.89419	3511.3625
2824.43239	3515.0625
2826.96904	3514.4625
2829.50412	3518.4625
2832.03763	3527.4625
2834.56959	3516.5625
2837.1	3527.8625
2839.62884	3546.8625
2842.15613	3579.1625
2844.68186	3604.0625
2847.20604	3636.3625
2849.72867	3684.5625
2852.24974	3686.2625
2854.76927	3691.5625
2857.28724	3676.4625
2859.80367	3678.5625
2862.31855	3698.0625
2864.83189	3687.7625
2867.34368	3681.0625
2869.85393	3697.3625
2872.36264	3700.5625
2874.8698	3697.9625
2877.37543	3684.3625
2879.87952	3675.2625
2882.38207	3665.8625
2884.88308	3679.8625
2887.38256	3658.1625
2889.88051	3653.8625
2892.37692	3638.7625
2894.8718	3628.7625
2897.36515	3646.4625
2899.85698	3650.4625
2902.34727	3649.8625
2904.83604	3650.9625
2907.32328	3660.1625
2909.809	3652.9625
2912.29319	3664.3625
2914.77587	3634.6625
2917.25702	3639.0625
2919.73665	3636.9625
2922.21476	3645.7625
2924.69136	3624.8625
2927.16644	3624.5625
2929.64	3619.6625
2932.11205	3602.7625
2934.58258	3562.8625
2937.05161	3571.6625
2939.51912	3574.5625
2941.98513	3545.1625
2944.44962	3513.2625
2946.91261	3493.2625
2949.37409	3468.7625
2951.83407	3458.6625
2954.29254	3452.6625
2956.74951	3447.9625
2959.20498	3428.2625
2961.65895	3417.6625
2964.11142	3400.2625
2966.56239	3390.2625
2969.01186	3390.2625
2971.45984	3375.7625
2973.90632	3376.1625
2976.35131	3357.5625
2978.7948	3354.0625
2981.23681	3335.4625
2983.67732	3332.1625
2986.11635	3314.9625
2988.55388	3303.3625
2990.98993	3301.6625
2993.4245	3303.6625
2995.85758	3302.3625
2998.28917	3284.0625
3000.71928	3287.3625
3003.14791	3280.3625
3005.57506	3273.5625
3008.00073	3271.7625
3010.42493	3277.5625
3012.84764	3270.6625
3015.26888	3264.4625
3017.68865	3264.4625
3020.10694	3261.0625
3022.52376	3249.3625
3024.9391	3249.8625
3027.35298	3242.0625
3029.76539	3227.1625
3032.17632	3225.2625
3034.5858	3208.8625
3036.9938	3210.0625
3039.40034	3200.2625
3041.80542	3203.2625
3044.20903	3184.9625
3046.61118	3180.4625
3049.01187	3171.8625
3051.4111	3171.3625
3053.80888	3176.2625
3056.20519	3151.2625
3058.60005	3140.6625
3060.99345	3144.9625
3063.3854	3129.5625
3065.7759	3137.5625
3068.16494	3133.8625
3070.55254	3114.0625
3072.93868	3112.2625
3075.32338	3099.3625
3077.70662	3086.7625
3080.08842	3080.1625
3082.46878	3067.8625
3084.84769	3056.6625
3087.22515	3048.7625
3089.60118	3047.5625
3091.97576	3047.5625
3094.3489	3049.5625
3096.72061	3053.5625
3099.09087	3066.1625
3101.4597	3040.7625
3103.82709	3061.7625
3106.19305	3043.2625
3108.55757	3057.4625
3110.92066	3047.7625
3113.28232	3034.3625
3115.64255	3020.2625
3118.00134	3014.7625
3120.35871	3031.3625
3122.71466	3021.3625
3125.06917	3027.9625
3127.42226	3031.4625
3129.77393	3048.4625
3132.12417	3041.1625
3134.47299	3041.7625
3136.82039	3020.4625
3139.16636	3034.3625
3141.51092	3036.8625
3143.85406	3039.0625
3146.19579	3048.6625
3148.53609	3052.5625
3150.87499	3046.1625
3153.21246	3066.9625
3155.54853	3075.5625
3157.88318	3075.2625
3160.21642	3092.3625
3162.54826	3090.3625
3164.87868	3088.6625
3167.2077	3092.3625
3169.5353	3088.9625
3171.86151	3102.8625
3174.18631	3100.6625
3176.5097	3104.5625
3178.83169	3092.0625
3181.15228	3099.5625
3183.47147	3098.6625
3185.78926	3080.8625
3188.10565	3104.3625
3190.42065	3108.4625
3192.73424	3113.1625
3195.04645	3111.9625
3197.35725	3112.6625
3199.66667	3118.3625
3201.97469	3129.4625
3204.28132	3113.7625
3206.58656	3131.1625
3208.8904	3133.3625
3211.19287	3147.8625
3213.49394	3155.1625
3215.79363	3154.3625
3218.09193	3154.7625
3220.38884	3161.2625
3222.68438	3148.5625
3224.97853	3155.0625
3227.2713	3163.5625
3229.56269	3171.8625
3231.8527	3159.5625
3234.14133	3157.7625
3236.42858	3148.2625
3238.71446	3153.9625
3240.99896	3141.8625
3243.28209	3136.1625
3245.56384	3138.0625
3247.84423	3138.3625
3250.12324	3142.4625
3252.40088	3140.2625
3254.67715	3131.8625
3256.95205	3155.1625
3259.22558	3137.8625
3261.49775	3116.9625
3263.76855	3127.2625
3266.03799	3122.0625
3268.30606	3113.9625
3270.57277	3116.7625
3272.83812	3116.6625
3275.10211	3113.9625
3277.36474	3097.6625
3279.62601	3093.0625
3281.88593	3093.4625
3284.14448	3097.9625
3286.40168	3105.6625
3288.65753	3105.8625
3290.91202	3095.7625
3293.16516	3109.5625
3295.41695	3104.3625
3297.66738	3076.5625
3299.91647	3063.4625
3302.16421	3052.7625
3304.4106	3025.4625
3306.65564	3008.2625
3308.89933	2984.9625
3311.14169	2949.6625
3313.38269	2935.9625
3315.62236	2913.1625
3317.86068	2877.9625
3320.09766	2865.0625
3322.3333	2841.6625
3324.5676	2834.2625
3326.80056	2755.6625
3329.03219	2753.0625
3331.26248	1.1625
3333.49143	-0.2375
3335.71905	1.0625
