Data from AgNPs_FTO_APTES_UA_50uM_CRN_5uM_R6G_10uM_NaF_0.1M_Addition_RamanShift__24__13-00-34-840.txt Node

Date: Mon Feb 21 13:00:34 GMT 2022
User: TCL
Spectrometer: QEP01345
Trigger mode: 4
Integration Time (sec): 7.000000E0
Scans to average: 10
Electric dark correction enabled: true
Nonlinearity correction enabled: false
Boxcar width: 0
XAxis mode: Raman Shifts
Number of Pixels in Spectrum: 1044
>>>>>Begin Spectral Data<<<<<
46.04893	0.3625
50.45542	-0.6375
54.85868	0.1625
59.25871	-1.6375
63.6555	57.8625
68.04907	65.0625
72.43941	65.9625
76.82654	68.0625
81.21044	76.6625
85.59113	78.7625
89.96862	78.6625
94.34289	85.4625
98.71396	86.7625
103.08183	91.3625
107.4465	90.5625
111.80798	96.5625
116.16626	94.2625
120.52136	97.3625
124.87327	104.6625
129.222	102.5625
133.56755	109.7625
137.90993	121.9625
142.24913	131.0625
146.58517	145.2625
150.91804	168.1625
155.24774	198.6625
159.57429	247.6625
163.89768	318.5625
168.21792	428.0625
172.53501	586.6625
176.84895	811.0625
181.15975	1140.3625
185.46741	1604.1625
189.77193	2214.1625
194.07331	2974.8625
198.37157	3836.8625
202.6667	4751.6625
206.9587	5697.8625
211.24758	6672.8625
215.53334	7730.7625
219.81599	8923.9625
224.09553	10327.5625
228.37195	11879.3625
232.64527	13518.0625
236.91549	15055.8625
241.18261	16335.0625
245.44663	17259.6625
249.70755	17867.5625
253.96539	18358.1625
258.22014	18889.4625
262.4718	19311.4625
266.72039	19588.8625
270.96589	19588.8625
275.20832	19222.5625
279.44768	18747.5625
283.68397	18179.3625
287.91719	17850.0625
292.14735	18014.8625
296.37445	18669.9625
300.59849	19855.6625
304.81948	21304.5625
309.03742	22366.4625
313.25231	22475.5625
317.46415	21192.2625
321.67296	19064.3625
325.87872	17225.7625
330.08145	16426.2625
334.28114	16337.6625
338.47781	16765.2625
342.67145	17355.2625
346.86207	18324.1625
351.04966	19788.5625
355.23424	21584.8625
359.4158	22858.7625
363.59435	23411.2625
367.76989	23429.2625
371.94243	23166.8625
376.11196	22746.7625
380.27849	22391.7625
384.44203	21948.3625
388.60257	21473.7625
392.76012	21194.7625
396.91468	21282.8625
401.06626	21901.9625
405.21485	22246.3625
409.36047	21568.0625
413.50311	19905.2625
417.64277	18308.3625
421.77947	17367.2625
425.9132	16913.7625
430.04396	16772.8625
434.17176	16823.3625
438.2966	17076.0625
442.41849	17624.5625
446.53742	18312.2625
450.6534	18928.8625
454.76644	19265.8625
458.87653	19230.5625
462.98368	18943.9625
467.08789	18534.9625
471.18916	18026.4625
475.2875	17480.4625
479.38291	17010.3625
483.4754	16603.4625
487.56496	16313.4625
491.6516	16091.4625
495.73531	15966.0625
499.81612	16039.1625
503.89401	16311.3625
507.96899	16641.2625
512.04106	17035.6625
516.11023	17448.5625
520.1765	17799.9625
524.23987	17787.1625
528.30034	17432.1625
532.35792	17110.4625
536.41261	16695.6625
540.46441	16233.4625
544.51333	15928.5625
548.55936	16042.7625
552.60252	16532.8625
556.64279	17131.7625
560.6802	17482.9625
564.71473	18106.6625
568.7464	19333.9625
572.7752	19877.6625
576.80114	18754.1625
580.82422	17616.0625
584.84444	17185.9625
588.86181	17259.5625
592.87633	17661.5625
596.888	18151.0625
600.89682	18966.2625
604.9028	22042.8625
608.90594	30959.6625
612.90624	42556.7625
616.90371	40036.9625
620.89834	25323.2625
624.89015	18432.5625
628.87913	17293.2625
632.86528	17646.1625
636.84862	18175.8625
640.82913	17667.3625
644.80683	16304.8625
648.78172	15250.9625
652.75379	15219.5625
656.72306	16209.4625
660.68952	17449.8625
664.65319	17052.8625
668.61405	15687.8625
672.57211	15172.9625
676.52738	15169.1625
680.47986	15213.6625
684.42955	15005.6625
688.37646	14930.3625
692.32058	14967.1625
696.26192	15105.1625
700.20048	15252.6625
704.13626	15379.0625
708.06928	15188.0625
711.99952	14948.0625
715.927	14895.9625
719.85171	15067.1625
723.77365	15178.0625
727.69284	14991.3625
731.60928	14780.5625
735.52295	14731.6625
739.43388	14839.9625
743.34206	14923.5625
747.24749	15020.6625
751.15017	15087.3625
755.05012	15422.6625
758.94733	16708.4625
762.8418	19907.7625
766.73354	25322.6625
770.62254	30479.3625
774.50882	32795.6625
778.39237	30943.1625
782.27321	25573.5625
786.15132	20237.2625
790.02671	17069.4625
793.89938	15631.1625
797.76935	15038.4625
801.6366	14785.1625
805.50115	14628.9625
809.36299	14544.3625
813.22213	14422.6625
817.07857	14345.6625
820.93231	14346.5625
824.78336	14376.3625
828.63172	14456.8625
832.47738	14533.6625
836.32036	14438.6625
840.16066	14312.3625
843.99827	14230.9625
847.8332	14194.8625
851.66546	14130.0625
855.49504	14114.2625
859.32195	14094.8625
863.1462	14033.9625
866.96777	13962.0625
870.78668	13947.9625
874.60293	13932.7625
878.41652	13999.2625
882.22745	14192.6625
886.03573	14315.6625
889.84136	14325.9625
893.64433	14237.9625
897.44466	14154.1625
901.24235	14146.3625
905.0374	14010.9625
908.8298	13799.8625
912.61957	13666.0625
916.40671	13666.1625
920.19121	13855.0625
923.97308	14070.6625
927.75233	14478.1625
931.52895	14838.1625
935.30295	14671.1625
939.07433	13988.9625
942.84309	13388.2625
946.60924	13094.0625
950.37278	12940.2625
954.13371	12858.4625
957.89203	12754.3625
961.64774	12736.3625
965.40086	12651.6625
969.15137	12596.8625
972.89929	12578.2625
976.64461	12524.2625
980.38733	12525.2625
984.12747	12589.8625
987.86502	12685.3625
991.59999	12866.9625
995.33237	13175.0625
999.06217	13711.0625
1002.78939	14415.0625
1006.51404	15020.1625
1010.23611	15457.5625
1013.95561	15570.6625
1017.67255	15542.5625
1021.38692	15260.0625
1025.09872	14953.9625
1028.80796	14897.0625
1032.51465	15225.5625
1036.21877	15639.3625
1039.92035	15762.2625
1043.61937	15660.4625
1047.31584	15393.5625
1051.00976	15025.5625
1054.70114	14669.3625
1058.38998	14529.6625
1062.07627	14529.4625
1065.76003	14535.0625
1069.44126	14606.8625
1073.11995	14866.9625
1076.79611	15245.0625
1080.46974	15842.9625
1084.14085	16649.2625
1087.80943	17452.6625
1091.47549	17683.7625
1095.13903	17174.5625
1098.80005	16295.0625
1102.45857	15622.2625
1106.11456	15461.0625
1109.76805	15755.8625
1113.41903	16501.8625
1117.06751	17631.8625
1120.71348	19096.7625
1124.35696	20701.7625
1127.99793	21843.0625
1131.63641	21266.6625
1135.2724	19488.3625
1138.90589	18032.2625
1142.5369	17047.8625
1146.16542	16430.1625
1149.79145	16035.4625
1153.415	15948.2625
1157.03607	16126.5625
1160.65467	16589.7625
1164.27079	17496.6625
1167.88443	18980.3625
1171.49561	21231.8625
1175.10432	24925.8625
1178.71056	29950.6625
1182.31434	34185.0625
1185.91565	35294.2625
1189.51451	33583.5625
1193.11091	30480.2625
1196.70485	27467.3625
1200.29634	25376.4625
1203.88538	23650.6625
1207.47197	21645.1625
1211.05612	19847.2625
1214.63782	18787.0625
1218.21708	18389.3625
1221.79391	18449.1625
1225.36829	18616.9625
1228.94024	18513.8625
1232.50976	18128.8625
1236.07685	17876.3625
1239.6415	17753.5625
1243.20374	17758.1625
1246.76355	17970.0625
1250.32093	18259.6625
1253.8759	18843.3625
1257.42845	19716.1625
1260.97859	20750.7625
1264.52631	21877.2625
1268.07163	23051.1625
1271.61453	24040.5625
1275.15503	24805.0625
1278.69312	25347.6625
1282.22882	25853.5625
1285.76211	26786.6625
1289.29301	28098.5625
1292.82151	29458.7625
1296.34761	31111.0625
1299.87133	33687.7625
1303.39266	38084.8625
1306.9116	44612.9625
1310.42815	51254.6625
1313.94233	53489.3625
1317.45412	50002.4625
1320.96354	44100.7625
1324.47058	38641.8625
1327.97525	34456.2625
1331.47754	32009.6625
1334.97747	31151.7625
1338.47502	31389.3625
1341.97022	32695.6625
1345.46305	35033.5625
1348.95352	38261.7625
1352.44163	42405.8625
1355.92738	48549.5625
1359.41078	58360.7625
1362.89183	66940.8625
1366.37053	63120.0625
1369.84688	49809.8625
1373.32088	38469.0625
1376.79254	32116.2625
1380.26186	28808.6625
1383.72883	26727.5625
1387.19347	25192.7625
1390.65578	24050.7625
1394.11575	23323.5625
1397.57339	23194.8625
1401.0287	23334.5625
1404.48168	23537.7625
1407.93234	23580.9625
1411.38068	23570.1625
1414.82669	23468.7625
1418.27039	23152.6625
1421.71177	22557.1625
1425.15083	21942.5625
1428.58758	21682.3625
1432.02203	22068.8625
1435.45416	22557.0625
1438.88399	22691.1625
1442.31151	22611.2625
1445.73673	22784.6625
1449.15965	22997.0625
1452.58027	23070.3625
1455.9986	22964.5625
1459.41463	22962.6625
1462.82837	23394.6625
1466.23982	24109.5625
1469.64898	24795.6625
1473.05586	25072.8625
1476.46045	25143.5625
1479.86276	25322.8625
1483.26279	25821.2625
1486.66054	26743.2625
1490.05602	28055.6625
1493.44922	30080.3625
1496.84016	33312.2625
1500.22882	38572.1625
1503.61521	46309.6625
1506.99934	55278.5625
1510.38121	61937.3625
1513.76081	62079.1625
1517.13816	55092.9625
1520.51324	45174.3625
1523.88607	36782.6625
1527.25665	31693.7625
1530.62498	28872.9625
1533.99105	27282.3625
1537.35488	26191.3625
1540.71647	25440.7625
1544.07581	25036.5625
1547.4329	24998.0625
1550.78776	25086.0625
1554.14038	25401.8625
1557.49077	25782.1625
1560.83892	26511.2625
1564.18484	27716.0625
1567.52853	29201.4625
1570.86999	30408.6625
1574.20922	30908.4625
1577.54624	30429.0625
1580.88103	28171.3625
1584.2136	25467.5625
1587.54395	24080.5625
1590.87208	24580.8625
1594.19801	26546.0625
1597.52172	29031.2625
1600.84321	29865.6625
1604.16251	28367.6625
1607.47959	25822.6625
1610.79447	23232.9625
1614.10715	20853.1625
1617.41763	19046.3625
1620.7259	17939.4625
1624.03199	17549.1625
1627.33587	17739.6625
1630.63757	18611.8625
1633.93707	20256.1625
1637.23439	22823.7625
1640.52951	26810.2625
1643.82246	32381.5625
1647.11321	38729.1625
1650.40179	42384.3625
1653.68819	39794.6625
1656.97241	32317.6625
1660.25446	24880.2625
1663.53433	19890.7625
1666.81203	17093.8625
1670.08756	15480.5625
1673.36092	14533.7625
1676.63211	13917.5625
1679.90115	13517.1625
1683.16801	13210.6625
1686.43272	12962.3625
1689.69527	12782.4625
1692.95567	12589.3625
1696.2139	12415.4625
1699.46999	12247.4625
1702.72392	12185.3625
1705.97571	12230.4625
1709.22535	12269.2625
1712.47284	12319.8625
1715.71819	12326.7625
1718.96139	12239.3625
1722.20246	12167.8625
1725.44139	12032.7625
1728.67818	11900.8625
1731.91284	11771.7625
1735.14537	11663.2625
1738.37576	11579.9625
1741.60403	11535.0625
1744.83017	11462.1625
1748.05418	11415.0625
1751.27607	11334.7625
1754.49584	11225.1625
1757.71349	11163.8625
1760.92903	11069.7625
1764.14244	11036.4625
1767.35375	11008.3625
1770.56294	10934.8625
1773.77002	10905.7625
1776.97499	10902.6625
1780.17785	10924.2625
1783.37861	10914.7625
1786.57727	10860.3625
1789.77382	10853.5625
1792.96828	10857.1625
1796.16064	10833.3625
1799.3509	10792.0625
1802.53907	10785.2625
1805.72514	10757.8625
1808.90913	10704.6625
1812.09102	10646.1625
1815.27083	10616.7625
1818.44856	10608.5625
1821.6242	10578.9625
1824.79776	10570.5625
1827.96924	10567.4625
1831.13864	10566.1625
1834.30597	10509.0625
1837.47122	10496.8625
1840.6344	10480.5625
1843.7955	10479.5625
1846.95454	10480.9625
1850.11151	10467.6625
1853.26642	10467.1625
1856.41926	10479.2625
1859.57004	10459.6625
1862.71876	10475.4625
1865.86542	10465.6625
1869.01003	10454.8625
1872.15258	10467.1625
1875.29308	10490.7625
1878.43152	10488.3625
1881.56792	10500.6625
1884.70227	10482.1625
1887.83457	10490.7625
1890.96482	10511.5625
1894.09304	10463.9625
1897.21921	10468.9625
1900.34335	10492.7625
1903.46544	10496.3625
1906.58551	10500.2625
1909.70353	10489.9625
1912.81953	10490.2625
1915.93349	10476.8625
1919.04543	10426.6625
1922.15534	10401.0625
1925.26322	10365.3625
1928.36908	10281.1625
1931.47292	10241.7625
1934.57473	10160.6625
1937.67453	10130.2625
1940.77232	10074.0625
1943.86808	10049.7625
1946.96184	10027.4625
1950.05358	9982.5625
1953.14331	9960.0625
1956.23103	9930.8625
1959.31675	9874.6625
1962.40046	9854.8625
1965.48217	9863.8625
1968.56188	9855.4625
1971.63959	9838.3625
1974.7153	9791.6625
1977.78901	9777.8625
1980.86073	9725.7625
1983.93046	9669.6625
1986.99819	9599.6625
1990.06394	9554.2625
1993.1277	9553.8625
1996.18947	9486.6625
1999.24925	9463.6625
2002.30706	9434.8625
2005.36288	9392.5625
2008.41672	9359.2625
2011.46859	9324.0625
2014.51848	9336.4625
2017.56639	9311.9625
2020.61233	9269.1625
2023.6563	9247.7625
2026.6983	9220.1625
2029.73833	9190.2625
2032.7764	9177.7625
2035.8125	9168.2625
2038.84664	9143.7625
2041.87881	9134.1625
2044.90903	9143.8625
2047.93729	9121.7625
2050.96359	9110.9625
2053.98794	9082.4625
2057.01034	9080.5625
2060.03078	9077.8625
2063.04927	9074.7625
2066.06582	9035.4625
2069.08042	9005.2625
2072.09307	9006.7625
2075.10378	9007.7625
2078.11255	8992.4625
2081.11938	8997.2625
2084.12426	8976.1625
2087.12722	8985.7625
2090.12824	8980.0625
2093.12732	8971.8625
2096.12447	8954.1625
2099.11969	8964.3625
2102.11299	8971.8625
2105.10435	8986.3625
2108.09379	8979.4625
2111.08131	8990.5625
2114.0669	9005.2625
2117.05057	9020.3625
2120.03233	9047.2625
2123.01216	9020.5625
2125.99008	9040.5625
2128.96609	9055.6625
2131.94018	9049.4625
2134.91236	9072.1625
2137.88263	9044.0625
2140.851	9048.9625
2143.81746	9038.9625
2146.78201	9004.9625
2149.74466	8987.0625
2152.7054	8982.8625
2155.66425	8953.0625
2158.6212	8980.9625
2161.57625	8957.8625
2164.52941	8963.6625
2167.48067	8943.7625
2170.43004	8959.0625
2173.37752	8936.6625
2176.32311	8963.1625
2179.26681	8955.3625
2182.20863	8989.2625
2185.14856	8990.7625
2188.08661	8978.4625
2191.02278	8955.9625
2193.95707	8955.8625
2196.88948	8935.1625
2199.82001	8959.2625
2202.74867	8918.4625
2205.67545	8916.3625
2208.60037	8909.1625
2211.52341	8924.0625
2214.44458	8907.2625
2217.36388	8910.0625
2220.28132	8889.5625
2223.1969	8856.3625
2226.11061	8851.7625
2229.02246	8829.6625
2231.93245	8818.9625
2234.84058	8785.7625
2237.74686	8777.0625
2240.65128	8774.8625
2243.55385	8769.8625
2246.45456	8776.9625
2249.35343	8786.9625
2252.25044	8772.3625
2255.14561	8773.6625
2258.03893	8795.5625
2260.93041	8787.9625
2263.82004	8780.1625
2266.70783	8769.6625
2269.59378	8721.2625
2272.4779	8718.9625
2275.36017	8691.8625
2278.24061	8688.9625
2281.11922	8645.2625
2283.996	8638.1625
2286.87094	8615.6625
2289.74405	8583.2625
2292.61534	8572.0625
2295.4848	8571.4625
2298.35243	8557.7625
2301.21824	8550.9625
2304.08223	8571.9625
2306.94439	8565.0625
2309.80474	8546.2625
2312.66327	8573.9625
2315.51999	8580.5625
2318.37489	8577.2625
2321.22797	8586.2625
2324.07925	8561.9625
2326.92871	8550.4625
2329.77637	8528.5625
2332.62222	8530.1625
2335.46626	8547.8625
2338.3085	8543.9625
2341.14893	8558.3625
2343.98756	8557.9625
2346.8244	8610.8625
2349.65943	8610.2625
2352.49267	8639.9625
2355.32411	8660.4625
2358.15376	8671.8625
2360.98161	8696.9625
2363.80768	8676.3625
2366.63195	8718.5625
2369.45444	8705.6625
2372.27514	8730.5625
2375.09405	8695.7625
2377.91118	8657.2625
2380.72652	8607.4625
2383.54009	8585.2625
2386.35187	8519.4625
2389.16188	8472.5625
2391.97011	8469.3625
2394.77657	8448.9625
2397.58125	8423.7625
2400.38416	8374.3625
2403.18529	8341.9625
2405.98466	8353.3625
2408.78226	8324.1625
2411.57809	8322.1625
2414.37216	8297.6625
2417.16446	8276.7625
2419.955	8258.1625
2422.74378	8276.8625
2425.5308	8282.1625
2428.31606	8279.6625
2431.09956	8273.9625
2433.88131	8278.8625
2436.6613	8305.9625
2439.43954	8286.6625
2442.21603	8297.5625
2444.99077	8297.8625
2447.76377	8317.7625
2450.53501	8300.9625
2453.30451	8333.7625
2456.07226	8323.7625
2458.83827	8334.5625
2461.60254	8337.1625
2464.36507	8326.6625
2467.12586	8333.2625
2469.88492	8340.3625
2472.64224	8342.7625
2475.39782	8365.1625
2478.15167	8358.0625
2480.90379	8406.6625
2483.65417	8445.6625
2486.40283	8476.6625
2489.14976	8505.1625
2491.89497	8534.9625
2494.63845	8532.5625
2497.3802	8499.5625
2500.12024	8503.8625
2502.85855	8466.0625
2505.59514	8418.6625
2508.33002	8402.9625
2511.06318	8354.3625
2513.79462	8298.1625
2516.52435	8275.9625
2519.25237	8244.3625
2521.97867	8200.0625
2524.70327	8178.3625
2527.42616	8175.3625
2530.14734	8161.9625
2532.86681	8166.2625
2535.58458	8168.9625
2538.30065	8182.8625
2541.01501	8179.0625
2543.72768	8190.1625
2546.43864	8193.8625
2549.14791	8182.8625
2551.85548	8185.9625
2554.56136	8202.9625
2557.26554	8193.9625
2559.96803	8185.9625
2562.66883	8201.8625
2565.36794	8179.7625
2568.06536	8176.7625
2570.7611	8177.7625
2573.45514	8156.8625
2576.14751	8171.0625
2578.83819	8141.8625
2581.52719	8135.3625
2584.21451	8120.9625
2586.90015	8112.5625
2589.58411	8115.9625
2592.2664	8119.3625
2594.94701	8112.3625
2597.62594	8100.6625
2600.30321	8112.6625
2602.9788	8123.9625
2605.65273	8118.1625
2608.32498	8111.7625
2610.99557	8117.2625
2613.66449	8151.8625
2616.33175	8160.7625
2618.99734	8149.0625
2621.66128	8159.2625
2624.32355	8156.8625
2626.98416	8143.6625
2629.64311	8125.5625
2632.30041	8133.7625
2634.95605	8121.4625
2637.61004	8089.6625
2640.26238	8099.0625
2642.91306	8048.1625
2645.56209	8040.5625
2648.20948	8019.4625
2650.85521	8025.3625
2653.4993	8038.4625
2656.14175	8043.2625
2658.78255	8071.6625
2661.42171	8076.2625
2664.05923	8128.8625
2666.6951	8129.2625
2669.32934	8144.8625
2671.96194	8155.3625
2674.59291	8129.7625
2677.22224	8159.8625
2679.84993	8135.1625
2682.476	8128.4625
2685.10043	8123.2625
2687.72324	8136.6625
2690.34441	8109.6625
2692.96396	8093.6625
2695.58188	8086.9625
2698.19818	8093.7625
2700.81285	8080.8625
2703.4259	8044.7625
2706.03733	7980.2625
2708.64714	8025.2625
2711.25533	8064.9625
2713.86191	8071.9625
2716.46687	8108.3625
2719.07021	8103.6625
2721.67194	8120.5625
2724.27206	8120.5625
2726.87057	8140.3625
2729.46747	8132.9625
2732.06276	8138.8625
2734.65644	8137.0625
2737.24852	8117.2625
2739.83899	8079.1625
2742.42786	8076.9625
2745.01513	8076.0625
2747.60079	8065.6625
2750.18486	8052.7625
2752.76733	8043.9625
2755.3482	8030.1625
2757.92747	8023.5625
2760.50515	8013.1625
2763.08123	8045.6625
2765.65573	8023.6625
2768.22863	7987.5625
2770.79994	8002.8625
2773.36967	8016.5625
2775.9378	8023.4625
2778.50435	8035.1625
2781.06932	8016.9625
2783.6327	8016.9625
2786.1945	8017.0625
2788.75471	8041.5625
2791.31335	8040.1625
2793.87041	8020.6625
2796.42589	8015.3625
2798.97979	8018.9625
2801.53212	7997.4625
2804.08288	8013.5625
2806.63206	8000.9625
2809.17967	8019.7625
2811.72571	8000.7625
2814.27018	8025.4625
2816.81308	7998.8625
2819.35442	8027.4625
2821.89419	8040.9625
2824.43239	8072.0625
2826.96904	8069.1625
2829.50412	8075.3625
2832.03763	8048.6625
2834.56959	8053.2625
2837.1	8039.2625
2839.62884	8021.7625
2842.15613	8034.9625
2844.68186	8027.2625
2847.20604	8048.9625
2849.72867	8080.2625
2852.24974	8061.3625
2854.76927	8079.6625
2857.28724	8048.1625
2859.80367	8110.1625
2862.31855	8108.0625
2864.83189	8147.3625
2867.34368	8177.6625
2869.85393	8199.1625
2872.36264	8198.5625
2874.8698	8220.1625
2877.37543	8196.5625
2879.87952	8191.5625
2882.38207	8188.3625
2884.88308	8177.0625
2887.38256	8187.2625
2889.88051	8181.9625
2892.37692	8194.9625
2894.8718	8171.4625
2897.36515	8173.9625
2899.85698	8182.4625
2902.34727	8209.5625
2904.83604	8215.3625
2907.32328	8222.8625
2909.809	8223.9625
2912.29319	8203.6625
2914.77587	8197.6625
2917.25702	8181.0625
2919.73665	8163.9625
2922.21476	8155.1625
2924.69136	8131.8625
2927.16644	8134.8625
2929.64	8097.5625
2932.11205	8070.7625
2934.58258	8043.8625
2937.05161	8022.3625
2939.51912	8041.1625
2941.98513	8021.1625
2944.44962	8011.5625
2946.91261	7958.2625
2949.37409	7993.5625
2951.83407	7984.2625
2954.29254	7982.9625
2956.74951	7956.9625
2959.20498	7952.3625
2961.65895	7935.3625
2964.11142	7910.1625
2966.56239	7888.6625
2969.01186	7863.3625
2971.45984	7836.8625
2973.90632	7822.9625
2976.35131	7794.6625
2978.7948	7789.5625
2981.23681	7766.3625
2983.67732	7744.4625
2986.11635	7715.4625
2988.55388	7693.7625
2990.98993	7688.7625
2993.4245	7694.6625
2995.85758	7670.8625
2998.28917	7677.2625
3000.71928	7671.4625
3003.14791	7624.7625
3005.57506	7648.6625
3008.00073	7624.0625
3010.42493	7614.2625
3012.84764	7614.0625
3015.26888	7607.3625
3017.68865	7601.0625
3020.10694	7583.9625
3022.52376	7567.2625
3024.9391	7546.3625
3027.35298	7530.6625
3029.76539	7528.7625
3032.17632	7518.6625
3034.5858	7489.0625
3036.9938	7447.3625
3039.40034	7454.7625
3041.80542	7417.1625
3044.20903	7412.2625
3046.61118	7412.1625
3049.01187	7401.3625
3051.4111	7390.2625
3053.80888	7378.4625
3056.20519	7364.8625
3058.60005	7343.2625
3060.99345	7313.0625
3063.3854	7302.1625
3065.7759	7283.3625
3068.16494	7251.9625
3070.55254	7224.6625
3072.93868	7204.2625
3075.32338	7176.3625
3077.70662	7156.0625
3080.08842	7143.9625
3082.46878	7142.5625
3084.84769	7114.3625
3087.22515	7140.5625
3089.60118	7131.7625
3091.97576	7110.0625
3094.3489	7106.1625
3096.72061	7121.7625
3099.09087	7111.4625
3101.4597	7103.4625
3103.82709	7110.7625
3106.19305	7087.9625
3108.55757	7095.5625
3110.92066	7080.9625
3113.28232	7061.8625
3115.64255	7042.3625
3118.00134	7034.7625
3120.35871	7039.0625
3122.71466	7010.8625
3125.06917	7009.3625
3127.42226	6998.0625
3129.77393	7008.6625
3132.12417	7024.0625
3134.47299	7002.4625
3136.82039	7001.1625
3139.16636	7002.6625
3141.51092	7007.4625
3143.85406	7009.7625
3146.19579	6987.3625
3148.53609	7016.0625
3150.87499	7021.9625
3153.21246	7032.5625
3155.54853	7050.4625
3157.88318	7038.2625
3160.21642	7051.1625
3162.54826	7065.1625
3164.87868	7038.1625
3167.2077	7042.3625
3169.5353	7034.9625
3171.86151	7054.1625
3174.18631	7061.8625
3176.5097	7020.8625
3178.83169	7038.1625
3181.15228	7015.3625
3183.47147	7018.8625
3185.78926	7022.8625
3188.10565	7000.6625
3190.42065	7013.8625
3192.73424	7041.3625
3195.04645	7043.0625
3197.35725	7040.7625
3199.66667	7048.9625
3201.97469	7054.8625
3204.28132	7084.4625
3206.58656	7085.1625
3208.8904	7089.1625
3211.19287	7104.0625
3213.49394	7123.1625
3215.79363	7119.4625
3218.09193	7135.2625
3220.38884	7160.0625
3222.68438	7149.2625
3224.97853	7142.8625
3227.2713	7157.5625
3229.56269	7153.0625
3231.8527	7162.8625
3234.14133	7169.9625
3236.42858	7177.6625
3238.71446	7158.0625
3240.99896	7124.7625
3243.28209	7123.2625
3245.56384	7130.8625
3247.84423	7136.9625
3250.12324	7125.8625
3252.40088	7139.2625
3254.67715	7124.6625
3256.95205	7127.0625
3259.22558	7157.7625
3261.49775	7152.7625
3263.76855	7139.7625
3266.03799	7142.3625
3268.30606	7117.2625
3270.57277	7130.5625
3272.83812	7109.8625
3275.10211	7097.3625
3277.36474	7111.0625
3279.62601	7113.1625
3281.88593	7093.1625
3284.14448	7115.8625
3286.40168	7137.5625
3288.65753	7128.8625
3290.91202	7141.8625
3293.16516	7115.3625
3295.41695	7105.7625
3297.66738	7077.4625
3299.91647	7069.9625
3302.16421	7023.8625
3304.4106	6969.9625
3306.65564	6909.9625
3308.89933	6875.6625
3311.14169	6821.8625
3313.38269	6746.4625
3315.62236	6702.5625
3317.86068	6646.0625
3320.09766	6593.7625
3322.3333	6533.4625
3324.5676	6496.2625
3326.80056	6380.3625
3329.03219	6342.8625
3331.26248	1.1625
3333.49143	-0.5375
3335.71905	0.2625
