Data from AgNPs_FTO_APTES_UA_50uM_CRN_20uM_R6G_10uM_NaF_0.1M_Addition_RamanShift__29__14-28-04-951.txt Node

Date: Mon Feb 21 14:28:04 GMT 2022
User: TCL
Spectrometer: QEP01345
Trigger mode: 4
Integration Time (sec): 7.000000E0
Scans to average: 10
Electric dark correction enabled: true
Nonlinearity correction enabled: false
Boxcar width: 0
XAxis mode: Raman Shifts
Number of Pixels in Spectrum: 1044
>>>>>Begin Spectral Data<<<<<
46.04893	1.1
50.45542	-0.2
54.85868	-0.5
59.25871	-0.6
63.6555	41.6
68.04907	47.8
72.43941	51
76.82654	55.9
81.21044	58.4
85.59113	62
89.96862	63
94.34289	70.7
98.71396	66.6
103.08183	71.1
107.4465	70.9
111.80798	70.7
116.16626	67.7
120.52136	71.2
124.87327	76
129.222	73.4
133.56755	76
137.90993	82.9
142.24913	83.8
146.58517	93.2
150.91804	98.1
155.24774	114.5
159.57429	137.6
163.89768	166.6
168.21792	219
172.53501	291.9
176.84895	394.9
181.15975	549.7
185.46741	760.1
189.77193	1046.1
194.07331	1397.7
198.37157	1811.7
202.6667	2232.7
206.9587	2656.5
211.24758	3090.9
215.53334	3550.2
219.81599	4092.5
224.09553	4708.1
228.37195	5394.8
232.64527	6135.9
236.91549	6881
241.18261	7502.7
245.44663	8008.9
249.70755	8388.4
253.96539	8653.8
258.22014	8852
262.4718	8956
266.72039	9028.5
270.96589	9017.2
275.20832	8906.3
279.44768	8673.6
283.68397	8512.4
287.91719	8429.8
292.14735	8510.6
296.37445	8852.1
300.59849	9472.6
304.81948	10179.8
309.03742	10722
313.25231	10753.1
317.46415	10045
321.67296	8923.2
325.87872	8032.4
330.08145	7597.8
334.28114	7600.2
338.47781	7828.5
342.67145	8141
346.86207	8688.2
351.04966	9482.5
355.23424	10405.4
359.4158	11052.4
363.59435	11370.1
367.76989	11366.2
371.94243	11225.5
376.11196	11033.5
380.27849	10876.2
384.44203	10578.2
388.60257	10293.6
392.76012	10096.2
396.91468	10152.6
401.06626	10484.2
405.21485	10730.2
409.36047	10388.6
413.50311	9495.9
417.64277	8679
421.77947	8181.8
425.9132	7934.8
430.04396	7851
434.17176	7878.1
438.2966	8039
442.41849	8333.4
446.53742	8637.1
450.6534	8935
454.76644	9024.6
458.87653	9005.5
462.98368	8859.3
467.08789	8639.7
471.18916	8362
475.2875	8060.8
479.38291	7807
483.4754	7671.2
487.56496	7558.1
491.6516	7527.8
495.73531	7523.9
499.81612	7558.6
503.89401	7717.8
507.96899	7912.1
512.04106	8149.8
516.11023	8441
520.1765	8605.3
524.23987	8581.2
528.30034	8342.5
532.35792	8056.3
536.41261	7791.8
540.46441	7465.5
544.51333	7315.8
548.55936	7314.2
552.60252	7578.5
556.64279	7856.1
560.6802	7986.9
564.71473	8252.1
568.7464	8867.7
572.7752	9157.9
576.80114	8625.7
580.82422	8073.3
584.84444	7846.6
588.86181	7783.7
592.87633	7787.5
596.888	7914.2
600.89682	8367.4
604.9028	10047.9
608.90594	14647
612.90624	20829.9
616.90371	19713
620.89834	12111
624.89015	8632.9
628.87913	8001.4
632.86528	8161.1
636.84862	8396.5
640.82913	8214.6
644.80683	7585.5
648.78172	7163.7
652.75379	7186.9
656.72306	7745.7
660.68952	8406.5
664.65319	8184.9
668.61405	7450.9
672.57211	7100.5
676.52738	7066
680.47986	7059.5
684.42955	6948.2
688.37646	6896.2
692.32058	6920.1
696.26192	7005.3
700.20048	7127
704.13626	7251.9
708.06928	7199.6
711.99952	7112.6
715.927	7084.2
719.85171	7143.7
723.77365	7174.4
727.69284	7101.3
731.60928	7004.2
735.52295	6991.8
739.43388	7060
743.34206	7085.9
747.24749	7114.4
751.15017	7213.2
755.05012	7418.4
758.94733	8071.7
762.8418	9567.9
766.73354	12069.2
770.62254	14635.8
774.50882	16043.8
778.39237	15453.7
782.27321	12671
786.15132	9826.1
790.02671	8246.3
793.89938	7558.3
797.76935	7298.9
801.6366	7174.1
805.50115	7104
809.36299	7083.5
813.22213	7059.5
817.07857	7020.7
820.93231	6977.3
824.78336	7013
828.63172	7052.7
832.47738	7057.4
836.32036	7031.3
840.16066	6940.8
843.99827	6915.8
847.8332	6845.8
851.66546	6852
855.49504	6873.2
859.32195	6859.8
863.1462	6809.2
866.96777	6761.4
870.78668	6750
874.60293	6797.8
878.41652	6862
882.22745	6949.6
886.03573	7031.1
889.84136	7024.6
893.64433	6956.1
897.44466	6931.2
901.24235	6936.5
905.0374	6880.2
908.8298	6798.2
912.61957	6746.4
916.40671	6744.8
920.19121	6804
923.97308	6925.7
927.75233	7096
931.52895	7290.1
935.30295	7165.6
939.07433	6803.3
942.84309	6522.1
946.60924	6351.8
950.37278	6284.5
954.13371	6230.8
957.89203	6217.2
961.64774	6186.8
965.40086	6178
969.15137	6160.4
972.89929	6131.5
976.64461	6130.6
980.38733	6128.5
984.12747	6129.9
987.86502	6203
991.59999	6238.6
995.33237	6347.9
999.06217	6532.4
1002.78939	6756
1006.51404	6965.9
1010.23611	7179.8
1013.95561	7321.3
1017.67255	7289.4
1021.38692	7150.6
1025.09872	6993
1028.80796	6925.3
1032.51465	6991
1036.21877	7159.8
1039.92035	7237.5
1043.61937	7270.1
1047.31584	7240.5
1051.00976	7142.3
1054.70114	7078
1058.38998	7015.5
1062.07627	7062
1065.76003	7101
1069.44126	7184.9
1073.11995	7303.6
1076.79611	7485.9
1080.46974	7751.1
1084.14085	8140.7
1087.80943	8491.7
1091.47549	8568.1
1095.13903	8317.2
1098.80005	7837.9
1102.45857	7468.6
1106.11456	7384.4
1109.76805	7534.5
1113.41903	7873.2
1117.06751	8420
1120.71348	9166.9
1124.35696	9981.6
1127.99793	10503.7
1131.63641	10204.8
1135.2724	9289.6
1138.90589	8555.3
1142.5369	8090.4
1146.16542	7793.4
1149.79145	7603.2
1153.415	7562.7
1157.03607	7646.4
1160.65467	7886
1164.27079	8273.6
1167.88443	8922.3
1171.49561	9999.4
1175.10432	11850.1
1178.71056	14285.4
1182.31434	15970.7
1185.91565	16165.5
1189.51451	15348.8
1193.11091	13922
1196.70485	12444.1
1200.29634	11495.8
1203.88538	10722.3
1207.47197	9756.9
1211.05612	8923.6
1214.63782	8453.6
1218.21708	8263.9
1221.79391	8231.6
1225.36829	8276.9
1228.94024	8329.3
1232.50976	8327.9
1236.07685	8326.8
1239.6415	8372.5
1243.20374	8409.6
1246.76355	8501.3
1250.32093	8609
1253.8759	8857.6
1257.42845	9190.1
1260.97859	9612.6
1264.52631	10054.2
1268.07163	10492.7
1271.61453	10901.6
1275.15503	11164.3
1278.69312	11297.7
1282.22882	11438.7
1285.76211	11838.2
1289.29301	12389
1292.82151	12898.6
1296.34761	13482.2
1299.87133	14496.2
1303.39266	16407.5
1306.9116	19261.9
1310.42815	22116.5
1313.94233	23115.6
1317.45412	21535.2
1320.96354	18901.9
1324.47058	16453.4
1327.97525	14613.5
1331.47754	13615.1
1334.97747	13335.3
1338.47502	13573.4
1341.97022	14335.8
1345.46305	15561.2
1348.95352	17212.5
1352.44163	19349.8
1355.92738	22483.5
1359.41078	27114.7
1362.89183	30454.8
1366.37053	28209.7
1369.84688	22662.7
1373.32088	17855.2
1376.79254	14783.1
1380.26186	13046.9
1383.72883	12004.9
1387.19347	11229.7
1390.65578	10515.5
1394.11575	10005.6
1397.57339	9771.7
1401.0287	9776
1404.48168	9834.2
1407.93234	9968.1
1411.38068	10129.6
1414.82669	10223
1418.27039	10159.7
1421.71177	10016
1425.15083	9819.1
1428.58758	9770.1
1432.02203	9893.9
1435.45416	9988.8
1438.88399	9969.4
1442.31151	9923.4
1445.73673	9964.2
1449.15965	10015.8
1452.58027	9994.3
1455.9986	9855.8
1459.41463	9831.5
1462.82837	9983.2
1466.23982	10280.5
1469.64898	10595.1
1473.05586	10757.6
1476.46045	10891.8
1479.86276	11173.9
1483.26279	11560
1486.66054	12115.6
1490.05602	12922.3
1493.44922	14073
1496.84016	15921.3
1500.22882	18784.3
1503.61521	22509.6
1506.99934	26493.7
1510.38121	29436.4
1513.76081	29626
1517.13816	26488.1
1520.51324	21610.5
1523.88607	17490.9
1527.25665	14906.7
1530.62498	13508.4
1533.99105	12689.5
1537.35488	12188.9
1540.71647	11920.2
1544.07581	11881.2
1547.4329	11954.7
1550.78776	11982.9
1554.14038	12042.6
1557.49077	12177.6
1560.83892	12517.2
1564.18484	13104.9
1567.52853	13844
1570.86999	14458
1574.20922	14759.3
1577.54624	14455.6
1580.88103	13249.9
1584.2136	11762.5
1587.54395	10969.2
1590.87208	11019.9
1594.19801	11800.6
1597.52172	12874.3
1600.84321	13316.8
1604.16251	12776.5
1607.47959	11749.9
1610.79447	10676.9
1614.10715	9684.5
1617.41763	8934.6
1620.7259	8508.8
1624.03199	8339.8
1627.33587	8416.2
1630.63757	8719.8
1633.93707	9284.9
1637.23439	10208.6
1640.52951	11661.6
1643.82246	13790.3
1647.11321	16386.8
1650.40179	18142.6
1653.68819	17290.1
1656.97241	14269
1660.25446	11214.5
1663.53433	9199.1
1666.81203	8035.6
1670.08756	7405
1673.36092	7068.1
1676.63211	6825
1679.90115	6667.1
1683.16801	6522
1686.43272	6417.5
1689.69527	6327.4
1692.95567	6214.2
1696.2139	6100.2
1699.46999	5998.4
1702.72392	5966.2
1705.97571	6018.5
1709.22535	6106.9
1712.47284	6162.7
1715.71819	6221.1
1718.96139	6225.5
1722.20246	6203.3
1725.44139	6157.9
1728.67818	6094.7
1731.91284	6039.9
1735.14537	5948.8
1738.37576	5920.4
1741.60403	5883.6
1744.83017	5824.1
1748.05418	5822.8
1751.27607	5769
1754.49584	5713.3
1757.71349	5658.7
1760.92903	5594.9
1764.14244	5577.9
1767.35375	5559.3
1770.56294	5535.3
1773.77002	5535.6
1776.97499	5538.4
1780.17785	5555.7
1783.37861	5585.5
1786.57727	5594.8
1789.77382	5593
1792.96828	5578.5
1796.16064	5568.4
1799.3509	5560
1802.53907	5552.9
1805.72514	5544.1
1808.90913	5514.9
1812.09102	5516.4
1815.27083	5484
1818.44856	5481.6
1821.6242	5471.8
1824.79776	5452.7
1827.96924	5447.7
1831.13864	5443.6
1834.30597	5431.8
1837.47122	5416.9
1840.6344	5407.1
1843.7955	5401.2
1846.95454	5402.5
1850.11151	5395.6
1853.26642	5417.5
1856.41926	5398.5
1859.57004	5407.8
1862.71876	5396.5
1865.86542	5405.2
1869.01003	5400
1872.15258	5415.9
1875.29308	5421.2
1878.43152	5411.5
1881.56792	5403.5
1884.70227	5405.7
1887.83457	5412.6
1890.96482	5409.3
1894.09304	5405
1897.21921	5418.4
1900.34335	5423.4
1903.46544	5408.8
1906.58551	5423
1909.70353	5416.6
1912.81953	5419.1
1915.93349	5423.5
1919.04543	5396.8
1922.15534	5392.8
1925.26322	5363.6
1928.36908	5347.1
1931.47292	5331.9
1934.57473	5316.3
1937.67453	5282.1
1940.77232	5264.5
1943.86808	5233.4
1946.96184	5227.2
1950.05358	5189.2
1953.14331	5174.8
1956.23103	5154.6
1959.31675	5149.5
1962.40046	5135.4
1965.48217	5118.4
1968.56188	5116.3
1971.63959	5101.3
1974.7153	5097.7
1977.78901	5095.1
1980.86073	5046.1
1983.93046	5027.4
1986.99819	5005.8
1990.06394	4984
1993.1277	4967.8
1996.18947	4944.4
1999.24925	4925.3
2002.30706	4918.1
2005.36288	4890.8
2008.41672	4879.8
2011.46859	4863.8
2014.51848	4867.3
2017.56639	4846.8
2020.61233	4809.9
2023.6563	4815.6
2026.6983	4790.4
2029.73833	4783.2
2032.7764	4765.6
2035.8125	4772.8
2038.84664	4753.4
2041.87881	4748
2044.90903	4748.6
2047.93729	4728.7
2050.96359	4728.1
2053.98794	4725.8
2057.01034	4721.6
2060.03078	4719
2063.04927	4688.1
2066.06582	4696.1
2069.08042	4679.5
2072.09307	4681.4
2075.10378	4663
2078.11255	4661.2
2081.11938	4669.3
2084.12426	4667.4
2087.12722	4682.4
2090.12824	4659.2
2093.12732	4661.4
2096.12447	4646
2099.11969	4657.1
2102.11299	4660.1
2105.10435	4673.5
2108.09379	4659.6
2111.08131	4663.6
2114.0669	4655.5
2117.05057	4667.5
2120.03233	4675.3
2123.01216	4697.7
2125.99008	4691.6
2128.96609	4706.2
2131.94018	4676.5
2134.91236	4701.5
2137.88263	4697.5
2140.851	4683.2
2143.81746	4680.6
2146.78201	4682.8
2149.74466	4688.4
2152.7054	4672.3
2155.66425	4661.6
2158.6212	4655.5
2161.57625	4669.5
2164.52941	4655
2167.48067	4638.5
2170.43004	4647
2173.37752	4651.9
2176.32311	4659.8
2179.26681	4657.8
2182.20863	4655.2
2185.14856	4657.3
2188.08661	4666.1
2191.02278	4655.2
2193.95707	4642.2
2196.88948	4630.9
2199.82001	4627.9
2202.74867	4639.7
2205.67545	4626.5
2208.60037	4615.1
2211.52341	4616.2
2214.44458	4605
2217.36388	4599.6
2220.28132	4587.5
2223.1969	4573.3
2226.11061	4563.5
2229.02246	4566.7
2231.93245	4544.1
2234.84058	4542.1
2237.74686	4530.3
2240.65128	4530.2
2243.55385	4534.8
2246.45456	4518.1
2249.35343	4524.3
2252.25044	4520.3
2255.14561	4521.8
2258.03893	4531.3
2260.93041	4506.6
2263.82004	4522.4
2266.70783	4522.9
2269.59378	4509.1
2272.4779	4482.9
2275.36017	4484.6
2278.24061	4471.4
2281.11922	4482.5
2283.996	4450.5
2286.87094	4434.6
2289.74405	4429.4
2292.61534	4404.4
2295.4848	4403.3
2298.35243	4396.5
2301.21824	4393.4
2304.08223	4391.3
2306.94439	4377.3
2309.80474	4394.9
2312.66327	4406.7
2315.51999	4394.4
2318.37489	4372.4
2321.22797	4383.3
2324.07925	4391.4
2326.92871	4372.6
2329.77637	4361
2332.62222	4364.1
2335.46626	4347.4
2338.3085	4341
2341.14893	4360.2
2343.98756	4365.3
2346.8244	4378.7
2349.65943	4396.3
2352.49267	4393.9
2355.32411	4393
2358.15376	4412.4
2360.98161	4432.2
2363.80768	4437.2
2366.63195	4431.4
2369.45444	4437.4
2372.27514	4436.2
2375.09405	4433.4
2377.91118	4426.3
2380.72652	4398.4
2383.54009	4376.6
2386.35187	4344.9
2389.16188	4314.2
2391.97011	4296.4
2394.77657	4278.4
2397.58125	4276.6
2400.38416	4264.9
2403.18529	4254.2
2405.98466	4223.1
2408.78226	4226.2
2411.57809	4203
2414.37216	4196.8
2417.16446	4192.8
2419.955	4189.1
2422.74378	4220.4
2425.5308	4193.3
2428.31606	4196.5
2431.09956	4180.5
2433.88131	4202.7
2436.6613	4202
2439.43954	4204.8
2442.21603	4206.9
2444.99077	4215.9
2447.76377	4213.2
2450.53501	4238.2
2453.30451	4208.9
2456.07226	4228
2458.83827	4224.8
2461.60254	4212.3
2464.36507	4216.3
2467.12586	4208.6
2469.88492	4224
2472.64224	4209.9
2475.39782	4206.9
2478.15167	4216
2480.90379	4240
2483.65417	4254.3
2486.40283	4283.8
2489.14976	4285.9
2491.89497	4311.3
2494.63845	4296.3
2497.3802	4270.1
2500.12024	4290.9
2502.85855	4270.2
2505.59514	4243.2
2508.33002	4210.3
2511.06318	4193.5
2513.79462	4175.5
2516.52435	4144.1
2519.25237	4143.8
2521.97867	4109.8
2524.70327	4117.5
2527.42616	4093.3
2530.14734	4095.3
2532.86681	4084.3
2535.58458	4096.4
2538.30065	4094.6
2541.01501	4095.1
2543.72768	4088.7
2546.43864	4100.1
2549.14791	4102.1
2551.85548	4109.5
2554.56136	4089.1
2557.26554	4097.2
2559.96803	4093.9
2562.66883	4085.8
2565.36794	4088.1
2568.06536	4077.4
2570.7611	4064.8
2573.45514	4056.8
2576.14751	4059
2578.83819	4030.7
2581.52719	4030.5
2584.21451	4032.6
2586.90015	4023.3
2589.58411	4023
2592.2664	4015
2594.94701	4007.6
2597.62594	4011.9
2600.30321	3999.6
2602.9788	4016.3
2605.65273	4023.4
2608.32498	4007.1
2610.99557	3996.5
2613.66449	4021.7
2616.33175	4013.8
2618.99734	4015.3
2621.66128	4013.8
2624.32355	4005
2626.98416	3999.9
2629.64311	3998.1
2632.30041	3989.6
2634.95605	3973
2637.61004	3971.8
2640.26238	3951
2642.91306	3951
2645.56209	3932.2
2648.20948	3930
2650.85521	3927.4
2653.4993	3926
2656.14175	3941
2658.78255	3950.1
2661.42171	3945.8
2664.05923	3957.4
2666.6951	3981.2
2669.32934	4006
2671.96194	3977.2
2674.59291	3993
2677.22224	3988.3
2679.84993	3979.8
2682.476	3979.8
2685.10043	3982.4
2687.72324	3979.5
2690.34441	3973
2692.96396	3975.4
2695.58188	3981.6
2698.19818	3963.1
2700.81285	3961.1
2703.4259	3957
2706.03733	3890
2708.64714	3922.8
2711.25533	3957.8
2713.86191	3968.4
2716.46687	3990
2719.07021	3988.3
2721.67194	3995.8
2724.27206	3999.3
2726.87057	3996.4
2729.46747	3995.5
2732.06276	3990.3
2734.65644	3976.2
2737.24852	3983.1
2739.83899	3969.9
2742.42786	3953.6
2745.01513	3941.3
2747.60079	3951.6
2750.18486	3949.4
2752.76733	3942.7
2755.3482	3930.8
2757.92747	3936.7
2760.50515	3922.5
2763.08123	3918.6
2765.65573	3918.2
2768.22863	3908.2
2770.79994	3896.8
2773.36967	3894
2775.9378	3903.2
2778.50435	3905.4
2781.06932	3899.6
2783.6327	3927.9
2786.1945	3918.9
2788.75471	3910.7
2791.31335	3907.1
2793.87041	3887.3
2796.42589	3904.2
2798.97979	3904.7
2801.53212	3907.4
2804.08288	3913.3
2806.63206	3902
2809.17967	3914.5
2811.72571	3911.6
2814.27018	3929.7
2816.81308	3927.1
2819.35442	3940.9
2821.89419	3946.7
2824.43239	3952.6
2826.96904	3963.6
2829.50412	3951.2
2832.03763	3961.8
2834.56959	3966.7
2837.1	3962.9
2839.62884	3976.8
2842.15613	3999.6
2844.68186	4014.9
2847.20604	4047.8
2849.72867	4077.6
2852.24974	4072.9
2854.76927	4094.6
2857.28724	4066
2859.80367	4078.1
2862.31855	4068.3
2864.83189	4070.8
2867.34368	4074.2
2869.85393	4077
2872.36264	4109.3
2874.8698	4101.6
2877.37543	4078.9
2879.87952	4064.2
2882.38207	4064.7
2884.88308	4045.1
2887.38256	4063.3
2889.88051	4066.2
2892.37692	4048.8
2894.8718	4045.6
2897.36515	4053.6
2899.85698	4062
2902.34727	4056.9
2904.83604	4063.7
2907.32328	4068.2
2909.809	4057.1
2912.29319	4084.2
2914.77587	4065.1
2917.25702	4053.4
2919.73665	4042.2
2922.21476	4033.4
2924.69136	4018.8
2927.16644	4025.2
2929.64	4006
2932.11205	3990.9
2934.58258	3982.7
2937.05161	3984.6
2939.51912	3982
2941.98513	3975.9
2944.44962	3919.6
2946.91261	3900.6
2949.37409	3902.4
2951.83407	3895.9
2954.29254	3889.8
2956.74951	3866.9
2959.20498	3849.3
2961.65895	3847.6
2964.11142	3836.9
2966.56239	3809.4
2969.01186	3806.4
2971.45984	3806.7
2973.90632	3797.6
2976.35131	3782.4
2978.7948	3770.9
2981.23681	3767.4
2983.67732	3763.8
2986.11635	3730.4
2988.55388	3744.8
2990.98993	3728.8
2993.4245	3711.7
2995.85758	3708.4
2998.28917	3710.6
3000.71928	3696.1
3003.14791	3686.7
3005.57506	3682
3008.00073	3673
3010.42493	3681.7
3012.84764	3682.2
3015.26888	3670.5
3017.68865	3666.6
3020.10694	3662.2
3022.52376	3648.3
3024.9391	3646.9
3027.35298	3647.6
3029.76539	3625.4
3032.17632	3630.5
3034.5858	3610.4
3036.9938	3621.2
3039.40034	3612.7
3041.80542	3599.3
3044.20903	3582.6
3046.61118	3586.8
3049.01187	3587
3051.4111	3587.1
3053.80888	3583.9
3056.20519	3570.6
3058.60005	3561.7
3060.99345	3563.4
3063.3854	3551.7
3065.7759	3546.7
3068.16494	3531.7
3070.55254	3524.1
3072.93868	3506
3075.32338	3482.2
3077.70662	3475.4
3080.08842	3482.6
3082.46878	3462.5
3084.84769	3467.7
3087.22515	3454.1
3089.60118	3449.8
3091.97576	3451.6
3094.3489	3461.5
3096.72061	3443.5
3099.09087	3439.1
3101.4597	3449.3
3103.82709	3455.9
3106.19305	3431.5
3108.55757	3448.4
3110.92066	3447.1
3113.28232	3432.2
3115.64255	3442.4
3118.00134	3436
3120.35871	3435
3122.71466	3431
3125.06917	3427.9
3127.42226	3434.8
3129.77393	3426.5
3132.12417	3426.1
3134.47299	3416.9
3136.82039	3422.4
3139.16636	3440.3
3141.51092	3439.5
3143.85406	3435.7
3146.19579	3447
3148.53609	3454
3150.87499	3461.9
3153.21246	3462.8
3155.54853	3481.3
3157.88318	3485.4
3160.21642	3490.9
3162.54826	3478.6
3164.87868	3485.5
3167.2077	3500.5
3169.5353	3515.6
3171.86151	3494.7
3174.18631	3500.6
3176.5097	3498.3
3178.83169	3508.6
3181.15228	3506
3183.47147	3489.4
3185.78926	3505
3188.10565	3503.3
3190.42065	3502.9
3192.73424	3507.7
3195.04645	3510.7
3197.35725	3524.6
3199.66667	3532.3
3201.97469	3525.2
3204.28132	3554.3
3206.58656	3540.2
3208.8904	3528.8
3211.19287	3555.7
3213.49394	3558.1
3215.79363	3553
3218.09193	3569.9
3220.38884	3559.2
3222.68438	3545.4
3224.97853	3564
3227.2713	3569.8
3229.56269	3567.6
3231.8527	3560.6
3234.14133	3561.2
3236.42858	3558.2
3238.71446	3565.2
3240.99896	3537.8
3243.28209	3540.3
3245.56384	3541.5
3247.84423	3543.8
3250.12324	3530.1
3252.40088	3556.5
3254.67715	3539.5
3256.95205	3543.9
3259.22558	3531.9
3261.49775	3536.2
3263.76855	3538.3
3266.03799	3540.4
3268.30606	3514.6
3270.57277	3519.1
3272.83812	3512.1
3275.10211	3503.4
3277.36474	3500.4
3279.62601	3510.8
3281.88593	3506.1
3284.14448	3499.9
3286.40168	3498.4
3288.65753	3510.4
3290.91202	3504.8
3293.16516	3496.5
3295.41695	3488.1
3297.66738	3466
3299.91647	3460
3302.16421	3419.6
3304.4106	3410.4
3306.65564	3399.5
3308.89933	3371.2
3311.14169	3339.6
3313.38269	3304.6
3315.62236	3283.7
3317.86068	3256.8
3320.09766	3233.1
3322.3333	3210.2
3324.5676	3194.3
3326.80056	3125.7
3329.03219	3103.3
3331.26248	0.2
3333.49143	-0.7
3335.71905	0.2
