Data from AgNPs_FTO_APTES_UA_50uM_CRN_10uM_R6G_10uM_NaF_0.1M_Addition_RamanShift__17__13-33-14-882.txt Node

Date: Mon Feb 21 13:33:14 GMT 2022
User: TCL
Spectrometer: QEP01345
Trigger mode: 4
Integration Time (sec): 7.000000E0
Scans to average: 10
Electric dark correction enabled: true
Nonlinearity correction enabled: false
Boxcar width: 0
XAxis mode: Raman Shifts
Number of Pixels in Spectrum: 1044
>>>>>Begin Spectral Data<<<<<
46.04893	1.0625
50.45542	-1.2375
54.85868	-1.3375
59.25871	-2.1375
63.6555	66.8625
68.04907	74.1625
72.43941	74.7625
76.82654	79.8625
81.21044	81.4625
85.59113	84.3625
89.96862	90.1625
94.34289	95.2625
98.71396	92.4625
103.08183	100.9625
107.4465	103.4625
111.80798	104.5625
116.16626	105.0625
120.52136	108.3625
124.87327	116.6625
129.222	118.0625
133.56755	125.4625
137.90993	134.6625
142.24913	146.0625
146.58517	164.8625
150.91804	192.2625
155.24774	230.9625
159.57429	281.6625
163.89768	366.9625
168.21792	489.8625
172.53501	673.8625
176.84895	949.0625
181.15975	1321.3625
185.46741	1848.6625
189.77193	2556.6625
194.07331	3412.1625
198.37157	4405.9625
202.6667	5447.3625
206.9587	6483.4625
211.24758	7524.5625
215.53334	8622.6625
219.81599	9819.5625
224.09553	11137.4625
228.37195	12661.0625
232.64527	14301.9625
236.91549	15938.3625
241.18261	17471.2625
245.44663	18750.5625
249.70755	19743.8625
253.96539	20520.0625
258.22014	21271.5625
262.4718	21892.9625
266.72039	22361.6625
270.96589	22579.3625
275.20832	22468.1625
279.44768	22174.3625
283.68397	21783.1625
287.91719	21494.2625
292.14735	21488.3625
296.37445	21800.8625
300.59849	22304.6625
304.81948	22960.5625
309.03742	23367.0625
313.25231	23251.7625
317.46415	22387.8625
321.67296	21170.8625
325.87872	20151.6625
330.08145	19627.7625
334.28114	19618.9625
338.47781	19837.5625
342.67145	20286.1625
346.86207	20895.7625
351.04966	21765.3625
355.23424	22719.4625
359.4158	23542.0625
363.59435	23982.8625
367.76989	24154.2625
371.94243	24161.4625
376.11196	24108.1625
380.27849	24052.2625
384.44203	24015.3625
388.60257	23990.1625
392.76012	23943.6625
396.91468	24105.6625
401.06626	24519.4625
405.21485	24809.6625
409.36047	24414.9625
413.50311	23402.0625
417.64277	22492.1625
421.77947	22063.9625
425.9132	21907.8625
430.04396	21852.3625
434.17176	21976.3625
438.2966	22247.5625
442.41849	22793.7625
446.53742	23569.4625
450.6534	24319.9625
454.76644	24749.4625
458.87653	24892.5625
462.98368	24704.0625
467.08789	24354.4625
471.18916	23930.5625
475.2875	23432.8625
479.38291	23048.0625
483.4754	22737.7625
487.56496	22436.6625
491.6516	22126.3625
495.73531	21917.2625
499.81612	21900.1625
503.89401	22164.5625
507.96899	22378.3625
512.04106	22517.2625
516.11023	22593.6625
520.1765	22627.1625
524.23987	22510.4625
528.30034	22308.4625
532.35792	22077.8625
536.41261	21751.4625
540.46441	21385.4625
544.51333	21208.1625
548.55936	21325.0625
552.60252	21777.7625
556.64279	22402.7625
560.6802	22832.0625
564.71473	23203.2625
568.7464	23947.3625
572.7752	24663.0625
576.80114	24588.7625
580.82422	24304.0625
584.84444	24388.6625
588.86181	24708.2625
592.87633	25294.6625
596.888	25619.1625
600.89682	25658.1625
604.9028	27318.5625
608.90594	32838.1625
612.90624	39476.1625
616.90371	36805.5625
620.89834	27104.6625
624.89015	22681.4625
628.87913	21900.8625
632.86528	22219.5625
636.84862	22566.4625
640.82913	22240.3625
644.80683	21266.6625
648.78172	20507.5625
652.75379	20419.4625
656.72306	21046.9625
660.68952	21904.0625
664.65319	21661.4625
668.61405	20837.6625
672.57211	20657.5625
676.52738	20800.7625
680.47986	20816.7625
684.42955	20570.6625
688.37646	20380.2625
692.32058	20350.0625
696.26192	20577.0625
700.20048	20782.6625
704.13626	20935.7625
708.06928	20844.0625
711.99952	20618.3625
715.927	20562.2625
719.85171	20649.7625
723.77365	20645.4625
727.69284	20497.8625
731.60928	20239.2625
735.52295	20196.4625
739.43388	20267.3625
743.34206	20394.7625
747.24749	20485.5625
751.15017	20559.1625
755.05012	20893.1625
758.94733	21833.4625
762.8418	23916.9625
766.73354	27567.4625
770.62254	31324.0625
774.50882	32806.2625
778.39237	31198.0625
782.27321	27514.7625
786.15132	24074.8625
790.02671	21903.5625
793.89938	20838.3625
797.76935	20392.6625
801.6366	20176.5625
805.50115	19976.0625
809.36299	19851.1625
813.22213	19675.7625
817.07857	19534.5625
820.93231	19446.9625
824.78336	19388.8625
828.63172	19386.8625
832.47738	19352.2625
836.32036	19318.0625
840.16066	19256.4625
843.99827	19253.5625
847.8332	19200.7625
851.66546	19174.2625
855.49504	19202.9625
859.32195	19256.0625
863.1462	19194.8625
866.96777	19126.4625
870.78668	19139.4625
874.60293	19161.0625
878.41652	19179.4625
882.22745	19346.5625
886.03573	19502.3625
889.84136	19426.9625
893.64433	19385.3625
897.44466	19327.7625
901.24235	19247.3625
905.0374	19083.4625
908.8298	18879.4625
912.61957	18804.0625
916.40671	18871.0625
920.19121	19061.7625
923.97308	19260.3625
927.75233	19453.0625
931.52895	19575.3625
935.30295	19310.4625
939.07433	18814.7625
942.84309	18403.1625
946.60924	18186.9625
950.37278	18089.3625
954.13371	18076.2625
957.89203	17977.0625
961.64774	17965.1625
965.40086	17943.7625
969.15137	17846.4625
972.89929	17792.4625
976.64461	17777.0625
980.38733	17742.4625
984.12747	17830.4625
987.86502	17974.1625
991.59999	18167.2625
995.33237	18470.5625
999.06217	18948.7625
1002.78939	19580.7625
1006.51404	20175.4625
1010.23611	20674.3625
1013.95561	20954.8625
1017.67255	20968.0625
1021.38692	20668.8625
1025.09872	20244.1625
1028.80796	19956.5625
1032.51465	19982.9625
1036.21877	20209.1625
1039.92035	20302.1625
1043.61937	20319.6625
1047.31584	20128.0625
1051.00976	19939.4625
1054.70114	19793.6625
1058.38998	19835.3625
1062.07627	19927.0625
1065.76003	20079.3625
1069.44126	20254.9625
1073.11995	20608.6625
1076.79611	21025.1625
1080.46974	21440.3625
1084.14085	21922.7625
1087.80943	22476.7625
1091.47549	22796.2625
1095.13903	22620.5625
1098.80005	22112.4625
1102.45857	21510.4625
1106.11456	21244.2625
1109.76805	21236.2625
1113.41903	21513.9625
1117.06751	22108.1625
1120.71348	22813.7625
1124.35696	23561.6625
1127.99793	24276.7625
1131.63641	24318.8625
1135.2724	23609.2625
1138.90589	22878.3625
1142.5369	22440.0625
1146.16542	22066.1625
1149.79145	21984.7625
1153.415	21982.3625
1157.03607	22196.8625
1160.65467	22808.3625
1164.27079	23822.6625
1167.88443	25419.5625
1171.49561	27613.4625
1175.10432	30768.0625
1178.71056	34925.3625
1182.31434	38693.5625
1185.91565	40246.0625
1189.51451	39496.8625
1193.11091	37536.3625
1196.70485	35087.9625
1200.29634	32918.4625
1203.88538	31079.5625
1207.47197	29253.9625
1211.05612	27763.5625
1214.63782	26822.9625
1218.21708	26426.2625
1221.79391	26394.0625
1225.36829	26519.4625
1228.94024	26363.7625
1232.50976	25808.7625
1236.07685	25355.8625
1239.6415	25039.2625
1243.20374	24942.4625
1246.76355	25044.1625
1250.32093	25385.5625
1253.8759	25947.9625
1257.42845	26832.5625
1260.97859	27929.1625
1264.52631	29127.7625
1268.07163	30376.7625
1271.61453	31468.9625
1275.15503	32397.4625
1278.69312	33223.7625
1282.22882	33873.5625
1285.76211	34772.1625
1289.29301	36022.0625
1292.82151	37555.5625
1296.34761	39501.2625
1299.87133	42047.1625
1303.39266	45529.5625
1306.9116	50040.6625
1310.42815	54660.9625
1313.94233	56947.1625
1317.45412	55839.1625
1320.96354	52909.4625
1324.47058	49896.2625
1327.97525	47265.5625
1331.47754	45488.2625
1334.97747	44647.0625
1338.47502	44494.0625
1341.97022	44892.3625
1345.46305	45693.9625
1348.95352	46993.6625
1352.44163	48873.9625
1355.92738	52078.4625
1359.41078	57173.6625
1362.89183	62092.5625
1366.37053	60401.3625
1369.84688	51945.3625
1373.32088	43537.8625
1376.79254	38469.1625
1380.26186	36008.6625
1383.72883	34868.9625
1387.19347	34101.9625
1390.65578	33276.9625
1394.11575	32912.4625
1397.57339	32957.0625
1401.0287	33203.9625
1404.48168	33443.6625
1407.93234	33488.1625
1411.38068	33167.1625
1414.82669	32511.2625
1418.27039	31671.1625
1421.71177	30730.7625
1425.15083	29778.3625
1428.58758	29432.2625
1432.02203	29691.1625
1435.45416	30324.6625
1438.88399	30972.8625
1442.31151	31369.3625
1445.73673	31703.1625
1449.15965	32095.6625
1452.58027	32262.4625
1455.9986	32406.3625
1459.41463	32714.7625
1462.82837	33348.6625
1466.23982	34166.9625
1469.64898	34685.6625
1473.05586	34992.6625
1476.46045	34919.9625
1479.86276	34823.8625
1483.26279	34739.2625
1486.66054	35014.6625
1490.05602	35617.5625
1493.44922	36695.5625
1496.84016	38376.3625
1500.22882	41259.3625
1503.61521	45428.3625
1506.99934	50441.3625
1510.38121	54316.2625
1513.76081	54581.0625
1517.13816	50840.9625
1520.51324	45214.7625
1523.88607	40349.3625
1527.25665	37322.4625
1530.62498	35804.5625
1533.99105	34945.7625
1537.35488	34238.2625
1540.71647	33525.1625
1544.07581	32854.4625
1547.4329	32222.3625
1550.78776	31859.6625
1554.14038	31701.3625
1557.49077	31826.3625
1560.83892	32250.7625
1564.18484	32894.5625
1567.52853	33817.9625
1570.86999	34602.3625
1574.20922	35265.3625
1577.54624	35198.9625
1580.88103	34015.8625
1584.2136	32602.1625
1587.54395	32315.6625
1590.87208	33356.3625
1594.19801	35591.7625
1597.52172	38106.2625
1600.84321	38840.5625
1604.16251	37202.1625
1607.47959	34382.4625
1610.79447	31385.6625
1614.10715	28523.7625
1617.41763	26133.2625
1620.7259	24537.4625
1624.03199	23699.4625
1627.33587	23670.0625
1630.63757	24494.3625
1633.93707	26345.1625
1637.23439	29438.6625
1640.52951	33997.0625
1643.82246	39538.1625
1647.11321	44628.9625
1650.40179	46735.2625
1653.68819	43721.3625
1656.97241	36883.6625
1660.25446	29926.5625
1663.53433	25050.3625
1666.81203	22114.5625
1670.08756	20338.6625
1673.36092	19289.1625
1676.63211	18633.5625
1679.90115	18140.0625
1683.16801	17785.5625
1686.43272	17504.2625
1689.69527	17261.9625
1692.95567	17082.5625
1696.2139	16914.4625
1699.46999	16734.2625
1702.72392	16671.9625
1705.97571	16686.2625
1709.22535	16734.0625
1712.47284	16756.6625
1715.71819	16729.8625
1718.96139	16663.8625
1722.20246	16549.8625
1725.44139	16449.5625
1728.67818	16325.3625
1731.91284	16197.3625
1735.14537	16057.8625
1738.37576	15987.7625
1741.60403	15908.5625
1744.83017	15839.7625
1748.05418	15796.3625
1751.27607	15692.1625
1754.49584	15624.0625
1757.71349	15545.8625
1760.92903	15465.3625
1764.14244	15435.6625
1767.35375	15404.1625
1770.56294	15342.6625
1773.77002	15298.0625
1776.97499	15279.0625
1780.17785	15272.3625
1783.37861	15295.2625
1786.57727	15269.8625
1789.77382	15238.4625
1792.96828	15212.6625
1796.16064	15174.0625
1799.3509	15127.7625
1802.53907	15123.2625
1805.72514	15077.7625
1808.90913	15016.7625
1812.09102	14994.4625
1815.27083	14926.8625
1818.44856	14929.3625
1821.6242	14881.9625
1824.79776	14920.6625
1827.96924	14909.7625
1831.13864	14868.3625
1834.30597	14885.3625
1837.47122	14891.6625
1840.6344	14882.7625
1843.7955	14895.6625
1846.95454	14874.5625
1850.11151	14884.5625
1853.26642	14862.8625
1856.41926	14856.2625
1859.57004	14814.8625
1862.71876	14812.0625
1865.86542	14807.4625
1869.01003	14784.9625
1872.15258	14741.7625
1875.29308	14744.3625
1878.43152	14730.2625
1881.56792	14732.9625
1884.70227	14734.3625
1887.83457	14745.7625
1890.96482	14706.6625
1894.09304	14661.6625
1897.21921	14651.6625
1900.34335	14670.0625
1903.46544	14647.8625
1906.58551	14617.9625
1909.70353	14584.5625
1912.81953	14528.7625
1915.93349	14485.7625
1919.04543	14439.2625
1922.15534	14409.5625
1925.26322	14380.5625
1928.36908	14312.2625
1931.47292	14269.2625
1934.57473	14198.5625
1937.67453	14167.4625
1940.77232	14097.4625
1943.86808	14033.3625
1946.96184	14011.9625
1950.05358	13977.4625
1953.14331	13949.1625
1956.23103	13885.8625
1959.31675	13861.4625
1962.40046	13812.9625
1965.48217	13791.8625
1968.56188	13779.1625
1971.63959	13738.4625
1974.7153	13705.6625
1977.78901	13642.5625
1980.86073	13592.9625
1983.93046	13552.9625
1986.99819	13491.8625
1990.06394	13461.0625
1993.1277	13442.7625
1996.18947	13355.2625
1999.24925	13310.2625
2002.30706	13267.8625
2005.36288	13211.7625
2008.41672	13189.0625
2011.46859	13140.4625
2014.51848	13094.4625
2017.56639	13070.8625
2020.61233	13053.0625
2023.6563	13025.4625
2026.6983	12985.9625
2029.73833	12954.8625
2032.7764	12931.5625
2035.8125	12936.2625
2038.84664	12880.3625
2041.87881	12865.7625
2044.90903	12837.9625
2047.93729	12808.2625
2050.96359	12792.2625
2053.98794	12770.2625
2057.01034	12807.1625
2060.03078	12759.5625
2063.04927	12725.6625
2066.06582	12739.0625
2069.08042	12723.2625
2072.09307	12692.9625
2075.10378	12709.6625
2078.11255	12660.7625
2081.11938	12672.6625
2084.12426	12671.2625
2087.12722	12653.0625
2090.12824	12662.2625
2093.12732	12680.7625
2096.12447	12694.7625
2099.11969	12671.1625
2102.11299	12653.9625
2105.10435	12680.1625
2108.09379	12689.1625
2111.08131	12695.8625
2114.0669	12683.0625
2117.05057	12669.3625
2120.03233	12707.4625
2123.01216	12701.9625
2125.99008	12698.3625
2128.96609	12727.8625
2131.94018	12733.1625
2134.91236	12741.6625
2137.88263	12759.7625
2140.851	12744.1625
2143.81746	12744.4625
2146.78201	12721.6625
2149.74466	12710.9625
2152.7054	12717.1625
2155.66425	12702.8625
2158.6212	12669.9625
2161.57625	12674.0625
2164.52941	12661.8625
2167.48067	12665.3625
2170.43004	12649.4625
2173.37752	12664.2625
2176.32311	12644.3625
2179.26681	12652.7625
2182.20863	12668.3625
2185.14856	12674.6625
2188.08661	12668.9625
2191.02278	12664.6625
2193.95707	12649.0625
2196.88948	12616.2625
2199.82001	12643.8625
2202.74867	12614.9625
2205.67545	12615.0625
2208.60037	12588.7625
2211.52341	12553.7625
2214.44458	12555.0625
2217.36388	12555.9625
2220.28132	12503.5625
2223.1969	12475.6625
2226.11061	12454.9625
2229.02246	12428.8625
2231.93245	12430.5625
2234.84058	12381.6625
2237.74686	12349.7625
2240.65128	12362.2625
2243.55385	12364.5625
2246.45456	12334.2625
2249.35343	12302.1625
2252.25044	12302.1625
2255.14561	12301.1625
2258.03893	12282.5625
2260.93041	12234.1625
2263.82004	12241.2625
2266.70783	12225.0625
2269.59378	12194.8625
2272.4779	12154.2625
2275.36017	12137.2625
2278.24061	12137.0625
2281.11922	12070.7625
2283.996	12057.6625
2286.87094	12029.9625
2289.74405	12005.9625
2292.61534	11985.5625
2295.4848	11967.1625
2298.35243	11991.6625
2301.21824	11997.0625
2304.08223	11992.6625
2306.94439	11977.8625
2309.80474	11969.7625
2312.66327	11986.3625
2315.51999	11942.3625
2318.37489	11943.5625
2321.22797	11931.9625
2324.07925	11919.7625
2326.92871	11881.2625
2329.77637	11876.2625
2332.62222	11854.0625
2335.46626	11872.3625
2338.3085	11896.5625
2341.14893	11894.4625
2343.98756	11887.2625
2346.8244	11886.0625
2349.65943	11891.6625
2352.49267	11911.3625
2355.32411	11914.8625
2358.15376	11912.8625
2360.98161	11923.9625
2363.80768	11925.4625
2366.63195	11925.5625
2369.45444	11936.7625
2372.27514	11942.4625
2375.09405	11897.4625
2377.91118	11896.4625
2380.72652	11839.2625
2383.54009	11784.0625
2386.35187	11753.1625
2389.16188	11721.7625
2391.97011	11697.4625
2394.77657	11639.1625
2397.58125	11626.1625
2400.38416	11623.4625
2403.18529	11600.4625
2405.98466	11569.6625
2408.78226	11553.5625
2411.57809	11523.2625
2414.37216	11540.5625
2417.16446	11519.6625
2419.955	11519.4625
2422.74378	11515.6625
2425.5308	11508.0625
2428.31606	11487.3625
2431.09956	11505.8625
2433.88131	11482.4625
2436.6613	11496.3625
2439.43954	11495.8625
2442.21603	11500.2625
2444.99077	11483.6625
2447.76377	11499.3625
2450.53501	11496.1625
2453.30451	11481.6625
2456.07226	11509.6625
2458.83827	11507.5625
2461.60254	11492.3625
2464.36507	11496.7625
2467.12586	11490.0625
2469.88492	11496.7625
2472.64224	11498.5625
2475.39782	11510.1625
2478.15167	11512.4625
2480.90379	11514.7625
2483.65417	11537.8625
2486.40283	11566.7625
2489.14976	11601.4625
2491.89497	11612.9625
2494.63845	11586.9625
2497.3802	11559.0625
2500.12024	11548.5625
2502.85855	11549.9625
2505.59514	11526.9625
2508.33002	11508.6625
2511.06318	11463.9625
2513.79462	11449.5625
2516.52435	11400.2625
2519.25237	11393.3625
2521.97867	11380.1625
2524.70327	11363.4625
2527.42616	11371.7625
2530.14734	11353.8625
2532.86681	11326.1625
2535.58458	11370.0625
2538.30065	11343.1625
2541.01501	11343.6625
2543.72768	11344.2625
2546.43864	11339.0625
2549.14791	11305.8625
2551.85548	11283.1625
2554.56136	11289.7625
2557.26554	11284.6625
2559.96803	11254.6625
2562.66883	11277.9625
2565.36794	11288.4625
2568.06536	11243.6625
2570.7611	11263.3625
2573.45514	11214.3625
2576.14751	11219.7625
2578.83819	11205.7625
2581.52719	11217.8625
2584.21451	11201.7625
2586.90015	11182.6625
2589.58411	11151.2625
2592.2664	11168.4625
2594.94701	11160.4625
2597.62594	11180.9625
2600.30321	11166.8625
2602.9788	11140.4625
2605.65273	11162.2625
2608.32498	11133.2625
2610.99557	11131.4625
2613.66449	11162.1625
2616.33175	11155.4625
2618.99734	11163.3625
2621.66128	11151.7625
2624.32355	11126.3625
2626.98416	11145.5625
2629.64311	11142.8625
2632.30041	11124.0625
2634.95605	11103.3625
2637.61004	11083.5625
2640.26238	11096.0625
2642.91306	11054.0625
2645.56209	11032.7625
2648.20948	11053.7625
2650.85521	11059.7625
2653.4993	11072.3625
2656.14175	11097.3625
2658.78255	11092.4625
2661.42171	11119.5625
2664.05923	11147.1625
2666.6951	11132.0625
2669.32934	11155.0625
2671.96194	11144.3625
2674.59291	11124.7625
2677.22224	11139.8625
2679.84993	11125.3625
2682.476	11116.1625
2685.10043	11121.1625
2687.72324	11096.3625
2690.34441	11107.7625
2692.96396	11071.3625
2695.58188	11090.2625
2698.19818	11074.1625
2700.81285	11078.5625
2703.4259	11044.6625
2706.03733	10995.2625
2708.64714	11009.5625
2711.25533	11067.1625
2713.86191	11067.0625
2716.46687	11087.0625
2719.07021	11101.3625
2721.67194	11109.8625
2724.27206	11099.7625
2726.87057	11148.9625
2729.46747	11111.7625
2732.06276	11130.7625
2734.65644	11151.9625
2737.24852	11141.2625
2739.83899	11123.4625
2742.42786	11123.0625
2745.01513	11094.9625
2747.60079	11113.2625
2750.18486	11062.7625
2752.76733	11058.5625
2755.3482	11070.0625
2757.92747	11054.0625
2760.50515	11051.5625
2763.08123	11047.1625
2765.65573	11032.3625
2768.22863	11020.0625
2770.79994	10987.6625
2773.36967	11000.1625
2775.9378	11012.5625
2778.50435	11017.6625
2781.06932	11022.6625
2783.6327	11009.4625
2786.1945	11005.9625
2788.75471	11010.1625
2791.31335	10989.0625
2793.87041	11003.8625
2796.42589	10959.4625
2798.97979	10968.8625
2801.53212	10946.0625
2804.08288	10941.4625
2806.63206	10897.8625
2809.17967	10914.5625
2811.72571	10857.6625
2814.27018	10852.7625
2816.81308	10836.8625
2819.35442	10843.8625
2821.89419	10832.9625
2824.43239	10847.5625
2826.96904	10816.5625
2829.50412	10821.5625
2832.03763	10829.7625
2834.56959	10800.8625
2837.1	10784.1625
2839.62884	10780.2625
2842.15613	10754.8625
2844.68186	10757.7625
2847.20604	10756.5625
2849.72867	10771.6625
2852.24974	10766.9625
2854.76927	10744.5625
2857.28724	10724.5625
2859.80367	10760.5625
2862.31855	10737.6625
2864.83189	10745.7625
2867.34368	10755.7625
2869.85393	10764.3625
2872.36264	10763.6625
2874.8698	10782.0625
2877.37543	10768.1625
2879.87952	10772.4625
2882.38207	10757.6625
2884.88308	10739.3625
2887.38256	10766.7625
2889.88051	10766.3625
2892.37692	10766.5625
2894.8718	10774.2625
2897.36515	10784.9625
2899.85698	10771.2625
2902.34727	10809.5625
2904.83604	10819.0625
2907.32328	10834.8625
2909.809	10830.7625
2912.29319	10856.8625
2914.77587	10869.6625
2917.25702	10865.0625
2919.73665	10846.5625
2922.21476	10837.0625
2924.69136	10838.5625
2927.16644	10838.4625
2929.64	10804.6625
2932.11205	10789.8625
2934.58258	10720.4625
2937.05161	10733.3625
2939.51912	10722.6625
2941.98513	10722.2625
2944.44962	10705.2625
2946.91261	10641.5625
2949.37409	10646.7625
2951.83407	10638.7625
2954.29254	10604.0625
2956.74951	10598.6625
2959.20498	10599.6625
2961.65895	10591.1625
2964.11142	10551.2625
2966.56239	10538.1625
2969.01186	10507.5625
2971.45984	10507.9625
2973.90632	10486.4625
2976.35131	10457.5625
2978.7948	10419.0625
2981.23681	10404.7625
2983.67732	10386.2625
2986.11635	10363.5625
2988.55388	10322.5625
2990.98993	10308.4625
2993.4245	10310.1625
2995.85758	10306.4625
2998.28917	10272.5625
3000.71928	10248.1625
3003.14791	10227.4625
3005.57506	10192.3625
3008.00073	10173.6625
3010.42493	10169.7625
3012.84764	10140.5625
3015.26888	10103.7625
3017.68865	10089.3625
3020.10694	10093.3625
3022.52376	10061.8625
3024.9391	10045.0625
3027.35298	10046.7625
3029.76539	10010.0625
3032.17632	10022.1625
3034.5858	9994.1625
3036.9938	9989.9625
3039.40034	9966.9625
3041.80542	9951.0625
3044.20903	9916.3625
3046.61118	9932.2625
3049.01187	9915.9625
3051.4111	9900.0625
3053.80888	9881.5625
3056.20519	9863.5625
3058.60005	9883.0625
3060.99345	9842.9625
3063.3854	9809.1625
3065.7759	9789.3625
3068.16494	9744.9625
3070.55254	9683.4625
3072.93868	9663.6625
3075.32338	9627.3625
3077.70662	9619.0625
3080.08842	9595.4625
3082.46878	9579.5625
3084.84769	9560.2625
3087.22515	9577.0625
3089.60118	9539.0625
3091.97576	9558.6625
3094.3489	9551.6625
3096.72061	9547.1625
3099.09087	9526.9625
3101.4597	9526.1625
3103.82709	9519.1625
3106.19305	9517.7625
3108.55757	9508.8625
3110.92066	9479.0625
3113.28232	9466.0625
3115.64255	9445.8625
3118.00134	9410.4625
3120.35871	9389.2625
3122.71466	9373.3625
3125.06917	9353.4625
3127.42226	9323.9625
3129.77393	9356.5625
3132.12417	9319.5625
3134.47299	9332.7625
3136.82039	9313.1625
3139.16636	9305.4625
3141.51092	9319.1625
3143.85406	9317.6625
3146.19579	9299.8625
3148.53609	9330.5625
3150.87499	9310.4625
3153.21246	9307.8625
3155.54853	9338.0625
3157.88318	9313.1625
3160.21642	9337.8625
3162.54826	9334.7625
3164.87868	9347.1625
3167.2077	9335.2625
3169.5353	9342.4625
3171.86151	9325.7625
3174.18631	9328.5625
3176.5097	9291.0625
3178.83169	9293.7625
3181.15228	9295.3625
3183.47147	9255.7625
3185.78926	9258.3625
3188.10565	9229.7625
3190.42065	9266.8625
3192.73424	9256.4625
3195.04645	9255.3625
3197.35725	9247.0625
3199.66667	9250.5625
3201.97469	9252.2625
3204.28132	9248.5625
3206.58656	9260.2625
3208.8904	9285.5625
3211.19287	9280.1625
3213.49394	9269.9625
3215.79363	9255.4625
3218.09193	9275.4625
3220.38884	9278.7625
3222.68438	9240.0625
3224.97853	9284.6625
3227.2713	9246.6625
3229.56269	9263.7625
3231.8527	9258.5625
3234.14133	9223.7625
3236.42858	9219.5625
3238.71446	9217.3625
3240.99896	9180.2625
3243.28209	9191.5625
3245.56384	9171.1625
3247.84423	9179.3625
3250.12324	9185.6625
3252.40088	9139.5625
3254.67715	9140.1625
3256.95205	9120.5625
3259.22558	9139.4625
3261.49775	9136.1625
3263.76855	9125.9625
3266.03799	9090.2625
3268.30606	9101.6625
3270.57277	9081.3625
3272.83812	9052.7625
3275.10211	9056.8625
3277.36474	9036.3625
3279.62601	9056.5625
3281.88593	9017.5625
3284.14448	9019.7625
3286.40168	9060.9625
3288.65753	9045.6625
3290.91202	9071.7625
3293.16516	9039.7625
3295.41695	9019.9625
3297.66738	9006.3625
3299.91647	8947.4625
3302.16421	8865.6625
3304.4106	8853.8625
3306.65564	8791.4625
3308.89933	8733.2625
3311.14169	8645.8625
3313.38269	8574.0625
3315.62236	8532.0625
3317.86068	8460.6625
3320.09766	8408.2625
3322.3333	8348.2625
3324.5676	8310.2625
3326.80056	8159.7625
3329.03219	8126.2625
3331.26248	2.8625
3333.49143	-0.5375
3335.71905	0.8625
