Data from AgNPs_FTO_APTES_UA_50uM_CRN_100uM_R6G_10uM_NaF_0.1M_Addition_RamanShift__10__15-27-35-026.txt Node

Date: Mon Feb 21 15:27:35 GMT 2022
User: TCL
Spectrometer: QEP01345
Trigger mode: 4
Integration Time (sec): 7.000000E0
Scans to average: 10
Electric dark correction enabled: true
Nonlinearity correction enabled: false
Boxcar width: 0
XAxis mode: Raman Shifts
Number of Pixels in Spectrum: 1044
>>>>>Begin Spectral Data<<<<<
46.04893	0.7625
50.45542	-0.7375
54.85868	-0.4375
59.25871	-1.4375
63.6555	49.8625
68.04907	54.9625
72.43941	55.1625
76.82654	58.7625
81.21044	61.7625
85.59113	67.2625
89.96862	66.3625
94.34289	71.8625
98.71396	69.1625
103.08183	77.8625
107.4465	77.2625
111.80798	75.9625
116.16626	75.7625
120.52136	77.1625
124.87327	87.2625
129.222	82.5625
133.56755	85.1625
137.90993	92.8625
142.24913	93.8625
146.58517	102.7625
150.91804	116.0625
155.24774	132.2625
159.57429	159.9625
163.89768	200.1625
168.21792	261.1625
172.53501	352.3625
176.84895	483.6625
181.15975	668.3625
185.46741	934.7625
189.77193	1297.9625
194.07331	1730.3625
198.37157	2234.7625
202.6667	2756.8625
206.9587	3291.1625
211.24758	3806.1625
215.53334	4303.7625
219.81599	4842.9625
224.09553	5424.0625
228.37195	6077.9625
232.64527	6773.5625
236.91549	7535.1625
241.18261	8348.8625
245.44663	9065.3625
249.70755	9699.5625
253.96539	10259.9625
258.22014	10727.2625
262.4718	11117.3625
266.72039	11367.4625
270.96589	11480.6625
275.20832	11481.4625
279.44768	11379.8625
283.68397	11257.1625
287.91719	11132.5625
292.14735	11042.2625
296.37445	10972.8625
300.59849	10992.7625
304.81948	10996.9625
309.03742	11003.1625
313.25231	10964.8625
317.46415	10806.5625
321.67296	10618.5625
325.87872	10464.1625
330.08145	10367.4625
334.28114	10420.1625
338.47781	10490.5625
342.67145	10599.8625
346.86207	10768.9625
351.04966	10934.3625
355.23424	11143.1625
359.4158	11343.2625
363.59435	11455.3625
367.76989	11558.3625
371.94243	11658.5625
376.11196	11699.8625
380.27849	11740.8625
384.44203	11820.5625
388.60257	11879.1625
392.76012	11989.3625
396.91468	12111.0625
401.06626	12255.7625
405.21485	12361.0625
409.36047	12317.4625
413.50311	12174.6625
417.64277	12010.8625
421.77947	11957.8625
425.9132	11984.9625
430.04396	12016.2625
434.17176	12056.4625
438.2966	12172.8625
442.41849	12309.0625
446.53742	12504.3625
450.6534	12723.0625
454.76644	12863.9625
458.87653	12971.7625
462.98368	12975.1625
467.08789	12914.0625
471.18916	12837.3625
475.2875	12716.6625
479.38291	12580.5625
483.4754	12494.9625
487.56496	12391.7625
491.6516	12330.6625
495.73531	12308.8625
499.81612	12288.5625
503.89401	12382.8625
507.96899	12453.8625
512.04106	12489.1625
516.11023	12457.1625
520.1765	12443.0625
524.23987	12405.2625
528.30034	12338.7625
532.35792	12296.6625
536.41261	12231.9625
540.46441	12146.7625
544.51333	12137.2625
548.55936	12204.3625
552.60252	12348.7625
556.64279	12519.8625
560.6802	12599.7625
564.71473	12596.9625
568.7464	12679.8625
572.7752	12867.5625
576.80114	13024.3625
580.82422	13235.8625
584.84444	13435.3625
588.86181	13678.2625
592.87633	13899.7625
596.888	14018.3625
600.89682	13981.1625
604.9028	14153.3625
608.90594	15066.1625
612.90624	16128.8625
616.90371	15416.7625
620.89834	13515.8625
624.89015	12658.6625
628.87913	12526.7625
632.86528	12612.8625
636.84862	12721.8625
640.82913	12645.8625
644.80683	12462.2625
648.78172	12274.1625
652.75379	12253.8625
656.72306	12375.0625
660.68952	12544.9625
664.65319	12542.5625
668.61405	12395.5625
672.57211	12369.6625
676.52738	12412.3625
680.47986	12466.4625
684.42955	12413.8625
688.37646	12352.9625
692.32058	12361.4625
696.26192	12402.8625
700.20048	12473.9625
704.13626	12546.9625
708.06928	12518.7625
711.99952	12496.9625
715.927	12438.7625
719.85171	12445.0625
723.77365	12455.2625
727.69284	12379.3625
731.60928	12296.1625
735.52295	12274.8625
739.43388	12279.5625
743.34206	12304.0625
747.24749	12356.2625
751.15017	12420.4625
755.05012	12527.9625
758.94733	12763.1625
762.8418	13206.2625
766.73354	13921.2625
770.62254	14694.8625
774.50882	14982.1625
778.39237	14559.9625
782.27321	13812.9625
786.15132	13093.6625
790.02671	12653.0625
793.89938	12417.7625
797.76935	12295.1625
801.6366	12229.7625
805.50115	12191.7625
809.36299	12154.4625
813.22213	12067.2625
817.07857	12029.2625
820.93231	12034.9625
824.78336	12039.0625
828.63172	12009.5625
832.47738	11976.9625
836.32036	11982.3625
840.16066	11987.1625
843.99827	11943.0625
847.8332	11984.1625
851.66546	11977.2625
855.49504	12007.4625
859.32195	12011.7625
863.1462	12009.5625
866.96777	12016.9625
870.78668	12021.3625
874.60293	12055.6625
878.41652	12065.4625
882.22745	12097.7625
886.03573	12150.9625
889.84136	12135.3625
893.64433	12094.8625
897.44466	12086.5625
901.24235	12051.1625
905.0374	12029.7625
908.8298	12039.4625
912.61957	12001.0625
916.40671	12013.2625
920.19121	12097.2625
923.97308	12193.4625
927.75233	12197.7625
931.52895	12151.6625
935.30295	12053.9625
939.07433	11943.4625
942.84309	11810.1625
946.60924	11718.9625
950.37278	11687.8625
954.13371	11673.9625
957.89203	11632.8625
961.64774	11645.3625
965.40086	11640.9625
969.15137	11602.0625
972.89929	11594.7625
976.64461	11573.1625
980.38733	11544.1625
984.12747	11569.9625
987.86502	11590.6625
991.59999	11655.5625
995.33237	11694.5625
999.06217	11818.7625
1002.78939	11909.9625
1006.51404	12079.1625
1010.23611	12189.2625
1013.95561	12326.9625
1017.67255	12334.3625
1021.38692	12303.4625
1025.09872	12179.0625
1028.80796	12094.0625
1032.51465	12051.2625
1036.21877	12039.9625
1039.92035	12054.6625
1043.61937	12137.3625
1047.31584	12135.7625
1051.00976	12154.2625
1054.70114	12181.6625
1058.38998	12217.5625
1062.07627	12304.4625
1065.76003	12403.2625
1069.44126	12492.9625
1073.11995	12612.5625
1076.79611	12774.4625
1080.46974	12851.3625
1084.14085	12901.3625
1087.80943	12981.1625
1091.47549	13018.0625
1095.13903	13035.7625
1098.80005	12932.6625
1102.45857	12788.0625
1106.11456	12655.6625
1109.76805	12555.5625
1113.41903	12552.7625
1117.06751	12630.5625
1120.71348	12732.4625
1124.35696	12874.8625
1127.99793	12967.8625
1131.63641	13062.7625
1135.2724	13000.4625
1138.90589	12896.9625
1142.5369	12859.9625
1146.16542	12830.0625
1149.79145	12839.0625
1153.415	12833.3625
1157.03607	12871.3625
1160.65467	13048.7625
1164.27079	13326.8625
1167.88443	13724.7625
1171.49561	14219.0625
1175.10432	14849.5625
1178.71056	15679.4625
1182.31434	16451.1625
1185.91565	16957.9625
1189.51451	17075.0625
1193.11091	16901.6625
1196.70485	16492.1625
1200.29634	15974.1625
1203.88538	15522.1625
1207.47197	15077.2625
1211.05612	14695.9625
1214.63782	14374.1625
1218.21708	14136.5625
1221.79391	13996.1625
1225.36829	13907.6625
1228.94024	13884.8625
1232.50976	13833.7625
1236.07685	13816.2625
1239.6415	13767.2625
1243.20374	13773.0625
1246.76355	13823.9625
1250.32093	13881.1625
1253.8759	14020.5625
1257.42845	14222.4625
1260.97859	14503.8625
1264.52631	14746.2625
1268.07163	15020.8625
1271.61453	15251.9625
1275.15503	15473.1625
1278.69312	15670.5625
1282.22882	15860.0625
1285.76211	16115.0625
1289.29301	16403.2625
1292.82151	16760.3625
1296.34761	17217.1625
1299.87133	17755.7625
1303.39266	18367.6625
1306.9116	19072.2625
1310.42815	19689.7625
1313.94233	20082.9625
1317.45412	19997.5625
1320.96354	19647.2625
1324.47058	19283.8625
1327.97525	18963.5625
1331.47754	18731.8625
1334.97747	18717.3625
1338.47502	18809.9625
1341.97022	19072.1625
1345.46305	19345.9625
1348.95352	19656.4625
1352.44163	20013.3625
1355.92738	20413.4625
1359.41078	21012.1625
1362.89183	21582.9625
1366.37053	21291.5625
1369.84688	19912.8625
1373.32088	18181.5625
1376.79254	16893.1625
1380.26186	16192.8625
1383.72883	15871.2625
1387.19347	15620.9625
1390.65578	15364.3625
1394.11575	15157.2625
1397.57339	15088.4625
1401.0287	15092.6625
1404.48168	15151.5625
1407.93234	15149.7625
1411.38068	15110.2625
1414.82669	14937.2625
1418.27039	14737.0625
1421.71177	14500.4625
1425.15083	14254.2625
1428.58758	14091.7625
1432.02203	14088.3625
1435.45416	14162.4625
1438.88399	14296.4625
1442.31151	14404.1625
1445.73673	14467.9625
1449.15965	14562.9625
1452.58027	14624.9625
1455.9986	14662.5625
1459.41463	14776.0625
1462.82837	14919.0625
1466.23982	15186.8625
1469.64898	15420.7625
1473.05586	15620.6625
1476.46045	15798.0625
1479.86276	15870.5625
1483.26279	15952.1625
1486.66054	15997.2625
1490.05602	16195.8625
1493.44922	16460.8625
1496.84016	16966.9625
1500.22882	17608.0625
1503.61521	18352.0625
1506.99934	19116.1625
1510.38121	19602.0625
1513.76081	19552.5625
1517.13816	18915.6625
1520.51324	18096.1625
1523.88607	17329.1625
1527.25665	16849.3625
1530.62498	16603.0625
1533.99105	16380.5625
1537.35488	16159.8625
1540.71647	15943.3625
1544.07581	15714.7625
1547.4329	15478.5625
1550.78776	15282.1625
1554.14038	15148.2625
1557.49077	15124.8625
1560.83892	15190.8625
1564.18484	15264.6625
1567.52853	15403.3625
1570.86999	15520.7625
1574.20922	15641.7625
1577.54624	15696.9625
1580.88103	15472.9625
1584.2136	15158.4625
1587.54395	15084.1625
1590.87208	15307.8625
1594.19801	15766.3625
1597.52172	16313.9625
1600.84321	16622.2625
1604.16251	16378.7625
1607.47959	15845.0625
1610.79447	15167.4625
1614.10715	14445.7625
1617.41763	13804.5625
1620.7259	13277.0625
1624.03199	12945.8625
1627.33587	12850.6625
1630.63757	12893.6625
1633.93707	13244.9625
1637.23439	13866.1625
1640.52951	14859.3625
1643.82246	16096.5625
1647.11321	17260.5625
1650.40179	17756.0625
1653.68819	17219.4625
1656.97241	15842.2625
1660.25446	14319.8625
1663.53433	13103.2625
1666.81203	12311.1625
1670.08756	11797.5625
1673.36092	11522.9625
1676.63211	11323.6625
1679.90115	11151.7625
1683.16801	11039.6625
1686.43272	10937.3625
1689.69527	10855.8625
1692.95567	10721.1625
1696.2139	10586.8625
1699.46999	10466.3625
1702.72392	10415.4625
1705.97571	10474.9625
1709.22535	10575.5625
1712.47284	10584.8625
1715.71819	10629.3625
1718.96139	10629.8625
1722.20246	10622.3625
1725.44139	10563.3625
1728.67818	10516.5625
1731.91284	10482.8625
1735.14537	10424.2625
1738.37576	10395.3625
1741.60403	10360.1625
1744.83017	10317.5625
1748.05418	10271.8625
1751.27607	10264.6625
1754.49584	10204.9625
1757.71349	10157.6625
1760.92903	10099.7625
1764.14244	10090.7625
1767.35375	10084.8625
1770.56294	10069.3625
1773.77002	10044.6625
1776.97499	10063.0625
1780.17785	10120.2625
1783.37861	10118.9625
1786.57727	10114.5625
1789.77382	10109.0625
1792.96828	10079.8625
1796.16064	10072.6625
1799.3509	10044.3625
1802.53907	10034.2625
1805.72514	9999.5625
1808.90913	9981.9625
1812.09102	9973.5625
1815.27083	9966.7625
1818.44856	9936.1625
1821.6242	9916.4625
1824.79776	9912.5625
1827.96924	9899.8625
1831.13864	9899.1625
1834.30597	9899.1625
1837.47122	9891.2625
1840.6344	9881.8625
1843.7955	9871.5625
1846.95454	9880.7625
1850.11151	9837.7625
1853.26642	9834.3625
1856.41926	9844.2625
1859.57004	9807.2625
1862.71876	9817.4625
1865.86542	9798.5625
1869.01003	9794.8625
1872.15258	9795.3625
1875.29308	9781.8625
1878.43152	9777.5625
1881.56792	9741.7625
1884.70227	9740.0625
1887.83457	9706.3625
1890.96482	9695.0625
1894.09304	9672.2625
1897.21921	9673.9625
1900.34335	9650.4625
1903.46544	9670.9625
1906.58551	9628.0625
1909.70353	9620.1625
1912.81953	9576.9625
1915.93349	9600.8625
1919.04543	9578.3625
1922.15534	9562.5625
1925.26322	9541.5625
1928.36908	9519.2625
1931.47292	9516.0625
1934.57473	9470.2625
1937.67453	9470.1625
1940.77232	9438.9625
1943.86808	9431.4625
1946.96184	9390.1625
1950.05358	9377.2625
1953.14331	9333.7625
1956.23103	9308.6625
1959.31675	9277.9625
1962.40046	9264.1625
1965.48217	9257.5625
1968.56188	9223.6625
1971.63959	9199.0625
1974.7153	9172.6625
1977.78901	9137.3625
1980.86073	9108.8625
1983.93046	9056.2625
1986.99819	9034.9625
1990.06394	9022.5625
1993.1277	9005.2625
1996.18947	8955.0625
1999.24925	8927.6625
2002.30706	8916.6625
2005.36288	8898.2625
2008.41672	8871.2625
2011.46859	8842.1625
2014.51848	8811.8625
2017.56639	8768.7625
2020.61233	8751.3625
2023.6563	8731.4625
2026.6983	8691.6625
2029.73833	8698.5625
2032.7764	8671.7625
2035.8125	8647.0625
2038.84664	8643.6625
2041.87881	8621.8625
2044.90903	8620.5625
2047.93729	8588.5625
2050.96359	8575.9625
2053.98794	8576.1625
2057.01034	8583.4625
2060.03078	8554.1625
2063.04927	8538.2625
2066.06582	8526.9625
2069.08042	8539.4625
2072.09307	8543.4625
2075.10378	8525.5625
2078.11255	8517.6625
2081.11938	8523.1625
2084.12426	8491.0625
2087.12722	8507.8625
2090.12824	8514.9625
2093.12732	8501.9625
2096.12447	8503.6625
2099.11969	8506.4625
2102.11299	8509.3625
2105.10435	8512.3625
2108.09379	8488.3625
2111.08131	8500.4625
2114.0669	8492.6625
2117.05057	8512.4625
2120.03233	8527.7625
2123.01216	8551.0625
2125.99008	8546.7625
2128.96609	8566.0625
2131.94018	8566.6625
2134.91236	8562.4625
2137.88263	8556.2625
2140.851	8562.5625
2143.81746	8581.5625
2146.78201	8585.6625
2149.74466	8588.0625
2152.7054	8582.5625
2155.66425	8577.8625
2158.6212	8555.1625
2161.57625	8577.9625
2164.52941	8565.9625
2167.48067	8532.9625
2170.43004	8526.4625
2173.37752	8540.4625
2176.32311	8539.3625
2179.26681	8546.2625
2182.20863	8533.0625
2185.14856	8524.8625
2188.08661	8538.2625
2191.02278	8539.1625
2193.95707	8512.7625
2196.88948	8523.2625
2199.82001	8508.1625
2202.74867	8488.9625
2205.67545	8523.1625
2208.60037	8464.3625
2211.52341	8469.8625
2214.44458	8425.7625
2217.36388	8444.5625
2220.28132	8425.2625
2223.1969	8397.0625
2226.11061	8380.2625
2229.02246	8366.1625
2231.93245	8362.1625
2234.84058	8340.6625
2237.74686	8327.3625
2240.65128	8335.1625
2243.55385	8311.7625
2246.45456	8302.2625
2249.35343	8277.7625
2252.25044	8281.5625
2255.14561	8276.9625
2258.03893	8266.4625
2260.93041	8222.8625
2263.82004	8234.8625
2266.70783	8209.3625
2269.59378	8178.9625
2272.4779	8179.7625
2275.36017	8155.9625
2278.24061	8124.8625
2281.11922	8106.5625
2283.996	8083.8625
2286.87094	8085.5625
2289.74405	8066.1625
2292.61534	8080.7625
2295.4848	8038.4625
2298.35243	8055.2625
2301.21824	8029.3625
2304.08223	8038.3625
2306.94439	8039.3625
2309.80474	8009.2625
2312.66327	8032.7625
2315.51999	8004.4625
2318.37489	7993.3625
2321.22797	7981.5625
2324.07925	7964.1625
2326.92871	7971.4625
2329.77637	7969.8625
2332.62222	7950.9625
2335.46626	7932.5625
2338.3085	7910.6625
2341.14893	7896.3625
2343.98756	7905.3625
2346.8244	7914.6625
2349.65943	7892.9625
2352.49267	7889.1625
2355.32411	7879.3625
2358.15376	7893.6625
2360.98161	7861.2625
2363.80768	7866.9625
2366.63195	7864.5625
2369.45444	7867.1625
2372.27514	7851.2625
2375.09405	7852.2625
2377.91118	7840.4625
2380.72652	7814.5625
2383.54009	7799.4625
2386.35187	7794.7625
2389.16188	7755.5625
2391.97011	7758.3625
2394.77657	7730.2625
2397.58125	7704.0625
2400.38416	7709.7625
2403.18529	7697.6625
2405.98466	7688.7625
2408.78226	7680.6625
2411.57809	7647.3625
2414.37216	7638.1625
2417.16446	7662.9625
2419.955	7649.9625
2422.74378	7636.5625
2425.5308	7627.6625
2428.31606	7625.3625
2431.09956	7615.6625
2433.88131	7591.1625
2436.6613	7620.5625
2439.43954	7598.6625
2442.21603	7615.4625
2444.99077	7616.6625
2447.76377	7598.0625
2450.53501	7594.5625
2453.30451	7576.5625
2456.07226	7548.9625
2458.83827	7554.0625
2461.60254	7541.2625
2464.36507	7545.9625
2467.12586	7545.2625
2469.88492	7539.9625
2472.64224	7547.3625
2475.39782	7508.2625
2478.15167	7527.0625
2480.90379	7543.1625
2483.65417	7540.5625
2486.40283	7503.6625
2489.14976	7511.3625
2491.89497	7496.7625
2494.63845	7513.4625
2497.3802	7471.0625
2500.12024	7479.9625
2502.85855	7493.1625
2505.59514	7471.9625
2508.33002	7472.3625
2511.06318	7470.0625
2513.79462	7440.8625
2516.52435	7428.4625
2519.25237	7427.0625
2521.97867	7399.7625
2524.70327	7430.2625
2527.42616	7396.2625
2530.14734	7402.4625
2532.86681	7381.7625
2535.58458	7399.8625
2538.30065	7372.4625
2541.01501	7374.0625
2543.72768	7352.2625
2546.43864	7348.8625
2549.14791	7333.5625
2551.85548	7321.6625
2554.56136	7301.0625
2557.26554	7280.9625
2559.96803	7275.8625
2562.66883	7297.9625
2565.36794	7272.0625
2568.06536	7271.5625
2570.7611	7245.8625
2573.45514	7221.2625
2576.14751	7221.8625
2578.83819	7221.4625
2581.52719	7192.9625
2584.21451	7193.9625
2586.90015	7194.1625
2589.58411	7156.8625
2592.2664	7140.4625
2594.94701	7138.0625
2597.62594	7133.2625
2600.30321	7129.4625
2602.9788	7103.4625
2605.65273	7111.0625
2608.32498	7104.4625
2610.99557	7089.9625
2613.66449	7098.2625
2616.33175	7083.4625
2618.99734	7095.0625
2621.66128	7087.2625
2624.32355	7062.0625
2626.98416	7070.2625
2629.64311	7039.2625
2632.30041	7030.0625
2634.95605	6998.1625
2637.61004	7005.5625
2640.26238	6988.3625
2642.91306	6990.8625
2645.56209	6998.3625
2648.20948	6982.4625
2650.85521	6978.7625
2653.4993	6989.3625
2656.14175	6957.9625
2658.78255	6969.6625
2661.42171	6964.3625
2664.05923	6988.9625
2666.6951	6978.9625
2669.32934	6993.0625
2671.96194	6990.5625
2674.59291	6979.6625
2677.22224	6963.9625
2679.84993	7002.3625
2682.476	6969.7625
2685.10043	6964.6625
2687.72324	6965.0625
2690.34441	6971.0625
2692.96396	6976.8625
2695.58188	6975.3625
2698.19818	6955.9625
2700.81285	6944.4625
2703.4259	6925.1625
2706.03733	6865.4625
2708.64714	6909.9625
2711.25533	6931.3625
2713.86191	6938.3625
2716.46687	6957.0625
2719.07021	6967.3625
2721.67194	6982.5625
2724.27206	6976.0625
2726.87057	6955.4625
2729.46747	6968.1625
2732.06276	6991.5625
2734.65644	6981.7625
2737.24852	6956.0625
2739.83899	6958.2625
2742.42786	6946.4625
2745.01513	6945.1625
2747.60079	6946.1625
2750.18486	6932.8625
2752.76733	6933.9625
2755.3482	6915.6625
2757.92747	6905.2625
2760.50515	6888.7625
2763.08123	6886.3625
2765.65573	6884.4625
2768.22863	6858.7625
2770.79994	6854.1625
2773.36967	6840.2625
2775.9378	6838.4625
2778.50435	6838.9625
2781.06932	6827.0625
2783.6327	6838.1625
2786.1945	6819.4625
2788.75471	6820.3625
2791.31335	6799.6625
2793.87041	6780.4625
2796.42589	6757.4625
2798.97979	6770.1625
2801.53212	6756.9625
2804.08288	6745.9625
2806.63206	6716.1625
2809.17967	6719.0625
2811.72571	6696.1625
2814.27018	6686.1625
2816.81308	6668.2625
2819.35442	6666.7625
2821.89419	6669.5625
2824.43239	6657.0625
2826.96904	6646.9625
2829.50412	6632.5625
2832.03763	6618.9625
2834.56959	6634.4625
2837.1	6628.2625
2839.62884	6627.6625
2842.15613	6612.8625
2844.68186	6628.6625
2847.20604	6645.4625
2849.72867	6649.2625
2852.24974	6645.1625
2854.76927	6620.6625
2857.28724	6590.4625
2859.80367	6594.1625
2862.31855	6586.8625
2864.83189	6567.8625
2867.34368	6565.4625
2869.85393	6559.2625
2872.36264	6570.6625
2874.8698	6578.0625
2877.37543	6558.0625
2879.87952	6559.2625
2882.38207	6556.2625
2884.88308	6563.9625
2887.38256	6543.5625
2889.88051	6548.5625
2892.37692	6557.3625
2894.8718	6542.0625
2897.36515	6557.5625
2899.85698	6556.2625
2902.34727	6565.2625
2904.83604	6579.9625
2907.32328	6593.9625
2909.809	6585.5625
2912.29319	6591.0625
2914.77587	6599.2625
2917.25702	6592.0625
2919.73665	6581.5625
2922.21476	6576.1625
2924.69136	6566.1625
2927.16644	6584.1625
2929.64	6570.6625
2932.11205	6557.5625
2934.58258	6557.2625
2937.05161	6545.8625
2939.51912	6566.7625
2941.98513	6544.3625
2944.44962	6525.0625
2946.91261	6508.8625
2949.37409	6518.5625
2951.83407	6532.3625
2954.29254	6513.2625
2956.74951	6489.4625
2959.20498	6501.7625
2961.65895	6478.6625
2964.11142	6456.5625
2966.56239	6444.1625
2969.01186	6467.8625
2971.45984	6440.4625
2973.90632	6431.9625
2976.35131	6425.7625
2978.7948	6415.8625
2981.23681	6394.7625
2983.67732	6390.6625
2986.11635	6366.2625
2988.55388	6347.3625
2990.98993	6342.9625
2993.4245	6341.5625
2995.85758	6311.0625
2998.28917	6318.2625
3000.71928	6291.4625
3003.14791	6286.5625
3005.57506	6283.4625
3008.00073	6261.1625
3010.42493	6257.5625
3012.84764	6248.3625
3015.26888	6258.2625
3017.68865	6221.9625
3020.10694	6228.0625
3022.52376	6210.6625
3024.9391	6212.6625
3027.35298	6202.6625
3029.76539	6188.1625
3032.17632	6185.9625
3034.5858	6157.3625
3036.9938	6143.5625
3039.40034	6168.1625
3041.80542	6135.8625
3044.20903	6151.5625
3046.61118	6146.8625
3049.01187	6147.9625
3051.4111	6144.0625
3053.80888	6128.4625
3056.20519	6103.3625
3058.60005	6098.2625
3060.99345	6091.1625
3063.3854	6073.7625
3065.7759	6073.4625
3068.16494	6054.9625
3070.55254	6029.6625
3072.93868	6027.2625
3075.32338	6019.0625
3077.70662	5999.7625
3080.08842	5986.4625
3082.46878	5970.7625
3084.84769	5967.4625
3087.22515	5981.3625
3089.60118	5994.5625
3091.97576	5977.1625
3094.3489	5970.6625
3096.72061	5968.8625
3099.09087	5981.5625
3101.4597	5978.9625
3103.82709	5993.7625
3106.19305	5952.4625
3108.55757	5977.3625
3110.92066	5967.6625
3113.28232	5957.0625
3115.64255	5941.6625
3118.00134	5937.5625
3120.35871	5922.1625
3122.71466	5941.5625
3125.06917	5945.2625
3127.42226	5891.1625
3129.77393	5929.5625
3132.12417	5913.7625
3134.47299	5908.3625
3136.82039	5909.0625
3139.16636	5904.0625
3141.51092	5905.4625
3143.85406	5911.6625
3146.19579	5914.2625
3148.53609	5914.3625
3150.87499	5899.1625
3153.21246	5916.7625
3155.54853	5929.4625
3157.88318	5940.5625
3160.21642	5947.5625
3162.54826	5939.2625
3164.87868	5937.9625
3167.2077	5948.9625
3169.5353	5939.9625
3171.86151	5951.4625
3174.18631	5931.9625
3176.5097	5936.0625
3178.83169	5936.9625
3181.15228	5937.5625
3183.47147	5922.4625
3185.78926	5918.8625
3188.10565	5915.4625
3190.42065	5932.1625
3192.73424	5909.8625
3195.04645	5898.8625
3197.35725	5894.6625
3199.66667	5884.6625
3201.97469	5897.0625
3204.28132	5892.5625
3206.58656	5906.6625
3208.8904	5896.4625
3211.19287	5920.0625
3213.49394	5918.5625
3215.79363	5911.0625
3218.09193	5941.2625
3220.38884	5904.3625
3222.68438	5886.5625
3224.97853	5905.9625
3227.2713	5902.5625
3229.56269	5884.6625
3231.8527	5901.6625
3234.14133	5887.7625
3236.42858	5856.8625
3238.71446	5855.4625
3240.99896	5865.0625
3243.28209	5838.6625
3245.56384	5834.5625
3247.84423	5847.8625
3250.12324	5839.1625
3252.40088	5843.9625
3254.67715	5822.1625
3256.95205	5820.1625
3259.22558	5819.6625
3261.49775	5801.8625
3263.76855	5819.2625
3266.03799	5825.9625
3268.30606	5797.4625
3270.57277	5810.1625
3272.83812	5798.8625
3275.10211	5764.9625
3277.36474	5751.3625
3279.62601	5740.8625
3281.88593	5731.9625
3284.14448	5756.2625
3286.40168	5737.5625
3288.65753	5747.8625
3290.91202	5740.8625
3293.16516	5719.9625
3295.41695	5709.1625
3297.66738	5683.8625
3299.91647	5636.2625
3302.16421	5606.4625
3304.4106	5596.3625
3306.65564	5559.5625
3308.89933	5526.8625
3311.14169	5479.3625
3313.38269	5421.0625
3315.62236	5395.8625
3317.86068	5356.4625
3320.09766	5305.5625
3322.3333	5282.3625
3324.5676	5261.8625
3326.80056	5153.8625
3329.03219	5138.9625
3331.26248	1.9625
3333.49143	-1.6375
3335.71905	1.4625
