Data from AgNPs_FTO_APTES_UA_50uM_CRN_100uM_R6G_10uM_NaF_0.1M_Addition_RamanShift__19__15-38-05-040.txt Node

Date: Mon Feb 21 15:38:05 GMT 2022
User: TCL
Spectrometer: QEP01345
Trigger mode: 4
Integration Time (sec): 7.000000E0
Scans to average: 10
Electric dark correction enabled: true
Nonlinearity correction enabled: false
Boxcar width: 0
XAxis mode: Raman Shifts
Number of Pixels in Spectrum: 1044
>>>>>Begin Spectral Data<<<<<
46.04893	0.7625
50.45542	-0.8375
54.85868	-0.7375
59.25871	-0.6375
63.6555	54.2625
68.04907	56.8625
72.43941	59.1625
76.82654	64.9625
81.21044	63.6625
85.59113	67.6625
89.96862	65.4625
94.34289	75.3625
98.71396	71.4625
103.08183	81.2625
107.4465	78.3625
111.80798	80.1625
116.16626	78.7625
120.52136	83.9625
124.87327	88.9625
129.222	87.7625
133.56755	93.2625
137.90993	101.3625
142.24913	102.3625
146.58517	115.1625
150.91804	133.6625
155.24774	163.8625
159.57429	190.7625
163.89768	243.0625
168.21792	323.3625
172.53501	437.8625
176.84895	608.6625
181.15975	847.2625
185.46741	1186.9625
189.77193	1648.6625
194.07331	2208.9625
198.37157	2849.1625
202.6667	3518.8625
206.9587	4184.4625
211.24758	4836.1625
215.53334	5508.1625
219.81599	6218.8625
224.09553	6989.9625
228.37195	7860.2625
232.64527	8808.1625
236.91549	9851.7625
241.18261	10860.2625
245.44663	11766.1625
249.70755	12568.6625
253.96539	13261.5625
258.22014	13806.1625
262.4718	14259.3625
266.72039	14618.2625
270.96589	14798.0625
275.20832	14771.0625
279.44768	14648.3625
283.68397	14469.9625
287.91719	14286.4625
292.14735	14207.0625
296.37445	14188.5625
300.59849	14323.6625
304.81948	14504.2625
309.03742	14553.7625
313.25231	14440.6625
317.46415	14105.8625
321.67296	13651.4625
325.87872	13296.7625
330.08145	13144.0625
334.28114	13160.3625
338.47781	13251.8625
342.67145	13500.3625
346.86207	13762.4625
351.04966	14131.1625
355.23424	14556.3625
359.4158	14928.2625
363.59435	15177.0625
367.76989	15344.0625
371.94243	15460.9625
376.11196	15527.7625
380.27849	15591.3625
384.44203	15619.8625
388.60257	15624.9625
392.76012	15681.3625
396.91468	15807.0625
401.06626	16031.1625
405.21485	16177.8625
409.36047	16108.2625
413.50311	15749.1625
417.64277	15406.2625
421.77947	15262.8625
425.9132	15159.2625
430.04396	15226.5625
434.17176	15302.2625
438.2966	15493.7625
442.41849	15733.6625
446.53742	16100.1625
450.6534	16469.8625
454.76644	16792.3625
458.87653	16896.2625
462.98368	16846.6625
467.08789	16704.5625
471.18916	16510.8625
475.2875	16269.7625
479.38291	16097.0625
483.4754	15954.4625
487.56496	15808.5625
491.6516	15684.3625
495.73531	15585.7625
499.81612	15621.9625
503.89401	15699.5625
507.96899	15813.6625
512.04106	15877.0625
516.11023	15958.8625
520.1765	15966.1625
524.23987	15936.5625
528.30034	15857.7625
532.35792	15792.3625
536.41261	15670.5625
540.46441	15555.9625
544.51333	15412.8625
548.55936	15484.4625
552.60252	15634.7625
556.64279	15874.5625
560.6802	15953.9625
564.71473	16008.1625
568.7464	16166.2625
572.7752	16388.3625
576.80114	16374.3625
580.82422	16328.8625
584.84444	16418.4625
588.86181	16574.2625
592.87633	16797.4625
596.888	17017.1625
600.89682	17202.0625
604.9028	17991.4625
608.90594	20218.3625
612.90624	22805.4625
616.90371	21725.9625
620.89834	17958.1625
624.89015	16307.8625
628.87913	16108.2625
632.86528	16159.4625
636.84862	16142.7625
640.82913	15993.7625
644.80683	15618.8625
648.78172	15329.3625
652.75379	15271.1625
656.72306	15521.3625
660.68952	15854.5625
664.65319	15820.9625
668.61405	15576.6625
672.57211	15538.7625
676.52738	15681.8625
680.47986	15692.5625
684.42955	15597.0625
688.37646	15431.5625
692.32058	15400.7625
696.26192	15412.5625
700.20048	15521.9625
704.13626	15568.7625
708.06928	15514.8625
711.99952	15382.0625
715.927	15335.8625
719.85171	15357.8625
723.77365	15391.9625
727.69284	15354.0625
731.60928	15289.5625
735.52295	15317.0625
739.43388	15360.0625
743.34206	15386.5625
747.24749	15420.2625
751.15017	15452.0625
755.05012	15544.5625
758.94733	15887.2625
762.8418	16673.1625
766.73354	17997.5625
770.62254	19517.5625
774.50882	20313.9625
778.39237	19589.8625
782.27321	18035.2625
786.15132	16633.0625
790.02671	15768.7625
793.89938	15392.9625
797.76935	15209.4625
801.6366	15171.0625
805.50115	15118.6625
809.36299	15029.5625
813.22213	14973.2625
817.07857	14886.5625
820.93231	14831.2625
824.78336	14821.0625
828.63172	14802.8625
832.47738	14828.3625
836.32036	14846.6625
840.16066	14873.6625
843.99827	14948.1625
847.8332	14937.0625
851.66546	14870.7625
855.49504	14823.2625
859.32195	14902.6625
863.1462	14902.2625
866.96777	14911.6625
870.78668	14876.6625
874.60293	14890.2625
878.41652	14892.1625
882.22745	14937.9625
886.03573	15019.6625
889.84136	14971.8625
893.64433	14877.4625
897.44466	14807.1625
901.24235	14734.1625
905.0374	14686.9625
908.8298	14607.6625
912.61957	14581.2625
916.40671	14662.6625
920.19121	14770.1625
923.97308	14884.4625
927.75233	14983.5625
931.52895	15054.6625
935.30295	14945.7625
939.07433	14724.7625
942.84309	14517.1625
946.60924	14413.7625
950.37278	14350.4625
954.13371	14283.0625
957.89203	14187.6625
961.64774	14127.8625
965.40086	14109.0625
969.15137	14020.9625
972.89929	13986.7625
976.64461	13950.6625
980.38733	13983.8625
984.12747	14025.6625
987.86502	14134.3625
991.59999	14302.6625
995.33237	14525.8625
999.06217	14889.1625
1002.78939	15220.8625
1006.51404	15412.5625
1010.23611	15505.5625
1013.95561	15646.5625
1017.67255	15686.0625
1021.38692	15579.3625
1025.09872	15456.8625
1028.80796	15559.3625
1032.51465	15906.6625
1036.21877	16318.5625
1039.92035	16354.8625
1043.61937	16177.2625
1047.31584	15874.1625
1051.00976	15573.9625
1054.70114	15356.8625
1058.38998	15298.5625
1062.07627	15270.9625
1065.76003	15291.2625
1069.44126	15279.5625
1073.11995	15366.9625
1076.79611	15437.0625
1080.46974	15551.5625
1084.14085	15725.8625
1087.80943	15897.9625
1091.47549	15984.4625
1095.13903	15919.4625
1098.80005	15684.3625
1102.45857	15464.6625
1106.11456	15419.7625
1109.76805	15491.1625
1113.41903	15635.1625
1117.06751	15864.8625
1120.71348	16127.2625
1124.35696	16405.3625
1127.99793	16667.2625
1131.63641	16715.7625
1135.2724	16476.3625
1138.90589	16237.1625
1142.5369	15997.8625
1146.16542	15768.7625
1149.79145	15637.0625
1153.415	15622.4625
1157.03607	15707.9625
1160.65467	15977.2625
1164.27079	16405.7625
1167.88443	17054.5625
1171.49561	17897.7625
1175.10432	19127.9625
1178.71056	20738.7625
1182.31434	22210.6625
1185.91565	22965.0625
1189.51451	22790.7625
1193.11091	21948.4625
1196.70485	20826.2625
1200.29634	19945.9625
1203.88538	19180.7625
1207.47197	18460.6625
1211.05612	17829.2625
1214.63782	17475.4625
1218.21708	17353.5625
1221.79391	17413.8625
1225.36829	17483.3625
1228.94024	17435.2625
1232.50976	17199.6625
1236.07685	17002.4625
1239.6415	16904.0625
1243.20374	16918.9625
1246.76355	17024.3625
1250.32093	17197.3625
1253.8759	17493.9625
1257.42845	17896.3625
1260.97859	18228.0625
1264.52631	18622.0625
1268.07163	19039.3625
1271.61453	19562.7625
1275.15503	20039.0625
1278.69312	20509.4625
1282.22882	20852.8625
1285.76211	21168.3625
1289.29301	21517.1625
1292.82151	21884.3625
1296.34761	22579.7625
1299.87133	23552.9625
1303.39266	24932.2625
1306.9116	26718.6625
1310.42815	28604.1625
1313.94233	29666.8625
1317.45412	29304.5625
1320.96354	28080.8625
1324.47058	26688.6625
1327.97525	25435.3625
1331.47754	24661.3625
1334.97747	24344.4625
1338.47502	24412.1625
1341.97022	24769.5625
1345.46305	25212.3625
1348.95352	25820.2625
1352.44163	26617.5625
1355.92738	27943.2625
1359.41078	29996.2625
1362.89183	31790.2625
1366.37053	31007.8625
1369.84688	27664.8625
1373.32088	24198.5625
1376.79254	21924.2625
1380.26186	20780.1625
1383.72883	20220.8625
1387.19347	19874.4625
1390.65578	19460.8625
1394.11575	19234.8625
1397.57339	19221.5625
1401.0287	19420.3625
1404.48168	19611.4625
1407.93234	19766.2625
1411.38068	19800.4625
1414.82669	19701.0625
1418.27039	19415.4625
1421.71177	19003.9625
1425.15083	18628.2625
1428.58758	18374.5625
1432.02203	18390.9625
1435.45416	18550.4625
1438.88399	18781.9625
1442.31151	18947.3625
1445.73673	19101.1625
1449.15965	19247.7625
1452.58027	19324.1625
1455.9986	19334.2625
1459.41463	19448.0625
1462.82837	19672.6625
1466.23982	19992.1625
1469.64898	20319.8625
1473.05586	20620.7625
1476.46045	20741.5625
1479.86276	20804.1625
1483.26279	20817.2625
1486.66054	20907.0625
1490.05602	21073.2625
1493.44922	21418.0625
1496.84016	22000.8625
1500.22882	22889.9625
1503.61521	24245.8625
1506.99934	25845.1625
1510.38121	27239.9625
1513.76081	27508.6625
1517.13816	26450.4625
1520.51324	24568.7625
1523.88607	22796.9625
1527.25665	21649.0625
1530.62498	20985.2625
1533.99105	20566.6625
1537.35488	20348.2625
1540.71647	20196.1625
1544.07581	20013.5625
1547.4329	19878.4625
1550.78776	19755.4625
1554.14038	19733.4625
1557.49077	19783.8625
1560.83892	19891.6625
1564.18484	20023.8625
1567.52853	20206.9625
1570.86999	20347.6625
1574.20922	20514.6625
1577.54624	20448.6625
1580.88103	20050.4625
1584.2136	19558.2625
1587.54395	19466.2625
1590.87208	19928.1625
1594.19801	20909.5625
1597.52172	22162.0625
1600.84321	22811.3625
1604.16251	22253.7625
1607.47959	21058.9625
1610.79447	19755.2625
1614.10715	18499.2625
1617.41763	17449.1625
1620.7259	16691.1625
1624.03199	16279.2625
1627.33587	16267.9625
1630.63757	16578.9625
1633.93707	17209.1625
1637.23439	18261.3625
1640.52951	19656.8625
1643.82246	21332.1625
1647.11321	22973.2625
1650.40179	23653.2625
1653.68819	22707.4625
1656.97241	20388.1625
1660.25446	17959.3625
1663.53433	16260.9625
1666.81203	15189.5625
1670.08756	14523.4625
1673.36092	14157.9625
1676.63211	13888.9625
1679.90115	13702.0625
1683.16801	13513.4625
1686.43272	13442.2625
1689.69527	13312.6625
1692.95567	13190.5625
1696.2139	13055.8625
1699.46999	12917.1625
1702.72392	12856.9625
1705.97571	12893.3625
1709.22535	12998.5625
1712.47284	13065.9625
1715.71819	13077.1625
1718.96139	13054.6625
1722.20246	13037.2625
1725.44139	13001.5625
1728.67818	12943.3625
1731.91284	12872.7625
1735.14537	12816.3625
1738.37576	12793.0625
1741.60403	12741.1625
1744.83017	12723.5625
1748.05418	12676.6625
1751.27607	12667.7625
1754.49584	12607.2625
1757.71349	12525.2625
1760.92903	12488.3625
1764.14244	12444.1625
1767.35375	12438.2625
1770.56294	12382.8625
1773.77002	12357.9625
1776.97499	12408.3625
1780.17785	12411.6625
1783.37861	12440.1625
1786.57727	12409.3625
1789.77382	12407.2625
1792.96828	12420.5625
1796.16064	12377.1625
1799.3509	12356.8625
1802.53907	12344.2625
1805.72514	12318.0625
1808.90913	12296.3625
1812.09102	12250.3625
1815.27083	12279.3625
1818.44856	12243.7625
1821.6242	12243.3625
1824.79776	12229.4625
1827.96924	12193.7625
1831.13864	12169.7625
1834.30597	12176.7625
1837.47122	12159.2625
1840.6344	12148.7625
1843.7955	12163.2625
1846.95454	12155.5625
1850.11151	12153.4625
1853.26642	12148.7625
1856.41926	12152.4625
1859.57004	12113.3625
1862.71876	12118.8625
1865.86542	12117.1625
1869.01003	12100.0625
1872.15258	12068.9625
1875.29308	12104.9625
1878.43152	12078.8625
1881.56792	12098.5625
1884.70227	12065.6625
1887.83457	12055.0625
1890.96482	12038.7625
1894.09304	12033.9625
1897.21921	12039.1625
1900.34335	12004.8625
1903.46544	12001.4625
1906.58551	11971.6625
1909.70353	11984.5625
1912.81953	11942.7625
1915.93349	11965.6625
1919.04543	11950.8625
1922.15534	11924.9625
1925.26322	11882.2625
1928.36908	11871.3625
1931.47292	11851.6625
1934.57473	11836.1625
1937.67453	11829.5625
1940.77232	11772.1625
1943.86808	11760.6625
1946.96184	11723.8625
1950.05358	11681.9625
1953.14331	11625.1625
1956.23103	11595.0625
1959.31675	11570.5625
1962.40046	11570.0625
1965.48217	11549.1625
1968.56188	11514.3625
1971.63959	11471.0625
1974.7153	11450.3625
1977.78901	11427.1625
1980.86073	11398.9625
1983.93046	11343.3625
1986.99819	11304.5625
1990.06394	11301.8625
1993.1277	11272.2625
1996.18947	11194.9625
1999.24925	11177.3625
2002.30706	11136.2625
2005.36288	11147.0625
2008.41672	11069.5625
2011.46859	11067.6625
2014.51848	11034.6625
2017.56639	11006.1625
2020.61233	10958.9625
2023.6563	10958.8625
2026.6983	10953.0625
2029.73833	10918.0625
2032.7764	10886.0625
2035.8125	10860.5625
2038.84664	10868.2625
2041.87881	10860.0625
2044.90903	10849.5625
2047.93729	10811.3625
2050.96359	10845.6625
2053.98794	10807.4625
2057.01034	10809.3625
2060.03078	10790.5625
2063.04927	10798.1625
2066.06582	10777.4625
2069.08042	10791.5625
2072.09307	10734.7625
2075.10378	10754.4625
2078.11255	10751.9625
2081.11938	10728.3625
2084.12426	10705.2625
2087.12722	10735.5625
2090.12824	10710.9625
2093.12732	10718.2625
2096.12447	10725.5625
2099.11969	10718.7625
2102.11299	10716.9625
2105.10435	10720.1625
2108.09379	10730.2625
2111.08131	10717.6625
2114.0669	10710.4625
2117.05057	10730.8625
2120.03233	10766.6625
2123.01216	10784.8625
2125.99008	10799.6625
2128.96609	10787.4625
2131.94018	10787.2625
2134.91236	10803.9625
2137.88263	10812.9625
2140.851	10815.4625
2143.81746	10852.6625
2146.78201	10840.0625
2149.74466	10854.4625
2152.7054	10831.5625
2155.66425	10845.7625
2158.6212	10841.6625
2161.57625	10834.9625
2164.52941	10828.4625
2167.48067	10820.5625
2170.43004	10822.5625
2173.37752	10825.0625
2176.32311	10808.1625
2179.26681	10823.2625
2182.20863	10816.7625
2185.14856	10831.5625
2188.08661	10845.1625
2191.02278	10834.9625
2193.95707	10821.9625
2196.88948	10822.2625
2199.82001	10819.8625
2202.74867	10830.6625
2205.67545	10819.8625
2208.60037	10819.2625
2211.52341	10807.5625
2214.44458	10778.1625
2217.36388	10780.4625
2220.28132	10784.9625
2223.1969	10743.2625
2226.11061	10740.1625
2229.02246	10721.7625
2231.93245	10687.9625
2234.84058	10659.2625
2237.74686	10654.9625
2240.65128	10633.3625
2243.55385	10635.7625
2246.45456	10636.2625
2249.35343	10607.5625
2252.25044	10592.7625
2255.14561	10583.8625
2258.03893	10573.3625
2260.93041	10515.5625
2263.82004	10538.1625
2266.70783	10518.4625
2269.59378	10465.9625
2272.4779	10463.8625
2275.36017	10451.3625
2278.24061	10417.9625
2281.11922	10402.3625
2283.996	10365.6625
2286.87094	10339.6625
2289.74405	10353.4625
2292.61534	10362.2625
2295.4848	10330.1625
2298.35243	10343.3625
2301.21824	10371.3625
2304.08223	10372.2625
2306.94439	10350.1625
2309.80474	10355.7625
2312.66327	10351.3625
2315.51999	10339.5625
2318.37489	10341.8625
2321.22797	10337.4625
2324.07925	10351.9625
2326.92871	10317.4625
2329.77637	10340.5625
2332.62222	10287.1625
2335.46626	10277.4625
2338.3085	10279.2625
2341.14893	10285.8625
2343.98756	10309.9625
2346.8244	10270.8625
2349.65943	10314.1625
2352.49267	10283.2625
2355.32411	10291.0625
2358.15376	10274.1625
2360.98161	10276.5625
2363.80768	10271.9625
2366.63195	10238.6625
2369.45444	10243.8625
2372.27514	10217.9625
2375.09405	10211.6625
2377.91118	10173.0625
2380.72652	10149.2625
2383.54009	10130.9625
2386.35187	10125.4625
2389.16188	10101.4625
2391.97011	10064.0625
2394.77657	10070.1625
2397.58125	10034.3625
2400.38416	10043.5625
2403.18529	10028.9625
2405.98466	10031.6625
2408.78226	9985.4625
2411.57809	9987.3625
2414.37216	9955.0625
2417.16446	9931.4625
2419.955	9897.0625
2422.74378	9928.2625
2425.5308	9907.1625
2428.31606	9914.0625
2431.09956	9907.7625
2433.88131	9884.4625
2436.6613	9888.3625
2439.43954	9896.2625
2442.21603	9871.2625
2444.99077	9887.1625
2447.76377	9914.4625
2450.53501	9903.8625
2453.30451	9881.2625
2456.07226	9839.2625
2458.83827	9855.5625
2461.60254	9856.9625
2464.36507	9864.8625
2467.12586	9870.6625
2469.88492	9866.4625
2472.64224	9874.7625
2475.39782	9861.4625
2478.15167	9844.8625
2480.90379	9880.9625
2483.65417	9876.3625
2486.40283	9878.5625
2489.14976	9883.3625
2491.89497	9870.6625
2494.63845	9895.4625
2497.3802	9860.3625
2500.12024	9873.6625
2502.85855	9857.6625
2505.59514	9862.6625
2508.33002	9831.3625
2511.06318	9824.3625
2513.79462	9813.7625
2516.52435	9800.6625
2519.25237	9780.6625
2521.97867	9765.6625
2524.70327	9768.4625
2527.42616	9736.0625
2530.14734	9755.9625
2532.86681	9735.1625
2535.58458	9744.4625
2538.30065	9745.1625
2541.01501	9736.9625
2543.72768	9703.8625
2546.43864	9679.4625
2549.14791	9703.3625
2551.85548	9683.6625
2554.56136	9662.9625
2557.26554	9630.2625
2559.96803	9649.3625
2562.66883	9674.0625
2565.36794	9643.1625
2568.06536	9646.8625
2570.7611	9614.0625
2573.45514	9594.1625
2576.14751	9610.5625
2578.83819	9586.4625
2581.52719	9581.0625
2584.21451	9566.7625
2586.90015	9576.7625
2589.58411	9536.7625
2592.2664	9557.5625
2594.94701	9518.5625
2597.62594	9552.4625
2600.30321	9532.8625
2602.9788	9536.0625
2605.65273	9518.9625
2608.32498	9517.9625
2610.99557	9510.1625
2613.66449	9518.0625
2616.33175	9498.8625
2618.99734	9538.3625
2621.66128	9520.9625
2624.32355	9536.9625
2626.98416	9513.0625
2629.64311	9492.4625
2632.30041	9493.6625
2634.95605	9483.4625
2637.61004	9481.5625
2640.26238	9427.2625
2642.91306	9458.3625
2645.56209	9420.7625
2648.20948	9429.9625
2650.85521	9411.5625
2653.4993	9407.9625
2656.14175	9394.5625
2658.78255	9397.4625
2661.42171	9399.5625
2664.05923	9440.0625
2666.6951	9446.5625
2669.32934	9463.7625
2671.96194	9460.6625
2674.59291	9466.8625
2677.22224	9431.2625
2679.84993	9436.8625
2682.476	9395.5625
2685.10043	9441.6625
2687.72324	9399.7625
2690.34441	9418.4625
2692.96396	9421.3625
2695.58188	9425.6625
2698.19818	9402.3625
2700.81285	9374.8625
2703.4259	9358.9625
2706.03733	9324.6625
2708.64714	9362.4625
2711.25533	9349.8625
2713.86191	9387.4625
2716.46687	9430.5625
2719.07021	9391.9625
2721.67194	9438.0625
2724.27206	9420.6625
2726.87057	9409.1625
2729.46747	9427.3625
2732.06276	9447.5625
2734.65644	9434.4625
2737.24852	9406.8625
2739.83899	9412.6625
2742.42786	9438.6625
2745.01513	9401.0625
2747.60079	9392.9625
2750.18486	9384.4625
2752.76733	9384.0625
2755.3482	9392.2625
2757.92747	9371.5625
2760.50515	9373.7625
2763.08123	9383.3625
2765.65573	9371.2625
2768.22863	9337.7625
2770.79994	9324.2625
2773.36967	9309.6625
2775.9378	9303.9625
2778.50435	9329.1625
2781.06932	9296.3625
2783.6327	9323.0625
2786.1945	9312.0625
2788.75471	9309.5625
2791.31335	9275.0625
2793.87041	9290.2625
2796.42589	9238.8625
2798.97979	9241.3625
2801.53212	9235.3625
2804.08288	9225.9625
2806.63206	9188.9625
2809.17967	9181.0625
2811.72571	9169.3625
2814.27018	9180.4625
2816.81308	9152.0625
2819.35442	9164.5625
2821.89419	9143.2625
2824.43239	9161.3625
2826.96904	9149.0625
2829.50412	9142.4625
2832.03763	9119.6625
2834.56959	9124.9625
2837.1	9143.8625
2839.62884	9133.8625
2842.15613	9108.8625
2844.68186	9121.5625
2847.20604	9112.6625
2849.72867	9127.1625
2852.24974	9104.7625
2854.76927	9094.2625
2857.28724	9082.4625
2859.80367	9081.0625
2862.31855	9096.8625
2864.83189	9075.3625
2867.34368	9060.6625
2869.85393	9072.8625
2872.36264	9067.5625
2874.8698	9083.7625
2877.37543	9065.8625
2879.87952	9079.6625
2882.38207	9098.8625
2884.88308	9087.1625
2887.38256	9090.4625
2889.88051	9083.7625
2892.37692	9095.0625
2894.8718	9079.9625
2897.36515	9128.6625
2899.85698	9128.4625
2902.34727	9140.8625
2904.83604	9136.9625
2907.32328	9175.5625
2909.809	9158.0625
2912.29319	9195.9625
2914.77587	9198.3625
2917.25702	9202.8625
2919.73665	9178.4625
2922.21476	9185.9625
2924.69136	9173.3625
2927.16644	9163.9625
2929.64	9161.3625
2932.11205	9135.0625
2934.58258	9101.7625
2937.05161	9125.1625
2939.51912	9131.8625
2941.98513	9124.0625
2944.44962	9086.8625
2946.91261	9087.2625
2949.37409	9110.2625
2951.83407	9080.5625
2954.29254	9089.8625
2956.74951	9058.7625
2959.20498	9059.6625
2961.65895	9049.8625
2964.11142	9016.9625
2966.56239	9002.4625
2969.01186	9012.1625
2971.45984	8972.2625
2973.90632	8984.5625
2976.35131	8964.1625
2978.7948	8932.1625
2981.23681	8938.2625
2983.67732	8909.1625
2986.11635	8908.4625
2988.55388	8862.3625
2990.98993	8851.3625
2993.4245	8860.5625
2995.85758	8818.3625
2998.28917	8805.6625
3000.71928	8805.0625
3003.14791	8794.2625
3005.57506	8767.7625
3008.00073	8750.5625
3010.42493	8755.2625
3012.84764	8754.6625
3015.26888	8740.3625
3017.68865	8727.9625
3020.10694	8710.0625
3022.52376	8693.4625
3024.9391	8705.5625
3027.35298	8679.7625
3029.76539	8672.8625
3032.17632	8656.2625
3034.5858	8639.2625
3036.9938	8646.7625
3039.40034	8629.5625
3041.80542	8653.4625
3044.20903	8622.5625
3046.61118	8618.0625
3049.01187	8599.9625
3051.4111	8605.0625
3053.80888	8594.7625
3056.20519	8557.0625
3058.60005	8533.0625
3060.99345	8517.1625
3063.3854	8521.4625
3065.7759	8516.8625
3068.16494	8499.8625
3070.55254	8459.6625
3072.93868	8432.7625
3075.32338	8426.9625
3077.70662	8430.2625
3080.08842	8396.8625
3082.46878	8364.8625
3084.84769	8378.4625
3087.22515	8380.9625
3089.60118	8395.8625
3091.97576	8366.9625
3094.3489	8374.7625
3096.72061	8401.6625
3099.09087	8372.7625
3101.4597	8383.9625
3103.82709	8374.2625
3106.19305	8379.7625
3108.55757	8376.6625
3110.92066	8365.2625
3113.28232	8379.3625
3115.64255	8315.3625
3118.00134	8322.6625
3120.35871	8341.7625
3122.71466	8309.5625
3125.06917	8313.0625
3127.42226	8298.8625
3129.77393	8309.3625
3132.12417	8288.1625
3134.47299	8279.6625
3136.82039	8265.3625
3139.16636	8293.0625
3141.51092	8272.6625
3143.85406	8292.9625
3146.19579	8293.4625
3148.53609	8288.6625
3150.87499	8287.6625
3153.21246	8302.0625
3155.54853	8312.6625
3157.88318	8332.5625
3160.21642	8340.9625
3162.54826	8337.2625
3164.87868	8359.9625
3167.2077	8326.1625
3169.5353	8320.2625
3171.86151	8344.9625
3174.18631	8337.3625
3176.5097	8323.2625
3178.83169	8330.3625
3181.15228	8342.8625
3183.47147	8315.0625
3185.78926	8320.5625
3188.10565	8319.9625
3190.42065	8326.9625
3192.73424	8331.8625
3195.04645	8318.6625
3197.35725	8317.8625
3199.66667	8290.4625
3201.97469	8310.5625
3204.28132	8293.1625
3206.58656	8302.4625
3208.8904	8319.1625
3211.19287	8336.4625
3213.49394	8338.0625
3215.79363	8343.1625
3218.09193	8370.4625
3220.38884	8358.4625
3222.68438	8339.8625
3224.97853	8334.0625
3227.2713	8329.6625
3229.56269	8321.4625
3231.8527	8334.4625
3234.14133	8290.9625
3236.42858	8315.8625
3238.71446	8282.2625
3240.99896	8277.5625
3243.28209	8279.0625
3245.56384	8239.4625
3247.84423	8265.8625
3250.12324	8233.1625
3252.40088	8271.1625
3254.67715	8258.6625
3256.95205	8247.3625
3259.22558	8258.6625
3261.49775	8254.8625
3263.76855	8264.2625
3266.03799	8229.4625
3268.30606	8233.0625
3270.57277	8232.6625
3272.83812	8226.9625
3275.10211	8215.1625
3277.36474	8195.7625
3279.62601	8189.4625
3281.88593	8174.0625
3284.14448	8184.7625
3286.40168	8165.1625
3288.65753	8188.3625
3290.91202	8166.2625
3293.16516	8165.0625
3295.41695	8156.6625
3297.66738	8108.7625
3299.91647	8064.0625
3302.16421	8018.8625
3304.4106	7985.5625
3306.65564	7936.5625
3308.89933	7872.7625
3311.14169	7824.9625
3313.38269	7772.3625
3315.62236	7741.0625
3317.86068	7658.1625
3320.09766	7619.3625
3322.3333	7578.9625
3324.5676	7552.9625
3326.80056	7408.3625
3329.03219	7371.1625
3331.26248	1.5625
3333.49143	-0.5375
3335.71905	0.4625
