Data from AgNPs_FTO_APTES_UA_50uM_CRN_0uM_R6G_10uM_NaF_0.1M_Addition_RamanShift__17__10-30-04-641.txt Node

Date: Mon Feb 21 10:30:04 GMT 2022
User: TCL
Spectrometer: QEP01345
Trigger mode: 4
Integration Time (sec): 7.000000E0
Scans to average: 10
Electric dark correction enabled: true
Nonlinearity correction enabled: false
Boxcar width: 0
XAxis mode: Raman Shifts
Number of Pixels in Spectrum: 1044
>>>>>Begin Spectral Data<<<<<
46.04893	0.8625
50.45542	-1.8375
54.85868	-0.5375
59.25871	-0.8375
63.6555	19.3625
68.04907	25.9625
72.43941	26.9625
76.82654	29.2625
81.21044	29.5625
85.59113	32.1625
89.96862	32.1625
94.34289	38.5625
98.71396	37.2625
103.08183	39.8625
107.4465	36.1625
111.80798	35.4625
116.16626	33.8625
120.52136	34.6625
124.87327	40.8625
129.222	36.6625
133.56755	36.7625
137.90993	40.9625
142.24913	38.7625
146.58517	43.6625
150.91804	45.4625
155.24774	51.3625
159.57429	56.5625
163.89768	67.9625
168.21792	85.4625
172.53501	109.6625
176.84895	148.4625
181.15975	194.7625
185.46741	270.8625
189.77193	365.5625
194.07331	488.6625
198.37157	626.3625
202.6667	754.6625
206.9587	899.7625
211.24758	1038.0625
215.53334	1185.5625
219.81599	1338.5625
224.09553	1531.5625
228.37195	1738.2625
232.64527	1969.6625
236.91549	2185.2625
241.18261	2417.2625
245.44663	2588.5625
249.70755	2732.7625
253.96539	2838.7625
258.22014	2905.1625
262.4718	2944.9625
266.72039	2955.8625
270.96589	2973.4625
275.20832	2932.6625
279.44768	2862.2625
283.68397	2788.0625
287.91719	2749.8625
292.14735	2722.0625
296.37445	2793.6625
300.59849	2921.8625
304.81948	3084.3625
309.03742	3238.7625
313.25231	3266.0625
317.46415	3107.0625
321.67296	2830.4625
325.87872	2589.2625
330.08145	2458.7625
334.28114	2464.2625
338.47781	2505.0625
342.67145	2581.2625
346.86207	2715.9625
351.04966	2901.6625
355.23424	3160.1625
359.4158	3352.4625
363.59435	3450.5625
367.76989	3484.4625
371.94243	3468.7625
376.11196	3439.5625
380.27849	3415.5625
384.44203	3342.8625
388.60257	3274.8625
392.76012	3216.4625
396.91468	3229.5625
401.06626	3303.6625
405.21485	3379.8625
409.36047	3292.0625
413.50311	3181.5625
417.64277	3133.9625
421.77947	3072.0625
425.9132	2762.5625
430.04396	2626.5625
434.17176	2643.3625
438.2966	2757.1625
442.41849	2901.4625
446.53742	3077.8625
450.6534	3229.1625
454.76644	3298.4625
458.87653	3295.7625
462.98368	3202.9625
467.08789	3104.1625
471.18916	2995.1625
475.2875	2883.7625
479.38291	2760.2625
483.4754	2679.5625
487.56496	2602.0625
491.6516	2580.7625
495.73531	2565.2625
499.81612	2564.3625
503.89401	2591.7625
507.96899	2639.7625
512.04106	2716.5625
516.11023	2813.9625
520.1765	2902.0625
524.23987	2919.8625
528.30034	2868.0625
532.35792	2787.3625
536.41261	2707.8625
540.46441	2620.0625
544.51333	2569.0625
548.55936	2550.4625
552.60252	2590.4625
556.64279	2659.0625
560.6802	2699.8625
564.71473	2718.3625
568.7464	2837.8625
572.7752	2919.3625
576.80114	2813.7625
580.82422	2665.1625
584.84444	2596.6625
588.86181	2646.3625
592.87633	2772.8625
596.888	2852.2625
600.89682	2892.9625
604.9028	3253.4625
608.90594	4352.1625
612.90624	5938.7625
616.90371	5852.6625
620.89834	3932.3625
624.89015	2905.5625
628.87913	2692.9625
632.86528	2689.4625
636.84862	2729.6625
640.82913	2678.7625
644.80683	2533.5625
648.78172	2398.9625
652.75379	2396.7625
656.72306	2522.6625
660.68952	2697.3625
664.65319	2641.1625
668.61405	2435.9625
672.57211	2326.1625
676.52738	2307.2625
680.47986	2304.3625
684.42955	2265.8625
688.37646	2265.8625
692.32058	2294.1625
696.26192	2320.5625
700.20048	2359.7625
704.13626	2370.7625
708.06928	2354.7625
711.99952	2309.6625
715.927	2314.6625
719.85171	2341.4625
723.77365	2363.2625
727.69284	2350.0625
731.60928	2325.5625
735.52295	2346.2625
739.43388	2370.9625
743.34206	2370.1625
747.24749	2375.5625
751.15017	2372.2625
755.05012	2404.9625
758.94733	2543.9625
762.8418	2889.4625
766.73354	3485.3625
770.62254	4137.4625
774.50882	4609.9625
778.39237	4558.9625
782.27321	3915.2625
786.15132	3143.8625
790.02671	2681.6625
793.89938	2485.6625
797.76935	2413.8625
801.6366	2389.6625
805.50115	2400.2625
809.36299	2409.0625
813.22213	2402.3625
817.07857	2380.3625
820.93231	2350.5625
824.78336	2340.7625
828.63172	2350.7625
832.47738	2333.1625
836.32036	2310.2625
840.16066	2308.4625
843.99827	2289.5625
847.8332	2269.4625
851.66546	2268.0625
855.49504	2272.7625
859.32195	2258.2625
863.1462	2239.0625
866.96777	2226.2625
870.78668	2236.9625
874.60293	2256.0625
878.41652	2288.7625
882.22745	2334.4625
886.03573	2361.4625
889.84136	2342.9625
893.64433	2322.3625
897.44466	2297.4625
901.24235	2262.5625
905.0374	2230.0625
908.8298	2206.5625
912.61957	2182.4625
916.40671	2176.4625
920.19121	2195.2625
923.97308	2213.7625
927.75233	2262.1625
931.52895	2314.6625
935.30295	2305.5625
939.07433	2208.0625
942.84309	2134.0625
946.60924	2081.2625
950.37278	2040.9625
954.13371	2033.7625
957.89203	2019.6625
961.64774	1991.1625
965.40086	1996.5625
969.15137	1984.8625
972.89929	1981.6625
976.64461	1973.9625
980.38733	1974.5625
984.12747	1979.6625
987.86502	1976.4625
991.59999	2001.3625
995.33237	2041.7625
999.06217	2094.2625
1002.78939	2157.5625
1006.51404	2210.4625
1010.23611	2266.0625
1013.95561	2323.8625
1017.67255	2299.1625
1021.38692	2235.4625
1025.09872	2157.1625
1028.80796	2112.0625
1032.51465	2097.0625
1036.21877	2132.0625
1039.92035	2183.9625
1043.61937	2212.3625
1047.31584	2207.8625
1051.00976	2177.4625
1054.70114	2159.4625
1058.38998	2140.8625
1062.07627	2132.2625
1065.76003	2128.5625
1069.44126	2140.5625
1073.11995	2162.8625
1076.79611	2213.1625
1080.46974	2292.4625
1084.14085	2399.9625
1087.80943	2482.6625
1091.47549	2492.8625
1095.13903	2418.9625
1098.80005	2263.5625
1102.45857	2183.5625
1106.11456	2172.0625
1109.76805	2209.7625
1113.41903	2306.5625
1117.06751	2449.7625
1120.71348	2636.5625
1124.35696	2839.7625
1127.99793	3017.0625
1131.63641	2986.5625
1135.2724	2785.9625
1138.90589	2592.6625
1142.5369	2439.4625
1146.16542	2352.0625
1149.79145	2273.9625
1153.415	2229.1625
1157.03607	2259.4625
1160.65467	2308.9625
1164.27079	2397.9625
1167.88443	2565.7625
1171.49561	2858.8625
1175.10432	3349.8625
1178.71056	4037.4625
1182.31434	4584.9625
1185.91565	4751.6625
1189.51451	4663.3625
1193.11091	4410.2625
1196.70485	4056.5625
1200.29634	3740.7625
1203.88538	3416.7625
1207.47197	3071.5625
1211.05612	2773.0625
1214.63782	2633.5625
1218.21708	2567.8625
1221.79391	2534.9625
1225.36829	2499.0625
1228.94024	2450.6625
1232.50976	2409.1625
1236.07685	2459.8625
1239.6415	2510.9625
1243.20374	2558.9625
1246.76355	2555.9625
1250.32093	2545.3625
1253.8759	2592.1625
1257.42845	2709.6625
1260.97859	2848.9625
1264.52631	3023.9625
1268.07163	3166.3625
1271.61453	3252.2625
1275.15503	3300.7625
1278.69312	3268.1625
1282.22882	3296.4625
1285.76211	3404.1625
1289.29301	3619.2625
1292.82151	3827.7625
1296.34761	4022.4625
1299.87133	4258.4625
1303.39266	4649.1625
1306.9116	5242.7625
1310.42815	5914.0625
1313.94233	6259.5625
1317.45412	6029.5625
1320.96354	5446.5625
1324.47058	4768.3625
1327.97525	4168.2625
1331.47754	3895.0625
1334.97747	3918.3625
1338.47502	4104.9625
1341.97022	4324.0625
1345.46305	4581.6625
1348.95352	4943.1625
1352.44163	5577.7625
1355.92738	6497.8625
1359.41078	7611.8625
1362.89183	8392.4625
1366.37053	8018.3625
1369.84688	6798.8625
1373.32088	5561.6625
1376.79254	4682.6625
1380.26186	4152.9625
1383.72883	3803.0625
1387.19347	3475.8625
1390.65578	3138.7625
1394.11575	2913.4625
1397.57339	2814.7625
1401.0287	2802.9625
1404.48168	2821.0625
1407.93234	2858.0625
1411.38068	2908.3625
1414.82669	2945.2625
1418.27039	2909.9625
1421.71177	2852.8625
1425.15083	2815.9625
1428.58758	2842.5625
1432.02203	2942.4625
1435.45416	3044.6625
1438.88399	3087.7625
1442.31151	3072.3625
1445.73673	3050.1625
1449.15965	3026.2625
1452.58027	2980.0625
1455.9986	2871.9625
1459.41463	2818.7625
1462.82837	2869.5625
1466.23982	2998.6625
1469.64898	3142.8625
1473.05586	3287.8625
1476.46045	3388.0625
1479.86276	3533.5625
1483.26279	3638.5625
1486.66054	3732.0625
1490.05602	3830.3625
1493.44922	3937.4625
1496.84016	4141.2625
1500.22882	4581.3625
1503.61521	5274.4625
1506.99934	6057.8625
1510.38121	6719.3625
1513.76081	6880.8625
1517.13816	6321.5625
1520.51324	5280.2625
1523.88607	4335.7625
1527.25665	3763.3625
1530.62498	3502.7625
1533.99105	3409.5625
1537.35488	3372.2625
1540.71647	3349.9625
1544.07581	3363.2625
1547.4329	3357.7625
1550.78776	3294.1625
1554.14038	3209.9625
1557.49077	3140.0625
1560.83892	3123.3625
1564.18484	3200.3625
1567.52853	3369.7625
1570.86999	3574.9625
1574.20922	3715.6625
1577.54624	3720.8625
1580.88103	3468.7625
1584.2136	3099.0625
1587.54395	2861.0625
1590.87208	2888.5625
1594.19801	3138.0625
1597.52172	3565.7625
1600.84321	3907.3625
1604.16251	3906.2625
1607.47959	3601.3625
1610.79447	3157.5625
1614.10715	2706.4625
1617.41763	2393.2625
1620.7259	2199.1625
1624.03199	2126.8625
1627.33587	2109.0625
1630.63757	2141.9625
1633.93707	2257.2625
1637.23439	2494.5625
1640.52951	2895.2625
1643.82246	3495.2625
1647.11321	4176.2625
1650.40179	4568.5625
1653.68819	4314.1625
1656.97241	3545.3625
1660.25446	2730.3625
1663.53433	2190.0625
1666.81203	1889.5625
1670.08756	1732.0625
1673.36092	1648.0625
1676.63211	1604.4625
1679.90115	1561.5625
1683.16801	1528.9625
1686.43272	1485.1625
1689.69527	1446.6625
1692.95567	1381.3625
1696.2139	1282.0625
1699.46999	1177.0625
1702.72392	1151.8625
1705.97571	1229.7625
1709.22535	1310.5625
1712.47284	1380.9625
1715.71819	1416.4625
1718.96139	1443.6625
1722.20246	1434.4625
1725.44139	1430.2625
1728.67818	1409.3625
1731.91284	1393.7625
1735.14537	1364.3625
1738.37576	1355.2625
1741.60403	1338.9625
1744.83017	1308.6625
1748.05418	1284.2625
1751.27607	1247.6625
1754.49584	1206.8625
1757.71349	1150.6625
1760.92903	1103.2625
1764.14244	1086.5625
1767.35375	1099.3625
1770.56294	1094.5625
1773.77002	1105.0625
1776.97499	1148.7625
1780.17785	1204.3625
1783.37861	1226.1625
1786.57727	1239.1625
1789.77382	1242.2625
1792.96828	1250.4625
1796.16064	1253.9625
1799.3509	1255.1625
1802.53907	1248.1625
1805.72514	1248.9625
1808.90913	1243.0625
1812.09102	1231.4625
1815.27083	1223.9625
1818.44856	1223.2625
1821.6242	1215.1625
1824.79776	1208.6625
1827.96924	1206.7625
1831.13864	1210.4625
1834.30597	1208.1625
1837.47122	1201.3625
1840.6344	1194.4625
1843.7955	1189.2625
1846.95454	1191.8625
1850.11151	1191.9625
1853.26642	1184.7625
1856.41926	1187.1625
1859.57004	1186.2625
1862.71876	1177.7625
1865.86542	1175.2625
1869.01003	1176.0625
1872.15258	1174.3625
1875.29308	1169.9625
1878.43152	1167.0625
1881.56792	1167.7625
1884.70227	1166.7625
1887.83457	1161.3625
1890.96482	1165.7625
1894.09304	1149.2625
1897.21921	1153.7625
1900.34335	1150.8625
1903.46544	1151.4625
1906.58551	1152.5625
1909.70353	1144.9625
1912.81953	1137.0625
1915.93349	1143.9625
1919.04543	1138.4625
1922.15534	1136.9625
1925.26322	1135.2625
1928.36908	1128.2625
1931.47292	1123.3625
1934.57473	1117.1625
1937.67453	1112.9625
1940.77232	1109.9625
1943.86808	1098.8625
1946.96184	1109.1625
1950.05358	1108.1625
1953.14331	1088.7625
1956.23103	1089.4625
1959.31675	1074.5625
1962.40046	1083.4625
1965.48217	1078.2625
1968.56188	1076.5625
1971.63959	1072.1625
1974.7153	1073.8625
1977.78901	1065.5625
1980.86073	1061.9625
1983.93046	1053.9625
1986.99819	1045.8625
1990.06394	1044.1625
1993.1277	1040.2625
1996.18947	1033.4625
1999.24925	1026.2625
2002.30706	1026.2625
2005.36288	1021.5625
2008.41672	1018.1625
2011.46859	999.8625
2014.51848	1006.0625
2017.56639	1000.9625
2020.61233	992.4625
2023.6563	1001.4625
2026.6983	986.9625
2029.73833	994.4625
2032.7764	975.6625
2035.8125	981.2625
2038.84664	978.0625
2041.87881	979.5625
2044.90903	971.7625
2047.93729	967.4625
2050.96359	961.7625
2053.98794	963.0625
2057.01034	966.4625
2060.03078	957.8625
2063.04927	960.6625
2066.06582	958.8625
2069.08042	956.8625
2072.09307	959.3625
2075.10378	949.9625
2078.11255	952.4625
2081.11938	951.5625
2084.12426	947.0625
2087.12722	947.7625
2090.12824	953.1625
2093.12732	939.3625
2096.12447	942.3625
2099.11969	937.0625
2102.11299	938.5625
2105.10435	943.5625
2108.09379	941.5625
2111.08131	940.3625
2114.0669	937.4625
2117.05057	935.6625
2120.03233	930.7625
2123.01216	934.3625
2125.99008	932.6625
2128.96609	942.9625
2131.94018	936.9625
2134.91236	926.1625
2137.88263	926.5625
2140.851	933.1625
2143.81746	936.4625
2146.78201	918.8625
2149.74466	925.6625
2152.7054	917.1625
2155.66425	911.8625
2158.6212	921.3625
2161.57625	908.9625
2164.52941	910.6625
2167.48067	917.7625
2170.43004	910.3625
2173.37752	908.1625
2176.32311	913.6625
2179.26681	907.8625
2182.20863	907.0625
2185.14856	911.1625
2188.08661	900.4625
2191.02278	905.7625
2193.95707	899.7625
2196.88948	905.7625
2199.82001	898.4625
2202.74867	900.7625
2205.67545	894.3625
2208.60037	886.7625
2211.52341	884.4625
2214.44458	882.3625
2217.36388	884.9625
2220.28132	880.8625
2223.1969	872.9625
2226.11061	868.3625
2229.02246	865.0625
2231.93245	863.1625
2234.84058	866.6625
2237.74686	864.3625
2240.65128	857.8625
2243.55385	862.6625
2246.45456	863.3625
2249.35343	852.5625
2252.25044	856.6625
2255.14561	846.6625
2258.03893	841.6625
2260.93041	822.7625
2263.82004	827.3625
2266.70783	844.8625
2269.59378	841.0625
2272.4779	837.4625
2275.36017	837.9625
2278.24061	836.6625
2281.11922	835.3625
2283.996	829.5625
2286.87094	823.5625
2289.74405	822.5625
2292.61534	818.8625
2295.4848	818.9625
2298.35243	811.6625
2301.21824	811.5625
2304.08223	815.9625
2306.94439	809.4625
2309.80474	807.7625
2312.66327	814.9625
2315.51999	800.3625
2318.37489	805.1625
2321.22797	801.6625
2324.07925	798.5625
2326.92871	795.9625
2329.77637	798.1625
2332.62222	791.6625
2335.46626	795.2625
2338.3085	788.4625
2341.14893	779.7625
2343.98756	783.8625
2346.8244	784.8625
2349.65943	781.1625
2352.49267	791.3625
2355.32411	788.7625
2358.15376	800.4625
2360.98161	795.5625
2363.80768	795.5625
2366.63195	807.1625
2369.45444	808.5625
2372.27514	806.8625
2375.09405	803.5625
2377.91118	804.2625
2380.72652	799.3625
2383.54009	793.1625
2386.35187	792.9625
2389.16188	785.9625
2391.97011	773.9625
2394.77657	773.3625
2397.58125	764.2625
2400.38416	767.7625
2403.18529	761.9625
2405.98466	761.6625
2408.78226	750.4625
2411.57809	754.9625
2414.37216	754.4625
2417.16446	752.4625
2419.955	742.2625
2422.74378	753.3625
2425.5308	748.6625
2428.31606	750.0625
2431.09956	754.1625
2433.88131	746.1625
2436.6613	749.9625
2439.43954	747.9625
2442.21603	753.6625
2444.99077	755.1625
2447.76377	758.1625
2450.53501	761.2625
2453.30451	758.0625
2456.07226	754.6625
2458.83827	757.7625
2461.60254	752.4625
2464.36507	745.7625
2467.12586	744.2625
2469.88492	749.6625
2472.64224	742.5625
2475.39782	738.3625
2478.15167	726.1625
2480.90379	749.3625
2483.65417	748.5625
2486.40283	763.4625
2489.14976	767.2625
2491.89497	767.3625
2494.63845	755.2625
2497.3802	742.1625
2500.12024	758.0625
2502.85855	753.6625
2505.59514	758.9625
2508.33002	749.4625
2511.06318	749.4625
2513.79462	738.9625
2516.52435	729.9625
2519.25237	728.1625
2521.97867	723.5625
2524.70327	719.8625
2527.42616	720.5625
2530.14734	719.9625
2532.86681	721.7625
2535.58458	721.3625
2538.30065	719.9625
2541.01501	720.8625
2543.72768	721.9625
2546.43864	723.5625
2549.14791	723.1625
2551.85548	725.4625
2554.56136	716.8625
2557.26554	721.3625
2559.96803	721.3625
2562.66883	720.4625
2565.36794	713.5625
2568.06536	729.8625
2570.7611	718.8625
2573.45514	713.1625
2576.14751	720.8625
2578.83819	713.6625
2581.52719	717.3625
2584.21451	707.9625
2586.90015	712.1625
2589.58411	704.2625
2592.2664	706.7625
2594.94701	707.2625
2597.62594	702.3625
2600.30321	696.4625
2602.9788	706.1625
2605.65273	705.4625
2608.32498	707.2625
2610.99557	705.5625
2613.66449	704.9625
2616.33175	705.5625
2618.99734	706.2625
2621.66128	700.7625
2624.32355	694.4625
2626.98416	700.0625
2629.64311	697.8625
2632.30041	695.2625
2634.95605	694.1625
2637.61004	686.3625
2640.26238	685.6625
2642.91306	693.8625
2645.56209	689.7625
2648.20948	675.7625
2650.85521	681.6625
2653.4993	684.4625
2656.14175	688.4625
2658.78255	689.8625
2661.42171	692.0625
2664.05923	693.0625
2666.6951	706.8625
2669.32934	716.1625
2671.96194	706.9625
2674.59291	708.5625
2677.22224	703.4625
2679.84993	711.8625
2682.476	710.5625
2685.10043	714.6625
2687.72324	712.1625
2690.34441	713.4625
2692.96396	712.5625
2695.58188	712.3625
2698.19818	712.6625
2700.81285	715.1625
2703.4259	684.1625
2706.03733	594.5625
2708.64714	642.5625
2711.25533	683.7625
2713.86191	710.3625
2716.46687	717.3625
2719.07021	735.5625
2721.67194	741.9625
2724.27206	743.3625
2726.87057	745.3625
2729.46747	741.7625
2732.06276	746.9625
2734.65644	740.5625
2737.24852	736.8625
2739.83899	741.7625
2742.42786	741.8625
2745.01513	742.4625
2747.60079	745.9625
2750.18486	738.2625
2752.76733	737.7625
2755.3482	748.4625
2757.92747	740.6625
2760.50515	744.8625
2763.08123	746.8625
2765.65573	743.8625
2768.22863	748.0625
2770.79994	746.7625
2773.36967	757.6625
2775.9378	759.0625
2778.50435	766.4625
2781.06932	774.5625
2783.6327	783.1625
2786.1945	785.2625
2788.75471	793.7625
2791.31335	803.7625
2793.87041	800.9625
2796.42589	809.8625
2798.97979	820.6625
2801.53212	824.3625
2804.08288	833.0625
2806.63206	843.9625
2809.17967	851.0625
2811.72571	861.4625
2814.27018	870.6625
2816.81308	871.0625
2819.35442	884.1625
2821.89419	892.8625
2824.43239	893.4625
2826.96904	888.3625
2829.50412	897.3625
2832.03763	892.5625
2834.56959	899.8625
2837.1	902.3625
2839.62884	918.5625
2842.15613	930.0625
2844.68186	947.7625
2847.20604	969.9625
2849.72867	982.2625
2852.24974	995.1625
2854.76927	990.3625
2857.28724	950.6625
2859.80367	964.4625
2862.31855	974.9625
2864.83189	971.2625
2867.34368	966.3625
2869.85393	970.4625
2872.36264	970.6625
2874.8698	971.2625
2877.37543	957.7625
2879.87952	953.6625
2882.38207	947.5625
2884.88308	946.3625
2887.38256	947.3625
2889.88051	940.4625
2892.37692	947.4625
2894.8718	937.7625
2897.36515	953.1625
2899.85698	942.0625
2902.34727	942.8625
2904.83604	937.7625
2907.32328	939.9625
2909.809	931.1625
2912.29319	937.8625
2914.77587	930.5625
2917.25702	928.3625
2919.73665	923.2625
2922.21476	925.1625
2924.69136	915.3625
2927.16644	910.3625
2929.64	905.0625
2932.11205	900.9625
2934.58258	887.0625
2937.05161	877.1625
2939.51912	865.1625
2941.98513	845.2625
2944.44962	822.7625
2946.91261	808.8625
2949.37409	799.0625
2951.83407	785.6625
2954.29254	774.9625
2956.74951	768.0625
2959.20498	764.4625
2961.65895	752.3625
2964.11142	743.3625
2966.56239	750.2625
2969.01186	738.8625
2971.45984	726.5625
2973.90632	722.8625
2976.35131	719.3625
2978.7948	717.6625
2981.23681	710.0625
2983.67732	705.4625
2986.11635	696.7625
2988.55388	691.8625
2990.98993	691.6625
2993.4245	684.2625
2995.85758	681.1625
2998.28917	674.8625
3000.71928	676.2625
3003.14791	669.1625
3005.57506	669.2625
3008.00073	669.4625
3010.42493	673.3625
3012.84764	672.9625
3015.26888	668.2625
3017.68865	666.8625
3020.10694	673.6625
3022.52376	665.9625
3024.9391	663.6625
3027.35298	666.6625
3029.76539	659.1625
3032.17632	667.1625
3034.5858	662.6625
3036.9938	665.2625
3039.40034	664.7625
3041.80542	664.8625
3044.20903	661.8625
3046.61118	665.6625
3049.01187	666.4625
3051.4111	660.3625
3053.80888	669.5625
3056.20519	675.4625
3058.60005	673.3625
3060.99345	674.9625
3063.3854	671.1625
3065.7759	673.9625
3068.16494	680.6625
3070.55254	677.7625
3072.93868	670.9625
3075.32338	671.8625
3077.70662	667.2625
3080.08842	674.0625
3082.46878	667.2625
3084.84769	668.0625
3087.22515	671.3625
3089.60118	674.1625
3091.97576	679.4625
3094.3489	678.5625
3096.72061	676.1625
3099.09087	683.2625
3101.4597	682.3625
3103.82709	683.5625
3106.19305	686.3625
3108.55757	691.3625
3110.92066	683.1625
3113.28232	690.3625
3115.64255	694.4625
3118.00134	689.4625
3120.35871	698.1625
3122.71466	705.0625
3125.06917	703.2625
3127.42226	708.2625
3129.77393	711.0625
3132.12417	714.0625
3134.47299	719.9625
3136.82039	721.5625
3139.16636	724.2625
3141.51092	735.0625
3143.85406	736.9625
3146.19579	740.7625
3148.53609	749.6625
3150.87499	747.3625
3153.21246	753.3625
3155.54853	766.8625
3157.88318	767.5625
3160.21642	768.9625
3162.54826	769.6625
3164.87868	782.5625
3167.2077	776.4625
3169.5353	783.6625
3171.86151	790.8625
3174.18631	793.7625
3176.5097	792.7625
3178.83169	797.3625
3181.15228	802.6625
3183.47147	808.1625
3185.78926	810.2625
3188.10565	819.0625
3190.42065	824.3625
3192.73424	822.9625
3195.04645	820.7625
3197.35725	832.5625
3199.66667	836.6625
3201.97469	834.9625
3204.28132	840.7625
3206.58656	842.3625
3208.8904	848.4625
3211.19287	852.3625
3213.49394	858.7625
3215.79363	859.5625
3218.09193	855.7625
3220.38884	838.9625
3222.68438	820.2625
3224.97853	845.6625
3227.2713	861.8625
3229.56269	865.7625
3231.8527	864.9625
3234.14133	868.8625
3236.42858	869.6625
3238.71446	870.8625
3240.99896	868.2625
3243.28209	874.1625
3245.56384	879.1625
3247.84423	875.5625
3250.12324	872.2625
3252.40088	871.9625
3254.67715	872.1625
3256.95205	872.8625
3259.22558	882.0625
3261.49775	873.4625
3263.76855	876.3625
3266.03799	882.6625
3268.30606	877.7625
3270.57277	871.8625
3272.83812	872.8625
3275.10211	876.9625
3277.36474	874.2625
3279.62601	875.2625
3281.88593	873.2625
3284.14448	872.0625
3286.40168	879.0625
3288.65753	876.2625
3290.91202	875.2625
3293.16516	874.1625
3295.41695	872.1625
3297.66738	868.6625
3299.91647	863.9625
3302.16421	855.2625
3304.4106	850.8625
3306.65564	850.4625
3308.89933	844.1625
3311.14169	835.9625
3313.38269	808.9625
3315.62236	813.0625
3317.86068	817.7625
3320.09766	812.2625
3322.3333	805.8625
3324.5676	798.9625
3326.80056	752.5625
3329.03219	756.2625
3331.26248	0.2625
3333.49143	0.3625
3335.71905	1.1625
