Data from AgNPs_FTO_APTES_UA_50uM_CRN_2uM_R6G_10uM_NaF_0.1M_Addition_RamanShift__12__12-08-04-773.txt Node

Date: Mon Feb 21 12:08:04 GMT 2022
User: TCL
Spectrometer: QEP01345
Trigger mode: 4
Integration Time (sec): 7.000000E0
Scans to average: 10
Electric dark correction enabled: true
Nonlinearity correction enabled: false
Boxcar width: 0
XAxis mode: Raman Shifts
Number of Pixels in Spectrum: 1044
>>>>>Begin Spectral Data<<<<<
46.04893	1.8625
50.45542	-0.9375
54.85868	-1.8375
59.25871	-0.8375
63.6555	68.9625
68.04907	76.4625
72.43941	76.3625
76.82654	78.4625
81.21044	81.4625
85.59113	86.3625
89.96862	88.4625
94.34289	95.8625
98.71396	91.5625
103.08183	100.8625
107.4465	97.6625
111.80798	102.0625
116.16626	101.7625
120.52136	103.4625
124.87327	111.6625
129.222	113.9625
133.56755	119.2625
137.90993	135.9625
142.24913	141.5625
146.58517	155.3625
150.91804	180.6625
155.24774	214.7625
159.57429	260.8625
163.89768	332.4625
168.21792	445.4625
172.53501	605.6625
176.84895	838.7625
181.15975	1183.2625
185.46741	1665.7625
189.77193	2297.9625
194.07331	3080.4625
198.37157	3975.0625
202.6667	4918.3625
206.9587	5847.7625
211.24758	6764.3625
215.53334	7652.7625
219.81599	8617.3625
224.09553	9634.3625
228.37195	10769.9625
232.64527	12092.5625
236.91549	13442.3625
241.18261	14815.6625
245.44663	16144.6625
249.70755	17345.6625
253.96539	18385.1625
258.22014	19265.4625
262.4718	19963.2625
266.72039	20385.2625
270.96589	20614.8625
275.20832	20614.6625
279.44768	20480.9625
283.68397	20289.3625
287.91719	20085.9625
292.14735	19929.8625
296.37445	19839.8625
300.59849	19826.7625
304.81948	19846.4625
309.03742	19828.6625
313.25231	19760.4625
317.46415	19503.9625
321.67296	19223.3625
325.87872	18899.7625
330.08145	18771.3625
334.28114	18801.3625
338.47781	18883.5625
342.67145	19092.6625
346.86207	19345.1625
351.04966	19658.7625
355.23424	19986.0625
359.4158	20322.3625
363.59435	20540.9625
367.76989	20763.9625
371.94243	20823.9625
376.11196	20889.1625
380.27849	20942.9625
384.44203	20971.7625
388.60257	21144.4625
392.76012	21322.8625
396.91468	21610.0625
401.06626	21935.6625
405.21485	22166.8625
409.36047	22148.3625
413.50311	21942.8625
417.64277	21763.0625
421.77947	21783.0625
425.9132	21817.0625
430.04396	21930.8625
434.17176	22048.7625
438.2966	22211.1625
442.41849	22454.8625
446.53742	22801.7625
450.6534	23199.7625
454.76644	23505.8625
458.87653	23689.7625
462.98368	23726.2625
467.08789	23652.6625
471.18916	23528.0625
475.2875	23330.1625
479.38291	23156.1625
483.4754	23128.2625
487.56496	23024.4625
491.6516	22798.2625
495.73531	22593.7625
499.81612	22519.5625
503.89401	22540.3625
507.96899	22624.5625
512.04106	22651.1625
516.11023	22585.6625
520.1765	22493.5625
524.23987	22360.2625
528.30034	22185.2625
532.35792	22010.0625
536.41261	21887.6625
540.46441	21733.0625
544.51333	21769.7625
548.55936	21876.5625
552.60252	22233.4625
556.64279	22567.5625
560.6802	22867.9625
564.71473	23084.1625
568.7464	23443.0625
572.7752	24048.2625
576.80114	24784.5625
580.82422	25359.4625
584.84444	25903.0625
588.86181	26480.6625
592.87633	27020.2625
596.888	27052.8625
600.89682	26466.8625
604.9028	26326.2625
608.90594	27412.1625
612.90624	28634.2625
616.90371	27148.6625
620.89834	24172.3625
624.89015	22813.7625
628.87913	22757.0625
632.86528	22944.5625
636.84862	23081.3625
640.82913	22764.3625
644.80683	22313.2625
648.78172	22017.1625
652.75379	21980.3625
656.72306	22113.2625
660.68952	22408.8625
664.65319	22416.6625
668.61405	22223.6625
672.57211	22174.8625
676.52738	22268.7625
680.47986	22267.5625
684.42955	22166.1625
688.37646	22101.2625
692.32058	22216.1625
696.26192	22378.6625
700.20048	22588.0625
704.13626	22722.7625
708.06928	22851.5625
711.99952	22825.9625
715.927	22731.1625
719.85171	22711.4625
723.77365	22617.7625
727.69284	22376.6625
731.60928	22143.0625
735.52295	22008.9625
739.43388	21947.7625
743.34206	22027.3625
747.24749	22131.2625
751.15017	22304.6625
755.05012	22601.0625
758.94733	23052.2625
762.8418	23806.8625
766.73354	25040.4625
770.62254	26188.1625
774.50882	26397.2625
778.39237	25557.6625
782.27321	24368.6625
786.15132	23359.7625
790.02671	22691.6625
793.89938	22304.9625
797.76935	22077.0625
801.6366	22015.4625
805.50115	21931.2625
809.36299	21862.5625
813.22213	21763.6625
817.07857	21745.7625
820.93231	21683.9625
824.78336	21675.0625
828.63172	21610.9625
832.47738	21563.1625
836.32036	21530.8625
840.16066	21547.4625
843.99827	21569.4625
847.8332	21604.3625
851.66546	21654.3625
855.49504	21614.6625
859.32195	21663.5625
863.1462	21629.2625
866.96777	21646.7625
870.78668	21615.8625
874.60293	21657.4625
878.41652	21659.1625
882.22745	21767.3625
886.03573	21788.2625
889.84136	21830.9625
893.64433	21747.1625
897.44466	21680.6625
901.24235	21675.2625
905.0374	21665.6625
908.8298	21583.6625
912.61957	21664.3625
916.40671	21754.8625
920.19121	21949.3625
923.97308	22129.2625
927.75233	22131.1625
931.52895	21991.6625
935.30295	21717.5625
939.07433	21441.7625
942.84309	21198.5625
946.60924	21134.8625
950.37278	21045.3625
954.13371	21021.5625
957.89203	21025.5625
961.64774	21000.3625
965.40086	21000.3625
969.15137	20992.1625
972.89929	20928.9625
976.64461	20836.6625
980.38733	20850.3625
984.12747	20850.5625
987.86502	20887.4625
991.59999	20978.4625
995.33237	21130.9625
999.06217	21322.8625
1002.78939	21585.6625
1006.51404	21896.3625
1010.23611	22223.9625
1013.95561	22460.1625
1017.67255	22497.9625
1021.38692	22332.8625
1025.09872	22080.2625
1028.80796	21892.8625
1032.51465	21810.3625
1036.21877	21779.6625
1039.92035	21891.5625
1043.61937	21977.8625
1047.31584	22057.9625
1051.00976	22046.4625
1054.70114	22124.1625
1058.38998	22201.7625
1062.07627	22418.9625
1065.76003	22675.5625
1069.44126	22952.1625
1073.11995	23322.2625
1076.79611	23612.6625
1080.46974	23752.2625
1084.14085	23878.0625
1087.80943	24048.8625
1091.47549	24232.4625
1095.13903	24325.0625
1098.80005	24096.7625
1102.45857	23698.6625
1106.11456	23263.9625
1109.76805	23007.9625
1113.41903	22930.9625
1117.06751	22941.3625
1120.71348	23115.7625
1124.35696	23299.5625
1127.99793	23552.6625
1131.63641	23628.2625
1135.2724	23620.3625
1138.90589	23597.2625
1142.5369	23622.3625
1146.16542	23656.8625
1149.79145	23792.6625
1153.415	24004.0625
1157.03607	24131.4625
1160.65467	24515.5625
1164.27079	25173.5625
1167.88443	25973.8625
1171.49561	26958.2625
1175.10432	28152.6625
1178.71056	29693.7625
1182.31434	31071.4625
1185.91565	31895.6625
1189.51451	32168.1625
1193.11091	31943.6625
1196.70485	31281.3625
1200.29634	30372.3625
1203.88538	29657.4625
1207.47197	29183.2625
1211.05612	28857.8625
1214.63782	28443.7625
1218.21708	27922.0625
1221.79391	27333.5625
1225.36829	26859.3625
1228.94024	26548.3625
1232.50976	26395.7625
1236.07685	26267.0625
1239.6415	26148.9625
1243.20374	26189.1625
1246.76355	26313.6625
1250.32093	26558.4625
1253.8759	26878.6625
1257.42845	27436.9625
1260.97859	28073.0625
1264.52631	28743.9625
1268.07163	29416.4625
1271.61453	29967.3625
1275.15503	30524.7625
1278.69312	31219.7625
1282.22882	31864.9625
1285.76211	32654.5625
1289.29301	33505.0625
1292.82151	34490.0625
1296.34761	35538.3625
1299.87133	36824.2625
1303.39266	38069.3625
1306.9116	39318.1625
1310.42815	40204.6625
1313.94233	40646.8625
1317.45412	40535.1625
1320.96354	40185.6625
1324.47058	39881.8625
1327.97525	39716.3625
1331.47754	39687.0625
1334.97747	39746.1625
1338.47502	39813.7625
1341.97022	39901.6625
1345.46305	39946.8625
1348.95352	39946.3625
1352.44163	39846.1625
1355.92738	39937.9625
1359.41078	40403.4625
1362.89183	40966.1625
1366.37053	40432.1625
1369.84688	38293.1625
1373.32088	35467.9625
1376.79254	33293.7625
1380.26186	32229.7625
1383.72883	31968.4625
1387.19347	31785.7625
1390.65578	31470.8625
1394.11575	31166.8625
1397.57339	31153.0625
1401.0287	31259.8625
1404.48168	31401.0625
1407.93234	31211.7625
1411.38068	30908.9625
1414.82669	30212.5625
1418.27039	29444.5625
1421.71177	28672.5625
1425.15083	28120.6625
1428.58758	27814.2625
1432.02203	27923.8625
1435.45416	28315.6625
1438.88399	28807.6625
1442.31151	29189.0625
1445.73673	29453.4625
1449.15965	29646.6625
1452.58027	29934.5625
1455.9986	30037.6625
1459.41463	30344.2625
1462.82837	30752.1625
1466.23982	31164.9625
1469.64898	31573.9625
1473.05586	31827.2625
1476.46045	31854.6625
1479.86276	31873.8625
1483.26279	31870.5625
1486.66054	31921.2625
1490.05602	32126.0625
1493.44922	32586.5625
1496.84016	33271.1625
1500.22882	34087.0625
1503.61521	35053.7625
1506.99934	36019.3625
1510.38121	36676.3625
1513.76081	36700.4625
1517.13816	36002.3625
1520.51324	35179.2625
1523.88607	34515.7625
1527.25665	34105.3625
1530.62498	33820.8625
1533.99105	33449.9625
1537.35488	32932.9625
1540.71647	32293.8625
1544.07581	31568.3625
1547.4329	30894.6625
1550.78776	30370.0625
1554.14038	30021.3625
1557.49077	29891.0625
1560.83892	29853.6625
1564.18484	29911.0625
1567.52853	29975.0625
1570.86999	30173.1625
1574.20922	30576.1625
1577.54624	30895.4625
1580.88103	30942.1625
1584.2136	30883.1625
1587.54395	31292.9625
1590.87208	32157.0625
1594.19801	33288.2625
1597.52172	34395.6625
1600.84321	34520.2625
1604.16251	33449.0625
1607.47959	31794.5625
1610.79447	30018.0625
1614.10715	28235.9625
1617.41763	26719.3625
1620.7259	25606.7625
1624.03199	25002.1625
1627.33587	24901.0625
1630.63757	25253.4625
1633.93707	26413.2625
1637.23439	28274.1625
1640.52951	30979.9625
1643.82246	34179.6625
1647.11321	36840.3625
1650.40179	37529.1625
1653.68819	35736.6625
1656.97241	32154.6625
1660.25446	28478.7625
1663.53433	25606.9625
1666.81203	23727.0625
1670.08756	22580.0625
1673.36092	21828.7625
1676.63211	21367.0625
1679.90115	21023.7625
1683.16801	20776.6625
1686.43272	20593.5625
1689.69527	20434.4625
1692.95567	20224.4625
1696.2139	20047.9625
1699.46999	19867.4625
1702.72392	19815.6625
1705.97571	19886.4625
1709.22535	19954.3625
1712.47284	19945.4625
1715.71819	20004.2625
1718.96139	19946.1625
1722.20246	19902.9625
1725.44139	19829.3625
1728.67818	19791.0625
1731.91284	19665.0625
1735.14537	19582.9625
1738.37576	19515.8625
1741.60403	19438.9625
1744.83017	19344.7625
1748.05418	19320.7625
1751.27607	19216.1625
1754.49584	19125.1625
1757.71349	19062.8625
1760.92903	19029.4625
1764.14244	19021.3625
1767.35375	19014.0625
1770.56294	18972.4625
1773.77002	18997.6625
1776.97499	18977.2625
1780.17785	19018.6625
1783.37861	19058.1625
1786.57727	19002.9625
1789.77382	19005.0625
1792.96828	18994.0625
1796.16064	18993.1625
1799.3509	18917.0625
1802.53907	18898.2625
1805.72514	18846.5625
1808.90913	18795.5625
1812.09102	18734.9625
1815.27083	18743.9625
1818.44856	18705.8625
1821.6242	18709.7625
1824.79776	18697.0625
1827.96924	18656.1625
1831.13864	18642.2625
1834.30597	18648.4625
1837.47122	18677.0625
1840.6344	18683.5625
1843.7955	18681.8625
1846.95454	18615.3625
1850.11151	18616.6625
1853.26642	18613.3625
1856.41926	18584.1625
1859.57004	18601.7625
1862.71876	18578.8625
1865.86542	18556.4625
1869.01003	18523.5625
1872.15258	18491.6625
1875.29308	18507.0625
1878.43152	18469.7625
1881.56792	18435.7625
1884.70227	18431.4625
1887.83457	18381.3625
1890.96482	18345.3625
1894.09304	18304.1625
1897.21921	18352.1625
1900.34335	18232.0625
1903.46544	18244.4625
1906.58551	18236.1625
1909.70353	18210.2625
1912.81953	18181.3625
1915.93349	18188.6625
1919.04543	18115.1625
1922.15534	18107.2625
1925.26322	18056.4625
1928.36908	18031.2625
1931.47292	17974.7625
1934.57473	17956.7625
1937.67453	17959.9625
1940.77232	17902.1625
1943.86808	17817.0625
1946.96184	17798.1625
1950.05358	17725.3625
1953.14331	17687.6625
1956.23103	17631.9625
1959.31675	17576.7625
1962.40046	17518.3625
1965.48217	17434.7625
1968.56188	17412.4625
1971.63959	17363.4625
1974.7153	17306.2625
1977.78901	17308.5625
1980.86073	17256.2625
1983.93046	17158.3625
1986.99819	17094.9625
1990.06394	17066.3625
1993.1277	17038.1625
1996.18947	16986.0625
1999.24925	16931.4625
2002.30706	16859.4625
2005.36288	16847.9625
2008.41672	16821.5625
2011.46859	16744.7625
2014.51848	16736.0625
2017.56639	16655.6625
2020.61233	16599.8625
2023.6563	16606.9625
2026.6983	16535.3625
2029.73833	16521.7625
2032.7764	16430.4625
2035.8125	16385.4625
2038.84664	16369.4625
2041.87881	16349.7625
2044.90903	16335.3625
2047.93729	16299.1625
2050.96359	16259.4625
2053.98794	16237.5625
2057.01034	16228.5625
2060.03078	16232.0625
2063.04927	16205.4625
2066.06582	16210.2625
2069.08042	16189.6625
2072.09307	16170.9625
2075.10378	16158.4625
2078.11255	16200.9625
2081.11938	16208.1625
2084.12426	16174.1625
2087.12722	16178.2625
2090.12824	16160.3625
2093.12732	16155.3625
2096.12447	16123.4625
2099.11969	16132.4625
2102.11299	16140.4625
2105.10435	16164.8625
2108.09379	16171.2625
2111.08131	16160.5625
2114.0669	16182.6625
2117.05057	16228.3625
2120.03233	16231.1625
2123.01216	16215.6625
2125.99008	16267.1625
2128.96609	16274.3625
2131.94018	16291.7625
2134.91236	16262.6625
2137.88263	16280.1625
2140.851	16295.4625
2143.81746	16313.9625
2146.78201	16320.0625
2149.74466	16274.7625
2152.7054	16295.5625
2155.66425	16310.1625
2158.6212	16296.5625
2161.57625	16291.4625
2164.52941	16296.6625
2167.48067	16246.5625
2170.43004	16274.6625
2173.37752	16247.5625
2176.32311	16245.4625
2179.26681	16261.3625
2182.20863	16256.4625
2185.14856	16304.4625
2188.08661	16234.8625
2191.02278	16260.8625
2193.95707	16230.8625
2196.88948	16210.7625
2199.82001	16167.2625
2202.74867	16173.7625
2205.67545	16152.5625
2208.60037	16148.4625
2211.52341	16132.5625
2214.44458	16073.8625
2217.36388	16052.8625
2220.28132	15994.9625
2223.1969	15983.5625
2226.11061	15962.1625
2229.02246	15915.6625
2231.93245	15900.1625
2234.84058	15869.5625
2237.74686	15874.5625
2240.65128	15852.1625
2243.55385	15837.2625
2246.45456	15812.8625
2249.35343	15814.4625
2252.25044	15760.1625
2255.14561	15746.2625
2258.03893	15723.2625
2260.93041	15666.5625
2263.82004	15651.4625
2266.70783	15643.0625
2269.59378	15569.8625
2272.4779	15564.5625
2275.36017	15519.2625
2278.24061	15494.0625
2281.11922	15480.3625
2283.996	15462.3625
2286.87094	15444.1625
2289.74405	15393.7625
2292.61534	15391.0625
2295.4848	15342.2625
2298.35243	15330.9625
2301.21824	15303.4625
2304.08223	15305.2625
2306.94439	15313.4625
2309.80474	15296.1625
2312.66327	15267.8625
2315.51999	15276.9625
2318.37489	15264.0625
2321.22797	15218.0625
2324.07925	15232.3625
2326.92871	15171.5625
2329.77637	15188.0625
2332.62222	15169.0625
2335.46626	15128.2625
2338.3085	15098.2625
2341.14893	15103.1625
2343.98756	15098.8625
2346.8244	15112.1625
2349.65943	15084.3625
2352.49267	15059.6625
2355.32411	15095.5625
2358.15376	15057.6625
2360.98161	15061.1625
2363.80768	15047.6625
2366.63195	15025.2625
2369.45444	15005.8625
2372.27514	15008.8625
2375.09405	15008.1625
2377.91118	14959.0625
2380.72652	14936.7625
2383.54009	14920.3625
2386.35187	14932.0625
2389.16188	14858.5625
2391.97011	14869.0625
2394.77657	14817.6625
2397.58125	14819.0625
2400.38416	14768.8625
2403.18529	14760.5625
2405.98466	14746.5625
2408.78226	14690.0625
2411.57809	14665.4625
2414.37216	14671.0625
2417.16446	14654.9625
2419.955	14649.7625
2422.74378	14643.8625
2425.5308	14616.4625
2428.31606	14605.2625
2431.09956	14614.8625
2433.88131	14622.8625
2436.6613	14616.9625
2439.43954	14564.8625
2442.21603	14589.7625
2444.99077	14585.8625
2447.76377	14582.3625
2450.53501	14552.9625
2453.30451	14539.0625
2456.07226	14551.2625
2458.83827	14522.9625
2461.60254	14509.3625
2464.36507	14450.3625
2467.12586	14440.4625
2469.88492	14412.6625
2472.64224	14454.9625
2475.39782	14424.6625
2478.15167	14417.7625
2480.90379	14454.7625
2483.65417	14450.8625
2486.40283	14426.9625
2489.14976	14408.5625
2491.89497	14411.1625
2494.63845	14428.9625
2497.3802	14407.6625
2500.12024	14433.8625
2502.85855	14400.5625
2505.59514	14407.3625
2508.33002	14372.0625
2511.06318	14400.3625
2513.79462	14376.5625
2516.52435	14335.4625
2519.25237	14313.3625
2521.97867	14286.0625
2524.70327	14269.8625
2527.42616	14288.9625
2530.14734	14292.1625
2532.86681	14269.6625
2535.58458	14280.5625
2538.30065	14252.3625
2541.01501	14243.1625
2543.72768	14217.6625
2546.43864	14187.9625
2549.14791	14214.0625
2551.85548	14199.3625
2554.56136	14135.3625
2557.26554	14101.4625
2559.96803	14084.0625
2562.66883	14066.6625
2565.36794	14060.7625
2568.06536	14051.0625
2570.7611	14026.1625
2573.45514	14002.9625
2576.14751	13985.5625
2578.83819	13956.5625
2581.52719	13949.0625
2584.21451	13927.2625
2586.90015	13898.3625
2589.58411	13874.2625
2592.2664	13869.1625
2594.94701	13870.2625
2597.62594	13836.8625
2600.30321	13832.5625
2602.9788	13795.7625
2605.65273	13770.2625
2608.32498	13818.3625
2610.99557	13778.7625
2613.66449	13787.3625
2616.33175	13745.9625
2618.99734	13756.1625
2621.66128	13705.1625
2624.32355	13691.2625
2626.98416	13676.5625
2629.64311	13656.9625
2632.30041	13682.6625
2634.95605	13612.0625
2637.61004	13590.1625
2640.26238	13610.6625
2642.91306	13593.6625
2645.56209	13615.1625
2648.20948	13586.7625
2650.85521	13579.4625
2653.4993	13593.6625
2656.14175	13587.5625
2658.78255	13620.0625
2661.42171	13591.0625
2664.05923	13609.6625
2666.6951	13621.2625
2669.32934	13616.9625
2671.96194	13634.6625
2674.59291	13621.8625
2677.22224	13625.1625
2679.84993	13628.9625
2682.476	13627.4625
2685.10043	13625.3625
2687.72324	13594.2625
2690.34441	13627.8625
2692.96396	13610.0625
2695.58188	13637.0625
2698.19818	13588.3625
2700.81285	13621.5625
2703.4259	13557.3625
2706.03733	13490.5625
2708.64714	13539.8625
2711.25533	13607.6625
2713.86191	13582.2625
2716.46687	13659.5625
2719.07021	13642.7625
2721.67194	13655.4625
2724.27206	13629.1625
2726.87057	13647.5625
2729.46747	13649.7625
2732.06276	13657.8625
2734.65644	13649.8625
2737.24852	13636.1625
2739.83899	13636.5625
2742.42786	13642.8625
2745.01513	13602.0625
2747.60079	13599.0625
2750.18486	13584.9625
2752.76733	13572.7625
2755.3482	13524.7625
2757.92747	13543.2625
2760.50515	13514.8625
2763.08123	13513.5625
2765.65573	13500.1625
2768.22863	13483.0625
2770.79994	13474.9625
2773.36967	13472.8625
2775.9378	13438.5625
2778.50435	13429.3625
2781.06932	13420.0625
2783.6327	13398.3625
2786.1945	13404.3625
2788.75471	13397.7625
2791.31335	13343.4625
2793.87041	13332.0625
2796.42589	13279.7625
2798.97979	13307.4625
2801.53212	13298.2625
2804.08288	13231.2625
2806.63206	13220.8625
2809.17967	13220.6625
2811.72571	13173.5625
2814.27018	13129.1625
2816.81308	13089.3625
2819.35442	13086.9625
2821.89419	13082.9625
2824.43239	13010.8625
2826.96904	13036.5625
2829.50412	13055.3625
2832.03763	13011.0625
2834.56959	12997.2625
2837.1	12982.5625
2839.62884	12974.7625
2842.15613	12952.9625
2844.68186	12950.0625
2847.20604	12929.2625
2849.72867	12918.5625
2852.24974	12903.4625
2854.76927	12893.5625
2857.28724	12875.8625
2859.80367	12832.9625
2862.31855	12829.0625
2864.83189	12803.4625
2867.34368	12812.9625
2869.85393	12828.8625
2872.36264	12824.8625
2874.8698	12790.4625
2877.37543	12803.7625
2879.87952	12776.2625
2882.38207	12784.8625
2884.88308	12768.1625
2887.38256	12759.9625
2889.88051	12762.3625
2892.37692	12764.0625
2894.8718	12746.0625
2897.36515	12771.7625
2899.85698	12751.6625
2902.34727	12801.0625
2904.83604	12770.3625
2907.32328	12757.3625
2909.809	12779.6625
2912.29319	12811.7625
2914.77587	12787.6625
2917.25702	12765.6625
2919.73665	12753.4625
2922.21476	12759.3625
2924.69136	12765.3625
2927.16644	12724.3625
2929.64	12736.9625
2932.11205	12726.1625
2934.58258	12689.1625
2937.05161	12694.1625
2939.51912	12716.8625
2941.98513	12677.7625
2944.44962	12638.1625
2946.91261	12657.9625
2949.37409	12683.6625
2951.83407	12634.4625
2954.29254	12626.8625
2956.74951	12633.1625
2959.20498	12640.1625
2961.65895	12613.3625
2964.11142	12621.7625
2966.56239	12612.4625
2969.01186	12611.5625
2971.45984	12576.2625
2973.90632	12568.4625
2976.35131	12531.1625
2978.7948	12546.6625
2981.23681	12487.4625
2983.67732	12484.1625
2986.11635	12435.4625
2988.55388	12427.2625
2990.98993	12387.8625
2993.4245	12382.8625
2995.85758	12365.8625
2998.28917	12329.6625
3000.71928	12283.7625
3003.14791	12268.2625
3005.57506	12248.5625
3008.00073	12209.9625
3010.42493	12194.4625
3012.84764	12187.6625
3015.26888	12187.8625
3017.68865	12166.1625
3020.10694	12159.4625
3022.52376	12137.6625
3024.9391	12113.4625
3027.35298	12096.4625
3029.76539	12112.3625
3032.17632	12104.9625
3034.5858	12040.9625
3036.9938	12048.3625
3039.40034	12051.8625
3041.80542	12026.7625
3044.20903	11976.6625
3046.61118	11968.9625
3049.01187	11952.1625
3051.4111	11928.9625
3053.80888	11903.5625
3056.20519	11884.3625
3058.60005	11855.1625
3060.99345	11853.4625
3063.3854	11805.0625
3065.7759	11797.2625
3068.16494	11787.6625
3070.55254	11713.7625
3072.93868	11705.2625
3075.32338	11660.1625
3077.70662	11657.0625
3080.08842	11652.2625
3082.46878	11599.8625
3084.84769	11602.0625
3087.22515	11585.2625
3089.60118	11577.2625
3091.97576	11569.7625
3094.3489	11596.1625
3096.72061	11574.2625
3099.09087	11591.1625
3101.4597	11584.3625
3103.82709	11552.4625
3106.19305	11537.6625
3108.55757	11545.3625
3110.92066	11498.8625
3113.28232	11492.0625
3115.64255	11452.6625
3118.00134	11427.9625
3120.35871	11396.2625
3122.71466	11383.1625
3125.06917	11370.3625
3127.42226	11292.5625
3129.77393	11330.6625
3132.12417	11312.0625
3134.47299	11301.5625
3136.82039	11279.3625
3139.16636	11264.0625
3141.51092	11299.1625
3143.85406	11298.5625
3146.19579	11317.9625
3148.53609	11303.8625
3150.87499	11278.4625
3153.21246	11283.1625
3155.54853	11314.8625
3157.88318	11301.4625
3160.21642	11316.6625
3162.54826	11283.1625
3164.87868	11310.7625
3167.2077	11286.6625
3169.5353	11289.2625
3171.86151	11287.2625
3174.18631	11295.6625
3176.5097	11244.6625
3178.83169	11225.0625
3181.15228	11221.5625
3183.47147	11182.2625
3185.78926	11161.4625
3188.10565	11170.3625
3190.42065	11137.8625
3192.73424	11132.2625
3195.04645	11094.3625
3197.35725	11093.8625
3199.66667	11089.2625
3201.97469	11119.1625
3204.28132	11104.6625
3206.58656	11107.2625
3208.8904	11138.8625
3211.19287	11133.1625
3213.49394	11130.4625
3215.79363	11114.8625
3218.09193	11117.7625
3220.38884	11082.0625
3222.68438	11107.8625
3224.97853	11114.3625
3227.2713	11084.6625
3229.56269	11088.2625
3231.8527	11087.7625
3234.14133	11060.7625
3236.42858	11028.8625
3238.71446	10997.7625
3240.99896	10934.2625
3243.28209	10926.8625
3245.56384	10927.0625
3247.84423	10951.1625
3250.12324	10916.0625
3252.40088	10932.0625
3254.67715	10905.4625
3256.95205	10903.5625
3259.22558	10906.2625
3261.49775	10869.6625
3263.76855	10874.5625
3266.03799	10847.6625
3268.30606	10844.3625
3270.57277	10789.6625
3272.83812	10790.2625
3275.10211	10774.9625
3277.36474	10768.3625
3279.62601	10750.4625
3281.88593	10705.2625
3284.14448	10719.7625
3286.40168	10733.5625
3288.65753	10727.5625
3290.91202	10704.1625
3293.16516	10654.8625
3295.41695	10643.2625
3297.66738	10577.7625
3299.91647	10535.3625
3302.16421	10483.7625
3304.4106	10417.6625
3306.65564	10362.2625
3308.89933	10273.6625
3311.14169	10217.2625
3313.38269	10124.9625
3315.62236	10070.2625
3317.86068	9968.0625
3320.09766	9912.5625
3322.3333	9846.2625
3324.5676	9788.4625
3326.80056	9605.2625
3329.03219	9581.9625
3331.26248	3.5625
3333.49143	-1.9375
3335.71905	0.7625
