EXPLAIN
TAG	CHRONOA
TITLE	LABEL	Chronoamperometry Scan	Test Identifier
DATE	LABEL	17/8/2022	Date
TIME	LABEL	15:37:16	Time
NOTES	NOTES	1	Notes...
	
PSTAT	PSTAT	IFC1010-21051	Potentiostat
VPRESTEP	POTEN	-7.50000E-001	F	Pre-step Voltage (V)
TPRESTEP	QUANT	5.00000E-001	Pre-step Delay Time (s)
VSTEP1	POTEN	-8.00000E-001	F	Step 1 Voltage (V)
TSTEP1	QUANT	3.00000E+002	Step 1 Time (s)
VSTEP2	POTEN	-7.50000E-001	F	Step 2 Voltage (V)
TSTEP2	QUANT	1.00000E+000	Step 2 Time (s)
SAMPLETIME	QUANT	1.00000E-001	Sample Period (s)
DECIMATE	TOGGLE	T	Decimate
ILIMIT	QUANT	1.00000E+000	Limit I (mA/cm^2)
IMODE	SELECTOR	1	I/E Range Mode
IRANGE	QUANT	3.00000E-001	Max Current (mA)
EQDELAY	QUANT	5.00000E+000	Equil. Time (s)
SAMPLINGMODE	SELECTOR	1	Sampling Mode
AREA	QUANT	1.00000E+000	Sample Area (cm^2)
IRCOMP	SELECTOR	0	IRComp
PFCOR	QUANT	5.00000E+001	PF Corr. (ohm)
SEQUENCER	TOGGLE	TRUE	Run as Sequence
PSTATMODEL	IQUANT	64	Pstat Model
PSTATSECTION	LABEL	IFC1010-21051	Pstat Section
PSTATSERIALNO	LABEL	21051	Pstat Serial Number
CTRLMODE	IQUANT	1	Control Mode
ELECTROMETER	IQUANT	0	RE=0 or CS=1
IESTAB	IQUANT	0	I/E Stability
CASPEED	IQUANT	4	Control Amp Speed
CONVENTION	IQUANT	1	Current Convention
ICHRANGE	IQUANT	2	Ich Range
ICHRANGEMODE	TOGGLE	T	Ich Auto Range
ICHOFFSETENABLE	TOGGLE	F	Ich Offset Enable
ICHOFFSET	QUANT	0	Ich Offset (V)
ICHFILTER	IQUANT	3	Ich Filter
VCHRANGE	IQUANT	3	Vch Range
VCHRANGEMODE	TOGGLE	T	Vch Auto Range
VCHOFFSETENABLE	TOGGLE	F	Vch Offset Enable
VCHOFFSET	QUANT	0	Vch Offset (V)
VCHFILTER	IQUANT	3	Vch Filter
IERANGELOWERLIMIT	IQUANT	4	I/E Range Lower Limit
IERANGEMODE	TOGGLE	F	I/E AutoRange
IERANGE	IQUANT	9	I/E Range
ACHSELECT	IQUANT	0	Ach Select
ACHRANGE	IQUANT	2	Ach Range
ACHOFFSETENABLE	TOGGLE	F	Ach Offset Enable
ACHOFFSET	QUANT	0	Ach Offset (V)
ACHFILTER	IQUANT	1	Ach Filter
SENSECABLEID	IQUANT	14	Sense Cable ID
PWRCABLEID	IQUANT	14	Power Cable ID
DCCALDATE	LABEL	7/12/2022	DC Calibration Date
ACCALDATE	LABEL	4/2/2018	AC Calibration Date
FRAMEWORKVERSION	QUANT	7.06	Framework Version
INSTRUMENTVERSION	LABEL	4.30	Instrument Version
CURVE	TABLE	98
	Pt	T	Vf	Im	Vu	Sig	Ach	IERange	Over	Temp
	#	s	V vs. Ref.	A	V	V	V	#	bits	deg C
	0	-0.4	-7.50827E-001	-1.69660E-004	0.00000E+000	-7.50046E-001	0.00000E+000	9	...........	1426.04
	1	-0.3	-7.51045E-001	-1.69280E-004	0.00000E+000	-7.50046E-001	0.00000E+000	9	...........	1426.04
	2	-0.2	-7.51041E-001	-1.68916E-004	0.00000E+000	-7.50046E-001	0.00000E+000	9	...........	1426.04
	3	-0.1	-7.51041E-001	-1.68507E-004	0.00000E+000	-7.50046E-001	0.00000E+000	9	...........	1426.04
	4	0	-7.51051E-001	-1.68162E-004	0.00000E+000	-7.50046E-001	0.00000E+000	9	...........	1426.04
	5	0.1	-8.01060E-001	-4.13668E-004	0.00000E+000	-8.00059E-001	0.00000E+000	9	...........	1426.04
	6	0.2	-8.01058E-001	-3.37767E-004	0.00000E+000	-8.00059E-001	0.00000E+000	9	...........	1426.04
	7	0.3	-8.01055E-001	-2.98608E-004	0.00000E+000	-8.00059E-001	0.00000E+000	9	...........	1426.04
	8	0.4	-8.01068E-001	-2.74586E-004	0.00000E+000	-8.00059E-001	0.00000E+000	9	...........	1426.04
	9	0.5	-8.01063E-001	-2.58325E-004	0.00000E+000	-8.00059E-001	0.00000E+000	9	...........	1426.04
	10	0.6	-8.01052E-001	-2.46440E-004	0.00000E+000	-8.00059E-001	0.00000E+000	9	...........	1426.04
	11	0.7	-8.01051E-001	-2.37282E-004	0.00000E+000	-8.00059E-001	0.00000E+000	9	...........	1426.04
	12	0.8	-8.01045E-001	-2.30005E-004	0.00000E+000	-8.00059E-001	0.00000E+000	9	...........	1426.04
	13	0.9	-8.01063E-001	-2.24124E-004	0.00000E+000	-8.00059E-001	0.00000E+000	9	...........	1426.04
	14	1	-8.01043E-001	-2.19160E-004	0.00000E+000	-8.00059E-001	0.00000E+000	9	...........	1426.04
	15	1.1	-8.01048E-001	-2.15037E-004	0.00000E+000	-8.00059E-001	0.00000E+000	9	...........	1426.04
	16	1.2	-8.01065E-001	-2.11402E-004	0.00000E+000	-8.00059E-001	0.00000E+000	9	...........	1426.04
	17	1.3	-8.01068E-001	-2.08145E-004	0.00000E+000	-8.00059E-001	0.00000E+000	9	...........	1426.04
	18	1.4	-8.01043E-001	-2.05362E-004	0.00000E+000	-8.00059E-001	0.00000E+000	9	...........	1426.04
	19	1.5	-8.01056E-001	-2.02990E-004	0.00000E+000	-8.00059E-001	0.00000E+000	9	...........	1426.04
	20	1.6	-8.01052E-001	-2.00736E-004	0.00000E+000	-8.00059E-001	0.00000E+000	9	...........	1426.04
	21	1.7	-8.01052E-001	-1.98601E-004	0.00000E+000	-8.00059E-001	0.00000E+000	9	...........	1426.04
	22	1.8	-8.01063E-001	-1.96835E-004	0.00000E+000	-8.00059E-001	0.00000E+000	9	...........	1425.95
	23	1.9	-8.01059E-001	-1.95125E-004	0.00000E+000	-8.00059E-001	0.00000E+000	9	...........	1425.95
	24	2	-8.01042E-001	-1.93388E-004	0.00000E+000	-8.00059E-001	0.00000E+000	9	...........	1425.95
	25	2.1	-8.01050E-001	-1.92096E-004	0.00000E+000	-8.00059E-001	0.00000E+000	9	...........	1425.95
	26	2.2	-8.01051E-001	-1.90800E-004	0.00000E+000	-8.00059E-001	0.00000E+000	9	...........	1425.95
	27	2.3	-8.01056E-001	-1.89462E-004	0.00000E+000	-8.00059E-001	0.00000E+000	9	...........	1425.95
	28	2.4	-8.01060E-001	-1.88387E-004	0.00000E+000	-8.00059E-001	0.00000E+000	9	...........	1425.95
	29	2.5	-8.01061E-001	-1.87363E-004	0.00000E+000	-8.00059E-001	0.00000E+000	9	...........	1425.95
	30	2.6	-8.01061E-001	-1.86320E-004	0.00000E+000	-8.00059E-001	0.00000E+000	9	...........	1425.95
	31	2.7	-8.01046E-001	-1.85316E-004	0.00000E+000	-8.00059E-001	0.00000E+000	9	...........	1425.95
	32	2.8	-8.01062E-001	-1.84556E-004	0.00000E+000	-8.00059E-001	0.00000E+000	9	...........	1425.95
	33	2.9	-8.01042E-001	-1.83685E-004	0.00000E+000	-8.00059E-001	0.00000E+000	9	...........	1425.95
	34	3	-8.01057E-001	-1.82862E-004	0.00000E+000	-8.00059E-001	0.00000E+000	9	...........	1425.95
	35	3.1	-8.01055E-001	-1.82032E-004	0.00000E+000	-8.00059E-001	0.00000E+000	9	...........	1425.95
	36	3.2	-8.01064E-001	-1.81444E-004	0.00000E+000	-8.00059E-001	0.00000E+000	9	...........	1425.95
	37	3.3	-8.01061E-001	-1.80797E-004	0.00000E+000	-8.00059E-001	0.00000E+000	9	...........	1425.95
	38	3.4	-8.01055E-001	-1.80156E-004	0.00000E+000	-8.00059E-001	0.00000E+000	9	...........	1425.95
	39	3.5	-8.01045E-001	-1.79374E-004	0.00000E+000	-8.00059E-001	0.00000E+000	9	...........	1425.95
	40	3.6	-8.01057E-001	-1.78846E-004	0.00000E+000	-8.00059E-001	0.00000E+000	9	...........	1425.95
	41	3.7	-8.01061E-001	-1.78376E-004	0.00000E+000	-8.00059E-001	0.00000E+000	9	...........	1425.95
	42	3.8	-8.01055E-001	-1.77866E-004	0.00000E+000	-8.00059E-001	0.00000E+000	9	...........	1425.60
	43	3.9	-8.01057E-001	-1.77330E-004	0.00000E+000	-8.00059E-001	0.00000E+000	9	...........	1425.60
	44	4	-8.01052E-001	-1.76826E-004	0.00000E+000	-8.00059E-001	0.00000E+000	9	...........	1425.60
	45	4.1	-8.01057E-001	-1.76350E-004	0.00000E+000	-8.00059E-001	0.00000E+000	9	...........	1425.60
	46	4.2	-8.01058E-001	-1.75799E-004	0.00000E+000	-8.00059E-001	0.00000E+000	9	...........	1425.60
	47	4.3	-8.01061E-001	-1.75397E-004	0.00000E+000	-8.00059E-001	0.00000E+000	9	...........	1425.60
	48	4.4	-8.01054E-001	-1.74988E-004	0.00000E+000	-8.00059E-001	0.00000E+000	9	...........	1425.60
	49	4.5	-8.01064E-001	-1.74648E-004	0.00000E+000	-8.00059E-001	0.00000E+000	9	...........	1425.60
	50	4.6	-8.01064E-001	-1.74187E-004	0.00000E+000	-8.00059E-001	0.00000E+000	9	...........	1425.60
	51	4.7	-8.01061E-001	-1.73842E-004	0.00000E+000	-8.00059E-001	0.00000E+000	9	...........	1425.60
	52	4.8	-8.01056E-001	-1.73484E-004	0.00000E+000	-8.00059E-001	0.00000E+000	9	...........	1425.78
	53	4.9	-8.01049E-001	-1.73154E-004	0.00000E+000	-8.00059E-001	0.00000E+000	9	...........	1425.78
	54	5	-8.01057E-001	-1.72711E-004	0.00000E+000	-8.00059E-001	0.00000E+000	9	...........	1425.78
	55	5.1	-8.01061E-001	-1.72467E-004	0.00000E+000	-8.00059E-001	0.00000E+000	9	...........	1425.78
	56	5.2	-8.01051E-001	-1.72039E-004	0.00000E+000	-8.00059E-001	0.00000E+000	9	...........	1425.78
	57	5.3	-8.01059E-001	-1.71850E-004	0.00000E+000	-8.00059E-001	0.00000E+000	9	...........	1425.78
	58	5.4	-8.01051E-001	-1.71453E-004	0.00000E+000	-8.00059E-001	0.00000E+000	9	...........	1425.78
	59	5.5	-8.01054E-001	-1.71141E-004	0.00000E+000	-8.00059E-001	0.00000E+000	9	...........	1425.78
	60	5.6	-8.01058E-001	-1.70814E-004	0.00000E+000	-8.00059E-001	0.00000E+000	9	...........	1425.78
	61	5.7	-8.01058E-001	-1.70706E-004	0.00000E+000	-8.00059E-001	0.00000E+000	9	...........	1425.78
	62	5.8	-8.01040E-001	-1.70311E-004	0.00000E+000	-8.00059E-001	0.00000E+000	9	...........	1425.95
	63	5.9	-8.01051E-001	-1.70027E-004	0.00000E+000	-8.00059E-001	0.00000E+000	9	...........	1425.95
	64	6	-8.01043E-001	-1.69768E-004	0.00000E+000	-8.00059E-001	0.00000E+000	9	...........	1425.95
	65	6.1	-8.01068E-001	-1.69538E-004	0.00000E+000	-8.00059E-001	0.00000E+000	9	...........	1425.95
	66	7.1	-8.01050E-001	-1.67442E-004	0.00000E+000	-8.00059E-001	0.00000E+000	9	...........	1425.95
	67	8.1	-8.01055E-001	-1.65720E-004	0.00000E+000	-8.00059E-001	0.00000E+000	9	...........	1426.04
	68	9.1	-8.01046E-001	-1.64386E-004	0.00000E+000	-8.00059E-001	0.00000E+000	9	...........	1426.04
	69	10.1	-8.01057E-001	-1.63305E-004	0.00000E+000	-8.00059E-001	0.00000E+000	9	...........	1426.04
	70	11.1	-8.01044E-001	-1.62381E-004	0.00000E+000	-8.00059E-001	0.00000E+000	9	...........	1426.04
	71	12.1	-8.01045E-001	-1.61650E-004	0.00000E+000	-8.00059E-001	0.00000E+000	9	...........	1426.04
	72	13.1	-8.01060E-001	-1.61070E-004	0.00000E+000	-8.00059E-001	0.00000E+000	9	...........	1426.04
	73	14.1	-8.01070E-001	-1.60650E-004	0.00000E+000	-8.00059E-001	0.00000E+000	9	...........	1425.95
	74	15.1	-8.01050E-001	-1.60231E-004	0.00000E+000	-8.00059E-001	0.00000E+000	9	...........	1426.04
	75	16.1	-8.01053E-001	-1.59773E-004	0.00000E+000	-8.00059E-001	0.00000E+000	9	...........	1426.04
	76	26.1	-8.01051E-001	-1.57013E-004	0.00000E+000	-8.00059E-001	0.00000E+000	9	...........	1426.04
	77	36.1	-8.01064E-001	-1.55745E-004	0.00000E+000	-8.00059E-001	0.00000E+000	9	...........	1426.04
	78	46.1	-8.01057E-001	-1.54931E-004	0.00000E+000	-8.00059E-001	0.00000E+000	9	...........	1426.04
	79	56.1	-8.01064E-001	-1.54510E-004	0.00000E+000	-8.00059E-001	0.00000E+000	9	...........	1426.04
	80	66.1	-8.01064E-001	-1.54141E-004	0.00000E+000	-8.00059E-001	0.00000E+000	9	...........	1426.04
	81	76.1	-8.01058E-001	-1.54019E-004	0.00000E+000	-8.00059E-001	0.00000E+000	9	...........	1426.13
	82	86.1	-8.01045E-001	-1.53720E-004	0.00000E+000	-8.00059E-001	0.00000E+000	9	...........	1426.04
	83	96.1	-8.01057E-001	-1.53511E-004	0.00000E+000	-8.00059E-001	0.00000E+000	9	...........	1426.04
	84	106.1	-8.01052E-001	-1.53359E-004	0.00000E+000	-8.00059E-001	0.00000E+000	9	...........	1426.04
	85	116.1	-8.01049E-001	-1.53289E-004	0.00000E+000	-8.00059E-001	0.00000E+000	9	...........	1426.04
	86	216.1	-8.01048E-001	-1.53072E-004	0.00000E+000	-8.00059E-001	0.00000E+000	9	...........	1426.04
	87	256	-8.01060E-001	-1.51786E-004	0.00000E+000	-8.00059E-001	0.00000E+000	9	...........	1426.04
	88	256.1	-7.51047E-001	5.72866E-005	0.00000E+000	-7.50046E-001	0.00000E+000	9	...........	1426.04
	89	256.2	-7.51041E-001	-2.60709E-005	0.00000E+000	-7.50046E-001	0.00000E+000	9	...........	1426.04
	90	256.3	-7.51052E-001	-6.71448E-005	0.00000E+000	-7.50046E-001	0.00000E+000	9	...........	1426.04
	91	256.4	-7.51040E-001	-8.97984E-005	0.00000E+000	-7.50046E-001	0.00000E+000	9	...........	1426.04
	92	256.5	-7.51047E-001	-1.03350E-004	0.00000E+000	-7.50046E-001	0.00000E+000	9	...........	1426.04
	93	256.6	-7.51038E-001	-1.11885E-004	0.00000E+000	-7.50046E-001	0.00000E+000	9	...........	1426.04
	94	256.7	-7.51053E-001	-1.17696E-004	0.00000E+000	-7.50046E-001	0.00000E+000	9	...........	1426.04
	95	256.8	-7.51038E-001	-1.21637E-004	0.00000E+000	-7.50046E-001	0.00000E+000	9	...........	1426.04
	96	256.9	-7.51059E-001	-1.24646E-004	0.00000E+000	-7.50046E-001	0.00000E+000	9	...........	1426.04
	97	257	-7.51048E-001	-1.26927E-004	0.00000E+000	-7.50046E-001	0.00000E+000	9	...........	1426.04
