EXPLAIN
TAG	CHRONOA
TITLE	LABEL	Chronoamperometry Scan	Test Identifier
DATE	LABEL	17/8/2022	Date
TIME	LABEL	15:10:36	Time
NOTES	NOTES	1	Notes...
	
PSTAT	PSTAT	IFC1010-21051	Potentiostat
VPRESTEP	POTEN	1.50000E-001	F	Pre-step Voltage (V)
TPRESTEP	QUANT	5.00000E-001	Pre-step Delay Time (s)
VSTEP1	POTEN	2.00000E-001	F	Step 1 Voltage (V)
TSTEP1	QUANT	3.00000E+002	Step 1 Time (s)
VSTEP2	POTEN	2.50000E-001	F	Step 2 Voltage (V)
TSTEP2	QUANT	1.00000E+000	Step 2 Time (s)
SAMPLETIME	QUANT	1.00000E-001	Sample Period (s)
DECIMATE	TOGGLE	T	Decimate
ILIMIT	QUANT	1.00000E+000	Limit I (mA/cm^2)
IMODE	SELECTOR	1	I/E Range Mode
IRANGE	QUANT	3.00000E-001	Max Current (mA)
EQDELAY	QUANT	5.00000E+000	Equil. Time (s)
SAMPLINGMODE	SELECTOR	1	Sampling Mode
AREA	QUANT	1.00000E+000	Sample Area (cm^2)
IRCOMP	SELECTOR	0	IRComp
PFCOR	QUANT	5.00000E+001	PF Corr. (ohm)
SEQUENCER	TOGGLE	TRUE	Run as Sequence
PSTATMODEL	IQUANT	64	Pstat Model
PSTATSECTION	LABEL	IFC1010-21051	Pstat Section
PSTATSERIALNO	LABEL	21051	Pstat Serial Number
CTRLMODE	IQUANT	1	Control Mode
ELECTROMETER	IQUANT	0	RE=0 or CS=1
IESTAB	IQUANT	0	I/E Stability
CASPEED	IQUANT	4	Control Amp Speed
CONVENTION	IQUANT	1	Current Convention
ICHRANGE	IQUANT	2	Ich Range
ICHRANGEMODE	TOGGLE	T	Ich Auto Range
ICHOFFSETENABLE	TOGGLE	F	Ich Offset Enable
ICHOFFSET	QUANT	0	Ich Offset (V)
ICHFILTER	IQUANT	3	Ich Filter
VCHRANGE	IQUANT	3	Vch Range
VCHRANGEMODE	TOGGLE	T	Vch Auto Range
VCHOFFSETENABLE	TOGGLE	F	Vch Offset Enable
VCHOFFSET	QUANT	0	Vch Offset (V)
VCHFILTER	IQUANT	3	Vch Filter
IERANGELOWERLIMIT	IQUANT	4	I/E Range Lower Limit
IERANGEMODE	TOGGLE	F	I/E AutoRange
IERANGE	IQUANT	9	I/E Range
ACHSELECT	IQUANT	0	Ach Select
ACHRANGE	IQUANT	2	Ach Range
ACHOFFSETENABLE	TOGGLE	F	Ach Offset Enable
ACHOFFSET	QUANT	0	Ach Offset (V)
ACHFILTER	IQUANT	1	Ach Filter
SENSECABLEID	IQUANT	14	Sense Cable ID
PWRCABLEID	IQUANT	14	Power Cable ID
DCCALDATE	LABEL	7/12/2022	DC Calibration Date
ACCALDATE	LABEL	4/2/2018	AC Calibration Date
FRAMEWORKVERSION	QUANT	7.06	Framework Version
INSTRUMENTVERSION	LABEL	4.30	Instrument Version
CURVE	TABLE	98
	Pt	T	Vf	Im	Vu	Sig	Ach	IERange	Over	Temp
	#	s	V vs. Ref.	A	V	V	V	#	bits	deg C
	0	-0.4	1.50254E-001	3.94529E-006	0.00000E+000	1.50006E-001	0.00000E+000	9	...........	1425.87
	1	-0.3	1.50277E-001	3.87288E-006	0.00000E+000	1.50006E-001	0.00000E+000	9	...........	1425.87
	2	-0.2	1.50298E-001	3.79830E-006	0.00000E+000	1.50006E-001	0.00000E+000	9	...........	1425.87
	3	-0.1	1.50297E-001	3.75008E-006	0.00000E+000	1.50006E-001	0.00000E+000	9	...........	1425.87
	4	0	1.50297E-001	3.67588E-006	0.00000E+000	1.50006E-001	0.00000E+000	9	...........	1425.87
	5	0.1	2.00298E-001	1.03269E-004	0.00000E+000	2.00005E-001	0.00000E+000	9	...........	1425.87
	6	0.2	2.00298E-001	4.48662E-005	0.00000E+000	2.00005E-001	0.00000E+000	9	...........	1425.87
	7	0.3	2.00297E-001	2.87770E-005	0.00000E+000	2.00005E-001	0.00000E+000	9	...........	1425.87
	8	0.4	2.00297E-001	2.24625E-005	0.00000E+000	2.00005E-001	0.00000E+000	9	...........	1425.87
	9	0.5	2.00297E-001	1.91816E-005	0.00000E+000	2.00005E-001	0.00000E+000	9	...........	1425.87
	10	0.6	2.00295E-001	1.72034E-005	0.00000E+000	2.00005E-001	0.00000E+000	9	...........	1425.87
	11	0.7	2.00296E-001	1.57671E-005	0.00000E+000	2.00005E-001	0.00000E+000	9	...........	1425.78
	12	0.8	2.00294E-001	1.46826E-005	0.00000E+000	2.00005E-001	0.00000E+000	9	...........	1425.78
	13	0.9	2.00293E-001	1.38024E-005	0.00000E+000	2.00005E-001	0.00000E+000	9	...........	1425.78
	14	1	2.00296E-001	1.30776E-005	0.00000E+000	2.00005E-001	0.00000E+000	9	...........	1425.78
	15	1.1	2.00295E-001	1.24960E-005	0.00000E+000	2.00005E-001	0.00000E+000	9	...........	1425.78
	16	1.2	2.00294E-001	1.19596E-005	0.00000E+000	2.00005E-001	0.00000E+000	9	...........	1425.78
	17	1.3	2.00295E-001	1.15051E-005	0.00000E+000	2.00005E-001	0.00000E+000	9	...........	1425.78
	18	1.4	2.00292E-001	1.10936E-005	0.00000E+000	2.00005E-001	0.00000E+000	9	...........	1425.78
	19	1.5	2.00295E-001	1.07062E-005	0.00000E+000	2.00005E-001	0.00000E+000	9	...........	1425.78
	20	1.6	2.00293E-001	1.03828E-005	0.00000E+000	2.00005E-001	0.00000E+000	9	...........	1425.78
	21	1.7	2.00293E-001	1.00864E-005	0.00000E+000	2.00005E-001	0.00000E+000	9	...........	1425.60
	22	1.8	2.00293E-001	9.80066E-006	0.00000E+000	2.00005E-001	0.00000E+000	9	...........	1425.60
	23	1.9	2.00295E-001	9.53646E-006	0.00000E+000	2.00005E-001	0.00000E+000	9	...........	1425.60
	24	2	2.00293E-001	9.29844E-006	0.00000E+000	2.00005E-001	0.00000E+000	9	...........	1425.60
	25	2.1	2.00292E-001	9.06740E-006	0.00000E+000	2.00005E-001	0.00000E+000	9	...........	1425.60
	26	2.2	2.00294E-001	8.86787E-006	0.00000E+000	2.00005E-001	0.00000E+000	9	...........	1425.60
	27	2.3	2.00295E-001	8.65611E-006	0.00000E+000	2.00005E-001	0.00000E+000	9	...........	1425.60
	28	2.4	2.00293E-001	8.49068E-006	0.00000E+000	2.00005E-001	0.00000E+000	9	...........	1425.60
	29	2.5	2.00296E-001	8.30405E-006	0.00000E+000	2.00005E-001	0.00000E+000	9	...........	1425.60
	30	2.6	2.00294E-001	8.15423E-006	0.00000E+000	2.00005E-001	0.00000E+000	9	...........	1425.60
	31	2.7	2.00292E-001	7.98118E-006	0.00000E+000	2.00005E-001	0.00000E+000	9	...........	1425.69
	32	2.8	2.00295E-001	7.84441E-006	0.00000E+000	2.00005E-001	0.00000E+000	9	...........	1425.69
	33	2.9	2.00294E-001	7.68534E-006	0.00000E+000	2.00005E-001	0.00000E+000	9	...........	1425.69
	34	3	2.00295E-001	7.56866E-006	0.00000E+000	2.00005E-001	0.00000E+000	9	...........	1425.69
	35	3.1	2.00293E-001	7.43706E-006	0.00000E+000	2.00005E-001	0.00000E+000	9	...........	1425.69
	36	3.2	2.00294E-001	7.29738E-006	0.00000E+000	2.00005E-001	0.00000E+000	9	...........	1425.69
	37	3.3	2.00293E-001	7.18369E-006	0.00000E+000	2.00005E-001	0.00000E+000	9	...........	1425.69
	38	3.4	2.00294E-001	7.08790E-006	0.00000E+000	2.00005E-001	0.00000E+000	9	...........	1425.69
	39	3.5	2.00293E-001	6.98309E-006	0.00000E+000	2.00005E-001	0.00000E+000	9	...........	1425.69
	40	3.6	2.00295E-001	6.85793E-006	0.00000E+000	2.00005E-001	0.00000E+000	9	...........	1425.69
	41	3.7	2.00292E-001	6.77451E-006	0.00000E+000	2.00005E-001	0.00000E+000	9	...........	1425.87
	42	3.8	2.00293E-001	6.65955E-006	0.00000E+000	2.00005E-001	0.00000E+000	9	...........	1425.87
	43	3.9	2.00293E-001	6.54537E-006	0.00000E+000	2.00005E-001	0.00000E+000	9	...........	1425.87
	44	4	2.00295E-001	6.47600E-006	0.00000E+000	2.00005E-001	0.00000E+000	9	...........	1425.87
	45	4.1	2.00293E-001	6.39905E-006	0.00000E+000	2.00005E-001	0.00000E+000	9	...........	1425.87
	46	4.2	2.00294E-001	6.29541E-006	0.00000E+000	2.00005E-001	0.00000E+000	9	...........	1425.87
	47	4.3	2.00292E-001	6.22370E-006	0.00000E+000	2.00005E-001	0.00000E+000	9	...........	1425.87
	48	4.4	2.00292E-001	6.13451E-006	0.00000E+000	2.00005E-001	0.00000E+000	9	...........	1425.87
	49	4.5	2.00293E-001	6.05359E-006	0.00000E+000	2.00005E-001	0.00000E+000	9	...........	1425.87
	50	4.6	2.00293E-001	5.96280E-006	0.00000E+000	2.00005E-001	0.00000E+000	9	...........	1425.87
	51	4.7	2.00294E-001	5.91966E-006	0.00000E+000	2.00005E-001	0.00000E+000	9	...........	1425.95
	52	4.8	2.00294E-001	5.85382E-006	0.00000E+000	2.00005E-001	0.00000E+000	9	...........	1425.95
	53	4.9	2.00294E-001	5.77704E-006	0.00000E+000	2.00005E-001	0.00000E+000	9	...........	1425.95
	54	5	2.00296E-001	5.69169E-006	0.00000E+000	2.00005E-001	0.00000E+000	9	...........	1425.95
	55	5.1	2.00292E-001	5.63256E-006	0.00000E+000	2.00005E-001	0.00000E+000	9	...........	1425.95
	56	5.2	2.00293E-001	5.57230E-006	0.00000E+000	2.00005E-001	0.00000E+000	9	...........	1425.95
	57	5.3	2.00294E-001	5.50937E-006	0.00000E+000	2.00005E-001	0.00000E+000	9	...........	1425.95
	58	5.4	2.00294E-001	5.43619E-006	0.00000E+000	2.00005E-001	0.00000E+000	9	...........	1425.95
	59	5.5	2.00294E-001	5.37553E-006	0.00000E+000	2.00005E-001	0.00000E+000	9	...........	1425.95
	60	5.6	2.00295E-001	5.31824E-006	0.00000E+000	2.00005E-001	0.00000E+000	9	...........	1425.95
	61	5.7	2.00292E-001	5.29027E-006	0.00000E+000	2.00005E-001	0.00000E+000	9	...........	1425.69
	62	5.8	2.00292E-001	5.20392E-006	0.00000E+000	2.00005E-001	0.00000E+000	9	...........	1425.69
	63	5.9	2.00293E-001	5.15347E-006	0.00000E+000	2.00005E-001	0.00000E+000	9	...........	1425.69
	64	6	2.00293E-001	5.11700E-006	0.00000E+000	2.00005E-001	0.00000E+000	9	...........	1425.69
	65	6.1	2.00294E-001	5.05807E-006	0.00000E+000	2.00005E-001	0.00000E+000	9	...........	1425.69
	66	7.1	2.00294E-001	4.58882E-006	0.00000E+000	2.00005E-001	0.00000E+000	9	...........	1425.87
	67	8.1	2.00292E-001	4.20589E-006	0.00000E+000	2.00005E-001	0.00000E+000	9	...........	1426.13
	68	9.1	2.00292E-001	3.91315E-006	0.00000E+000	2.00005E-001	0.00000E+000	9	...........	1426.13
	69	10.1	2.00293E-001	3.68018E-006	0.00000E+000	2.00005E-001	0.00000E+000	9	...........	1426.13
	70	11.1	2.00293E-001	3.48978E-006	0.00000E+000	2.00005E-001	0.00000E+000	9	...........	1426.13
	71	12.1	2.00294E-001	3.30736E-006	0.00000E+000	2.00005E-001	0.00000E+000	9	...........	1426.13
	72	13.1	2.00294E-001	3.18413E-006	0.00000E+000	2.00005E-001	0.00000E+000	9	...........	1426.13
	73	14.1	2.00293E-001	3.03401E-006	0.00000E+000	2.00005E-001	0.00000E+000	9	...........	1426.13
	74	15.1	2.00294E-001	2.92437E-006	0.00000E+000	2.00005E-001	0.00000E+000	9	...........	1426.04
	75	16.1	2.00292E-001	2.77021E-006	0.00000E+000	2.00005E-001	0.00000E+000	9	...........	1426.13
	76	26.1	2.00294E-001	1.80858E-006	0.00000E+000	2.00005E-001	0.00000E+000	9	...........	1426.13
	77	36.1	2.00295E-001	1.44611E-006	0.00000E+000	2.00005E-001	0.00000E+000	9	...........	1426.13
	78	46.1	2.00294E-001	1.14980E-006	0.00000E+000	2.00005E-001	0.00000E+000	9	...........	1426.13
	79	56.1	2.00294E-001	9.21466E-007	0.00000E+000	2.00005E-001	0.00000E+000	9	...........	1426.13
	80	66.1	2.00298E-001	8.83561E-007	0.00000E+000	2.00005E-001	0.00000E+000	9	...........	1426.13
	81	76.1	2.00295E-001	6.94032E-007	0.00000E+000	2.00005E-001	0.00000E+000	9	...........	1426.13
	82	86.1	2.00294E-001	7.63570E-007	0.00000E+000	2.00005E-001	0.00000E+000	9	...........	1426.13
	83	96.1	2.00296E-001	5.27193E-007	0.00000E+000	2.00005E-001	0.00000E+000	9	...........	1426.13
	84	106.1	2.00295E-001	4.46376E-007	0.00000E+000	2.00005E-001	0.00000E+000	9	...........	1426.13
	85	116.1	2.00295E-001	5.73741E-007	0.00000E+000	2.00005E-001	0.00000E+000	9	...........	1426.13
	86	216.1	2.00295E-001	1.31885E-007	0.00000E+000	2.00005E-001	0.00000E+000	9	...........	1426.13
	87	300	2.00294E-001	2.69861E-007	0.00000E+000	2.00005E-001	0.00000E+000	9	...........	1426.13
	88	300.1	2.50306E-001	1.03062E-004	0.00000E+000	2.50005E-001	0.00000E+000	9	...........	1426.13
	89	300.2	2.50306E-001	4.55437E-005	0.00000E+000	2.50005E-001	0.00000E+000	9	...........	1426.13
	90	300.3	2.50305E-001	2.87195E-005	0.00000E+000	2.50005E-001	0.00000E+000	9	...........	1426.13
	91	300.4	2.50303E-001	2.18125E-005	0.00000E+000	2.50005E-001	0.00000E+000	9	...........	1426.13
	92	300.5	2.50304E-001	1.81958E-005	0.00000E+000	2.50005E-001	0.00000E+000	9	...........	1426.13
	93	300.6	2.50305E-001	1.59541E-005	0.00000E+000	2.50005E-001	0.00000E+000	9	...........	1426.13
	94	300.7	2.50304E-001	1.44184E-005	0.00000E+000	2.50005E-001	0.00000E+000	9	...........	1426.22
	95	300.8	2.50306E-001	1.32897E-005	0.00000E+000	2.50005E-001	0.00000E+000	9	...........	1426.22
	96	300.9	2.50304E-001	1.24406E-005	0.00000E+000	2.50005E-001	0.00000E+000	9	...........	1426.22
	97	301	2.50306E-001	1.17024E-005	0.00000E+000	2.50005E-001	0.00000E+000	9	...........	1426.22
