EXPLAIN
TAG	CHRONOA
TITLE	LABEL	Chronoamperometry Scan	Test Identifier
DATE	LABEL	17/8/2022	Date
TIME	LABEL	15:32:09	Time
NOTES	NOTES	1	Notes...
	
PSTAT	PSTAT	IFC1010-21051	Potentiostat
VPRESTEP	POTEN	-5.50000E-001	F	Pre-step Voltage (V)
TPRESTEP	QUANT	5.00000E-001	Pre-step Delay Time (s)
VSTEP1	POTEN	-6.00000E-001	F	Step 1 Voltage (V)
TSTEP1	QUANT	3.00000E+002	Step 1 Time (s)
VSTEP2	POTEN	-6.50000E-001	F	Step 2 Voltage (V)
TSTEP2	QUANT	1.00000E+000	Step 2 Time (s)
SAMPLETIME	QUANT	1.00000E-001	Sample Period (s)
DECIMATE	TOGGLE	T	Decimate
ILIMIT	QUANT	1.00000E+000	Limit I (mA/cm^2)
IMODE	SELECTOR	1	I/E Range Mode
IRANGE	QUANT	3.00000E-001	Max Current (mA)
EQDELAY	QUANT	5.00000E+000	Equil. Time (s)
SAMPLINGMODE	SELECTOR	1	Sampling Mode
AREA	QUANT	1.00000E+000	Sample Area (cm^2)
IRCOMP	SELECTOR	0	IRComp
PFCOR	QUANT	5.00000E+001	PF Corr. (ohm)
SEQUENCER	TOGGLE	TRUE	Run as Sequence
PSTATMODEL	IQUANT	64	Pstat Model
PSTATSECTION	LABEL	IFC1010-21051	Pstat Section
PSTATSERIALNO	LABEL	21051	Pstat Serial Number
CTRLMODE	IQUANT	1	Control Mode
ELECTROMETER	IQUANT	0	RE=0 or CS=1
IESTAB	IQUANT	0	I/E Stability
CASPEED	IQUANT	4	Control Amp Speed
CONVENTION	IQUANT	1	Current Convention
ICHRANGE	IQUANT	2	Ich Range
ICHRANGEMODE	TOGGLE	T	Ich Auto Range
ICHOFFSETENABLE	TOGGLE	F	Ich Offset Enable
ICHOFFSET	QUANT	0	Ich Offset (V)
ICHFILTER	IQUANT	3	Ich Filter
VCHRANGE	IQUANT	3	Vch Range
VCHRANGEMODE	TOGGLE	T	Vch Auto Range
VCHOFFSETENABLE	TOGGLE	F	Vch Offset Enable
VCHOFFSET	QUANT	0	Vch Offset (V)
VCHFILTER	IQUANT	3	Vch Filter
IERANGELOWERLIMIT	IQUANT	4	I/E Range Lower Limit
IERANGEMODE	TOGGLE	F	I/E AutoRange
IERANGE	IQUANT	9	I/E Range
ACHSELECT	IQUANT	0	Ach Select
ACHRANGE	IQUANT	2	Ach Range
ACHOFFSETENABLE	TOGGLE	F	Ach Offset Enable
ACHOFFSET	QUANT	0	Ach Offset (V)
ACHFILTER	IQUANT	1	Ach Filter
SENSECABLEID	IQUANT	14	Sense Cable ID
PWRCABLEID	IQUANT	14	Power Cable ID
DCCALDATE	LABEL	7/12/2022	DC Calibration Date
ACCALDATE	LABEL	4/2/2018	AC Calibration Date
FRAMEWORKVERSION	QUANT	7.06	Framework Version
INSTRUMENTVERSION	LABEL	4.30	Instrument Version
CURVE	TABLE	98
	Pt	T	Vf	Im	Vu	Sig	Ach	IERange	Over	Temp
	#	s	V vs. Ref.	A	V	V	V	#	bits	deg C
	0	-0.4	-5.50519E-001	-2.62219E-004	0.00000E+000	-5.50017E-001	0.00000E+000	9	...........	1426.04
	1	-0.3	-5.50742E-001	-2.60795E-004	0.00000E+000	-5.50017E-001	0.00000E+000	9	...........	1426.04
	2	-0.2	-5.50727E-001	-2.59444E-004	0.00000E+000	-5.50017E-001	0.00000E+000	9	...........	1426.04
	3	-0.1	-5.50742E-001	-2.58219E-004	0.00000E+000	-5.50017E-001	0.00000E+000	9	...........	1426.04
	4	0	-5.50739E-001	-2.56918E-004	0.00000E+000	-5.50017E-001	0.00000E+000	9	...........	1426.04
	5	0.1	-6.00758E-001	-5.04187E-004	0.00000E+000	-6.00016E-001	0.00000E+000	9	...........	1426.04
	6	0.2	-6.00748E-001	-4.37261E-004	0.00000E+000	-6.00016E-001	0.00000E+000	9	...........	1426.04
	7	0.3	-6.00769E-001	-4.05911E-004	0.00000E+000	-6.00016E-001	0.00000E+000	9	...........	1426.04
	8	0.4	-6.00750E-001	-3.87023E-004	0.00000E+000	-6.00016E-001	0.00000E+000	9	...........	1426.04
	9	0.5	-6.00766E-001	-3.74051E-004	0.00000E+000	-6.00016E-001	0.00000E+000	9	...........	1426.04
	10	0.6	-6.00746E-001	-3.64006E-004	0.00000E+000	-6.00016E-001	0.00000E+000	9	...........	1426.04
	11	0.7	-6.00761E-001	-3.56146E-004	0.00000E+000	-6.00016E-001	0.00000E+000	9	...........	1426.04
	12	0.8	-6.00750E-001	-3.49198E-004	0.00000E+000	-6.00016E-001	0.00000E+000	9	...........	1426.04
	13	0.9	-6.00768E-001	-3.43410E-004	0.00000E+000	-6.00016E-001	0.00000E+000	9	...........	1426.04
	14	1	-6.00764E-001	-3.38238E-004	0.00000E+000	-6.00016E-001	0.00000E+000	9	...........	1426.04
	15	1.1	-6.00754E-001	-3.33455E-004	0.00000E+000	-6.00016E-001	0.00000E+000	9	...........	1426.04
	16	1.2	-6.00759E-001	-3.29097E-004	0.00000E+000	-6.00016E-001	0.00000E+000	9	...........	1426.04
	17	1.3	-6.00748E-001	-3.25119E-004	0.00000E+000	-6.00016E-001	0.00000E+000	9	...........	1426.04
	18	1.4	-6.00747E-001	-3.21293E-004	0.00000E+000	-6.00016E-001	0.00000E+000	9	...........	1425.95
	19	1.5	-6.00760E-001	-3.18062E-004	0.00000E+000	-6.00016E-001	0.00000E+000	9	...........	1425.69
	20	1.6	-6.00737E-001	-3.14672E-004	0.00000E+000	-6.00016E-001	0.00000E+000	9	...........	1425.69
	21	1.7	-6.00755E-001	-3.11627E-004	0.00000E+000	-6.00016E-001	0.00000E+000	9	...........	1425.69
	22	1.8	-6.00759E-001	-3.08692E-004	0.00000E+000	-6.00016E-001	0.00000E+000	9	...........	1425.69
	23	1.9	-6.00775E-001	-3.05987E-004	0.00000E+000	-6.00016E-001	0.00000E+000	9	...........	1425.69
	24	2	-6.00764E-001	-3.03336E-004	0.00000E+000	-6.00016E-001	0.00000E+000	9	...........	1425.69
	25	2.1	-6.00760E-001	-3.00873E-004	0.00000E+000	-6.00016E-001	0.00000E+000	9	...........	1425.69
	26	2.2	-6.00764E-001	-2.98444E-004	0.00000E+000	-6.00016E-001	0.00000E+000	9	...........	1425.69
	27	2.3	-6.00757E-001	-2.96106E-004	0.00000E+000	-6.00016E-001	0.00000E+000	9	...........	1425.69
	28	2.4	-6.00754E-001	-2.93824E-004	0.00000E+000	-6.00016E-001	0.00000E+000	9	...........	1425.69
	29	2.5	-6.00743E-001	-2.91713E-004	0.00000E+000	-6.00016E-001	0.00000E+000	9	...........	1425.69
	30	2.6	-6.00746E-001	-2.89692E-004	0.00000E+000	-6.00016E-001	0.00000E+000	9	...........	1425.69
	31	2.7	-6.00739E-001	-2.87667E-004	0.00000E+000	-6.00016E-001	0.00000E+000	9	...........	1425.69
	32	2.8	-6.00754E-001	-2.85790E-004	0.00000E+000	-6.00016E-001	0.00000E+000	9	...........	1425.69
	33	2.9	-6.00748E-001	-2.83863E-004	0.00000E+000	-6.00016E-001	0.00000E+000	9	...........	1425.69
	34	3	-6.00750E-001	-2.82011E-004	0.00000E+000	-6.00016E-001	0.00000E+000	9	...........	1425.69
	35	3.1	-6.00759E-001	-2.80437E-004	0.00000E+000	-6.00016E-001	0.00000E+000	9	...........	1425.69
	36	3.2	-6.00749E-001	-2.78594E-004	0.00000E+000	-6.00016E-001	0.00000E+000	9	...........	1425.69
	37	3.3	-6.00758E-001	-2.76971E-004	0.00000E+000	-6.00016E-001	0.00000E+000	9	...........	1425.69
	38	3.4	-6.00770E-001	-2.75437E-004	0.00000E+000	-6.00016E-001	0.00000E+000	9	...........	1425.71
	39	3.5	-6.00760E-001	-2.73912E-004	0.00000E+000	-6.00016E-001	0.00000E+000	9	...........	1425.78
	40	3.6	-6.00763E-001	-2.72384E-004	0.00000E+000	-6.00016E-001	0.00000E+000	9	...........	1425.78
	41	3.7	-6.00759E-001	-2.70973E-004	0.00000E+000	-6.00016E-001	0.00000E+000	9	...........	1425.78
	42	3.8	-6.00758E-001	-2.69499E-004	0.00000E+000	-6.00016E-001	0.00000E+000	9	...........	1425.78
	43	3.9	-6.00763E-001	-2.68141E-004	0.00000E+000	-6.00016E-001	0.00000E+000	9	...........	1425.78
	44	4	-6.00748E-001	-2.66745E-004	0.00000E+000	-6.00016E-001	0.00000E+000	9	...........	1425.78
	45	4.1	-6.00746E-001	-2.65403E-004	0.00000E+000	-6.00016E-001	0.00000E+000	9	...........	1425.78
	46	4.2	-6.00755E-001	-2.64152E-004	0.00000E+000	-6.00016E-001	0.00000E+000	9	...........	1425.78
	47	4.3	-6.00737E-001	-2.62829E-004	0.00000E+000	-6.00016E-001	0.00000E+000	9	...........	1425.78
	48	4.4	-6.00746E-001	-2.61660E-004	0.00000E+000	-6.00016E-001	0.00000E+000	9	...........	1425.75
	49	4.5	-6.00758E-001	-2.60436E-004	0.00000E+000	-6.00016E-001	0.00000E+000	9	...........	1425.69
	50	4.6	-6.00743E-001	-2.59210E-004	0.00000E+000	-6.00016E-001	0.00000E+000	9	...........	1425.69
	51	4.7	-6.00760E-001	-2.58197E-004	0.00000E+000	-6.00016E-001	0.00000E+000	9	...........	1425.69
	52	4.8	-6.00755E-001	-2.57008E-004	0.00000E+000	-6.00016E-001	0.00000E+000	9	...........	1425.69
	53	4.9	-6.00760E-001	-2.55933E-004	0.00000E+000	-6.00016E-001	0.00000E+000	9	...........	1425.69
	54	5	-6.00761E-001	-2.54877E-004	0.00000E+000	-6.00016E-001	0.00000E+000	9	...........	1425.69
	55	5.1	-6.00766E-001	-2.53758E-004	0.00000E+000	-6.00016E-001	0.00000E+000	9	...........	1425.69
	56	5.2	-6.00772E-001	-2.52695E-004	0.00000E+000	-6.00016E-001	0.00000E+000	9	...........	1425.69
	57	5.3	-6.00744E-001	-2.51746E-004	0.00000E+000	-6.00016E-001	0.00000E+000	9	...........	1425.69
	58	5.4	-6.00755E-001	-2.50737E-004	0.00000E+000	-6.00016E-001	0.00000E+000	9	...........	1425.71
	59	5.5	-6.00753E-001	-2.49687E-004	0.00000E+000	-6.00016E-001	0.00000E+000	9	...........	1425.78
	60	5.6	-6.00760E-001	-2.48741E-004	0.00000E+000	-6.00016E-001	0.00000E+000	9	...........	1425.78
	61	5.7	-6.00728E-001	-2.47714E-004	0.00000E+000	-6.00016E-001	0.00000E+000	9	...........	1425.78
	62	5.8	-6.00742E-001	-2.46921E-004	0.00000E+000	-6.00016E-001	0.00000E+000	9	...........	1425.78
	63	5.9	-6.00741E-001	-2.45994E-004	0.00000E+000	-6.00016E-001	0.00000E+000	9	...........	1425.78
	64	6	-6.00755E-001	-2.45095E-004	0.00000E+000	-6.00016E-001	0.00000E+000	9	...........	1425.78
	65	6.1	-6.00763E-001	-2.44284E-004	0.00000E+000	-6.00016E-001	0.00000E+000	9	...........	1425.78
	66	7.1	-6.00756E-001	-2.36306E-004	0.00000E+000	-6.00016E-001	0.00000E+000	9	...........	1425.69
	67	8.1	-6.00769E-001	-2.29517E-004	0.00000E+000	-6.00016E-001	0.00000E+000	9	...........	1425.95
	68	9.1	-6.00754E-001	-2.23585E-004	0.00000E+000	-6.00016E-001	0.00000E+000	9	...........	1425.95
	69	10.1	-6.00758E-001	-2.18532E-004	0.00000E+000	-6.00016E-001	0.00000E+000	9	...........	1425.95
	70	11.1	-6.00749E-001	-2.13975E-004	0.00000E+000	-6.00016E-001	0.00000E+000	9	...........	1425.95
	71	12.1	-6.00759E-001	-2.09825E-004	0.00000E+000	-6.00016E-001	0.00000E+000	9	...........	1425.95
	72	13.1	-6.00751E-001	-2.06165E-004	0.00000E+000	-6.00016E-001	0.00000E+000	9	...........	1425.95
	73	14.1	-6.00755E-001	-2.02791E-004	0.00000E+000	-6.00016E-001	0.00000E+000	9	...........	1425.95
	74	15.1	-6.00767E-001	-1.99675E-004	0.00000E+000	-6.00016E-001	0.00000E+000	9	...........	1425.95
	75	16.1	-6.00751E-001	-1.96765E-004	0.00000E+000	-6.00016E-001	0.00000E+000	9	...........	1425.95
	76	26.1	-6.00757E-001	-1.76757E-004	0.00000E+000	-6.00016E-001	0.00000E+000	9	...........	1425.95
	77	36.1	-6.00762E-001	-1.64815E-004	0.00000E+000	-6.00016E-001	0.00000E+000	9	...........	1425.95
	78	46.1	-6.00763E-001	-1.57367E-004	0.00000E+000	-6.00016E-001	0.00000E+000	9	...........	1426.04
	79	56.1	-6.00761E-001	-1.51820E-004	0.00000E+000	-6.00016E-001	0.00000E+000	9	...........	1426.04
	80	66.1	-6.00770E-001	-1.47407E-004	0.00000E+000	-6.00016E-001	0.00000E+000	9	...........	1426.04
	81	76.1	-6.00784E-001	-1.44033E-004	0.00000E+000	-6.00016E-001	0.00000E+000	9	...........	1426.04
	82	86.1	-6.00767E-001	-1.41196E-004	0.00000E+000	-6.00016E-001	0.00000E+000	9	...........	1426.04
	83	96.1	-6.00766E-001	-1.38564E-004	0.00000E+000	-6.00016E-001	0.00000E+000	9	...........	1425.95
	84	106.1	-6.00757E-001	-1.36988E-004	0.00000E+000	-6.00016E-001	0.00000E+000	9	...........	1426.04
	85	116.1	-6.00759E-001	-1.35116E-004	0.00000E+000	-6.00016E-001	0.00000E+000	9	...........	1426.04
	86	216.1	-6.00753E-001	-1.26861E-004	0.00000E+000	-6.00016E-001	0.00000E+000	9	...........	1426.04
	87	300	-6.00759E-001	-1.23986E-004	0.00000E+000	-6.00016E-001	0.00000E+000	9	...........	1426.04
	88	300.1	-6.50779E-001	-3.33373E-004	0.00000E+000	-6.50016E-001	0.00000E+000	9	...........	1426.04
	89	300.2	-6.50764E-001	-2.46037E-004	0.00000E+000	-6.50016E-001	0.00000E+000	9	...........	1426.04
	90	300.3	-6.50776E-001	-2.09238E-004	0.00000E+000	-6.50016E-001	0.00000E+000	9	...........	1426.04
	91	300.4	-6.50786E-001	-1.90573E-004	0.00000E+000	-6.50016E-001	0.00000E+000	9	...........	1426.02
	92	300.5	-6.50779E-001	-1.79748E-004	0.00000E+000	-6.50016E-001	0.00000E+000	9	...........	1425.95
	93	300.6	-6.50762E-001	-1.72841E-004	0.00000E+000	-6.50016E-001	0.00000E+000	9	...........	1425.95
	94	300.7	-6.50786E-001	-1.68062E-004	0.00000E+000	-6.50016E-001	0.00000E+000	9	...........	1425.95
	95	300.8	-6.50785E-001	-1.64582E-004	0.00000E+000	-6.50016E-001	0.00000E+000	9	...........	1425.95
	96	300.9	-6.50771E-001	-1.61770E-004	0.00000E+000	-6.50016E-001	0.00000E+000	9	...........	1425.95
	97	301	-6.50764E-001	-1.59682E-004	0.00000E+000	-6.50016E-001	0.00000E+000	9	...........	1425.95
