EXPLAIN
TAG	CHRONOA
TITLE	LABEL	Chronoamperometry Scan	Test Identifier
DATE	LABEL	18/7/2022	Date
TIME	LABEL	10:56:05	Time
NOTES	NOTES	1	Notes...
	
PSTAT	PSTAT	IFC1010-21051	Potentiostat
VPRESTEP	POTEN	1.50000E-001	F	Pre-step Voltage (V)
TPRESTEP	QUANT	5.00000E-001	Pre-step Delay Time (s)
VSTEP1	POTEN	2.00000E-001	F	Step 1 Voltage (V)
TSTEP1	QUANT	3.00000E+002	Step 1 Time (s)
VSTEP2	POTEN	2.50000E-001	F	Step 2 Voltage (V)
TSTEP2	QUANT	1.00000E+000	Step 2 Time (s)
SAMPLETIME	QUANT	1.00000E-001	Sample Period (s)
DECIMATE	TOGGLE	T	Decimate
ILIMIT	QUANT	1.00000E+000	Limit I (mA/cm^2)
IMODE	SELECTOR	1	I/E Range Mode
IRANGE	QUANT	3.00000E-001	Max Current (mA)
EQDELAY	QUANT	5.00000E+000	Equil. Time (s)
SAMPLINGMODE	SELECTOR	1	Sampling Mode
AREA	QUANT	1.00000E+000	Sample Area (cm^2)
IRCOMP	SELECTOR	0	IRComp
PFCOR	QUANT	5.00000E+001	PF Corr. (ohm)
SEQUENCER	TOGGLE	TRUE	Run as Sequence
PSTATMODEL	IQUANT	64	Pstat Model
PSTATSECTION	LABEL	IFC1010-21051	Pstat Section
PSTATSERIALNO	LABEL	21051	Pstat Serial Number
CTRLMODE	IQUANT	1	Control Mode
ELECTROMETER	IQUANT	0	RE=0 or CS=1
IESTAB	IQUANT	0	I/E Stability
CASPEED	IQUANT	4	Control Amp Speed
CONVENTION	IQUANT	1	Current Convention
ICHRANGE	IQUANT	2	Ich Range
ICHRANGEMODE	TOGGLE	T	Ich Auto Range
ICHOFFSETENABLE	TOGGLE	F	Ich Offset Enable
ICHOFFSET	QUANT	0	Ich Offset (V)
ICHFILTER	IQUANT	3	Ich Filter
VCHRANGE	IQUANT	3	Vch Range
VCHRANGEMODE	TOGGLE	T	Vch Auto Range
VCHOFFSETENABLE	TOGGLE	F	Vch Offset Enable
VCHOFFSET	QUANT	0	Vch Offset (V)
VCHFILTER	IQUANT	3	Vch Filter
IERANGELOWERLIMIT	IQUANT	4	I/E Range Lower Limit
IERANGEMODE	TOGGLE	F	I/E AutoRange
IERANGE	IQUANT	9	I/E Range
ACHSELECT	IQUANT	0	Ach Select
ACHRANGE	IQUANT	2	Ach Range
ACHOFFSETENABLE	TOGGLE	F	Ach Offset Enable
ACHOFFSET	QUANT	0	Ach Offset (V)
ACHFILTER	IQUANT	1	Ach Filter
SENSECABLEID	IQUANT	14	Sense Cable ID
PWRCABLEID	IQUANT	14	Power Cable ID
DCCALDATE	LABEL	7/12/2022	DC Calibration Date
ACCALDATE	LABEL	4/2/2018	AC Calibration Date
FRAMEWORKVERSION	QUANT	7.06	Framework Version
INSTRUMENTVERSION	LABEL	4.30	Instrument Version
CURVE	TABLE	98
	Pt	T	Vf	Im	Vu	Sig	Ach	IERange	Over	Temp
	#	s	V vs. Ref.	A	V	V	V	#	bits	deg C
	0	-0.4	1.50313E-001	6.87124E-006	0.00000E+000	1.50006E-001	0.00000E+000	9	...........	1425.07
	1	-0.3	1.50309E-001	6.67444E-006	0.00000E+000	1.50006E-001	0.00000E+000	9	...........	1425.07
	2	-0.2	1.50315E-001	6.48067E-006	0.00000E+000	1.50006E-001	0.00000E+000	9	...........	1425.07
	3	-0.1	1.50315E-001	6.29675E-006	0.00000E+000	1.50006E-001	0.00000E+000	9	...........	1425.07
	4	0	1.50314E-001	6.13425E-006	0.00000E+000	1.50006E-001	0.00000E+000	9	...........	1425.07
	5	0.1	2.00313E-001	1.49543E-004	0.00000E+000	2.00005E-001	0.00000E+000	9	...........	1425.07
	6	0.2	2.00313E-001	9.78392E-005	0.00000E+000	2.00005E-001	0.00000E+000	9	...........	1425.07
	7	0.3	2.00313E-001	6.91680E-005	0.00000E+000	2.00005E-001	0.00000E+000	9	...........	1425.07
	8	0.4	2.00313E-001	5.21079E-005	0.00000E+000	2.00005E-001	0.00000E+000	9	...........	1425.16
	9	0.5	2.00311E-001	4.13982E-005	0.00000E+000	2.00005E-001	0.00000E+000	9	...........	1425.16
	10	0.6	2.00312E-001	3.43949E-005	0.00000E+000	2.00005E-001	0.00000E+000	9	...........	1425.16
	11	0.7	2.00313E-001	2.95481E-005	0.00000E+000	2.00005E-001	0.00000E+000	9	...........	1425.16
	12	0.8	2.00312E-001	2.61004E-005	0.00000E+000	2.00005E-001	0.00000E+000	9	...........	1425.16
	13	0.9	2.00311E-001	2.35154E-005	0.00000E+000	2.00005E-001	0.00000E+000	9	...........	1425.16
	14	1	2.00312E-001	2.15069E-005	0.00000E+000	2.00005E-001	0.00000E+000	9	...........	1425.16
	15	1.1	2.00310E-001	1.99423E-005	0.00000E+000	2.00005E-001	0.00000E+000	9	...........	1425.16
	16	1.2	2.00311E-001	1.86344E-005	0.00000E+000	2.00005E-001	0.00000E+000	9	...........	1425.16
	17	1.3	2.00311E-001	1.75507E-005	0.00000E+000	2.00005E-001	0.00000E+000	9	...........	1425.16
	18	1.4	2.00313E-001	1.66186E-005	0.00000E+000	2.00005E-001	0.00000E+000	9	...........	1424.98
	19	1.5	2.00312E-001	1.58241E-005	0.00000E+000	2.00005E-001	0.00000E+000	9	...........	1424.98
	20	1.6	2.00309E-001	1.50989E-005	0.00000E+000	2.00005E-001	0.00000E+000	9	...........	1424.98
	21	1.7	2.00312E-001	1.44589E-005	0.00000E+000	2.00005E-001	0.00000E+000	9	...........	1424.98
	22	1.8	2.00311E-001	1.38856E-005	0.00000E+000	2.00005E-001	0.00000E+000	9	...........	1424.98
	23	1.9	2.00310E-001	1.33709E-005	0.00000E+000	2.00005E-001	0.00000E+000	9	...........	1424.98
	24	2	2.00311E-001	1.28888E-005	0.00000E+000	2.00005E-001	0.00000E+000	9	...........	1424.98
	25	2.1	2.00310E-001	1.24518E-005	0.00000E+000	2.00005E-001	0.00000E+000	9	...........	1424.98
	26	2.2	2.00310E-001	1.20243E-005	0.00000E+000	2.00005E-001	0.00000E+000	9	...........	1424.98
	27	2.3	2.00311E-001	1.16634E-005	0.00000E+000	2.00005E-001	0.00000E+000	9	...........	1424.98
	28	2.4	2.00309E-001	1.13076E-005	0.00000E+000	2.00005E-001	0.00000E+000	9	...........	1425.34
	29	2.5	2.00310E-001	1.09882E-005	0.00000E+000	2.00005E-001	0.00000E+000	9	...........	1425.34
	30	2.6	2.00312E-001	1.06553E-005	0.00000E+000	2.00005E-001	0.00000E+000	9	...........	1425.34
	31	2.7	2.00311E-001	1.03720E-005	0.00000E+000	2.00005E-001	0.00000E+000	9	...........	1425.34
	32	2.8	2.00311E-001	1.00909E-005	0.00000E+000	2.00005E-001	0.00000E+000	9	...........	1425.34
	33	2.9	2.00312E-001	9.81811E-006	0.00000E+000	2.00005E-001	0.00000E+000	9	...........	1425.34
	34	3	2.00310E-001	9.56695E-006	0.00000E+000	2.00005E-001	0.00000E+000	9	...........	1425.34
	35	3.1	2.00309E-001	9.32714E-006	0.00000E+000	2.00005E-001	0.00000E+000	9	...........	1425.34
	36	3.2	2.00309E-001	9.09397E-006	0.00000E+000	2.00005E-001	0.00000E+000	9	...........	1425.34
	37	3.3	2.00312E-001	8.88508E-006	0.00000E+000	2.00005E-001	0.00000E+000	9	...........	1425.34
	38	3.4	2.00310E-001	8.68701E-006	0.00000E+000	2.00005E-001	0.00000E+000	9	...........	1424.80
	39	3.5	2.00310E-001	8.47930E-006	0.00000E+000	2.00005E-001	0.00000E+000	9	...........	1424.80
	40	3.6	2.00312E-001	8.29411E-006	0.00000E+000	2.00005E-001	0.00000E+000	9	...........	1424.80
	41	3.7	2.00310E-001	8.10858E-006	0.00000E+000	2.00005E-001	0.00000E+000	9	...........	1424.80
	42	3.8	2.00309E-001	7.93150E-006	0.00000E+000	2.00005E-001	0.00000E+000	9	...........	1424.80
	43	3.9	2.00308E-001	7.74851E-006	0.00000E+000	2.00005E-001	0.00000E+000	9	...........	1424.80
	44	4	2.00310E-001	7.59599E-006	0.00000E+000	2.00005E-001	0.00000E+000	9	...........	1424.80
	45	4.1	2.00309E-001	7.44156E-006	0.00000E+000	2.00005E-001	0.00000E+000	9	...........	1424.80
	46	4.2	2.00310E-001	7.27569E-006	0.00000E+000	2.00005E-001	0.00000E+000	9	...........	1424.80
	47	4.3	2.00311E-001	7.12360E-006	0.00000E+000	2.00005E-001	0.00000E+000	9	...........	1424.80
	48	4.4	2.00312E-001	7.00127E-006	0.00000E+000	2.00005E-001	0.00000E+000	9	...........	1424.98
	49	4.5	2.00312E-001	6.85782E-006	0.00000E+000	2.00005E-001	0.00000E+000	9	...........	1424.98
	50	4.6	2.00309E-001	6.73987E-006	0.00000E+000	2.00005E-001	0.00000E+000	9	...........	1424.98
	51	4.7	2.00311E-001	6.61734E-006	0.00000E+000	2.00005E-001	0.00000E+000	9	...........	1424.98
	52	4.8	2.00312E-001	6.47900E-006	0.00000E+000	2.00005E-001	0.00000E+000	9	...........	1424.98
	53	4.9	2.00310E-001	6.36702E-006	0.00000E+000	2.00005E-001	0.00000E+000	9	...........	1424.98
	54	5	2.00311E-001	6.22941E-006	0.00000E+000	2.00005E-001	0.00000E+000	9	...........	1424.98
	55	5.1	2.00311E-001	6.12373E-006	0.00000E+000	2.00005E-001	0.00000E+000	9	...........	1424.98
	56	5.2	2.00310E-001	6.00084E-006	0.00000E+000	2.00005E-001	0.00000E+000	9	...........	1424.98
	57	5.3	2.00310E-001	5.91969E-006	0.00000E+000	2.00005E-001	0.00000E+000	9	...........	1424.98
	58	5.4	2.00311E-001	5.82723E-006	0.00000E+000	2.00005E-001	0.00000E+000	9	...........	1425.25
	59	5.5	2.00312E-001	5.72853E-006	0.00000E+000	2.00005E-001	0.00000E+000	9	...........	1425.25
	60	5.6	2.00311E-001	5.61438E-006	0.00000E+000	2.00005E-001	0.00000E+000	9	...........	1425.25
	61	5.7	2.00312E-001	5.51197E-006	0.00000E+000	2.00005E-001	0.00000E+000	9	...........	1425.25
	62	5.8	2.00310E-001	5.44563E-006	0.00000E+000	2.00005E-001	0.00000E+000	9	...........	1425.25
	63	5.9	2.00312E-001	5.34660E-006	0.00000E+000	2.00005E-001	0.00000E+000	9	...........	1425.25
	64	6	2.00312E-001	5.26445E-006	0.00000E+000	2.00005E-001	0.00000E+000	9	...........	1425.25
	65	6.1	2.00311E-001	5.17088E-006	0.00000E+000	2.00005E-001	0.00000E+000	9	...........	1425.25
	66	7.1	2.00311E-001	4.43216E-006	0.00000E+000	2.00005E-001	0.00000E+000	9	...........	1424.80
	67	8.1	2.00311E-001	3.82166E-006	0.00000E+000	2.00005E-001	0.00000E+000	9	...........	1425.34
	68	9.1	2.00311E-001	3.34737E-006	0.00000E+000	2.00005E-001	0.00000E+000	9	...........	1425.34
	69	10.1	2.00312E-001	2.96681E-006	0.00000E+000	2.00005E-001	0.00000E+000	9	...........	1425.34
	70	11.1	2.00312E-001	2.62039E-006	0.00000E+000	2.00005E-001	0.00000E+000	9	...........	1425.34
	71	12.1	2.00312E-001	2.35007E-006	0.00000E+000	2.00005E-001	0.00000E+000	9	...........	1425.34
	72	13.1	2.00312E-001	2.10205E-006	0.00000E+000	2.00005E-001	0.00000E+000	9	...........	1425.25
	73	14.1	2.00309E-001	1.88469E-006	0.00000E+000	2.00005E-001	0.00000E+000	9	...........	1425.34
	74	15.1	2.00309E-001	1.69219E-006	0.00000E+000	2.00005E-001	0.00000E+000	9	...........	1425.34
	75	16.1	2.00312E-001	1.52209E-006	0.00000E+000	2.00005E-001	0.00000E+000	9	...........	1425.34
	76	26.1	2.00309E-001	6.09645E-007	0.00000E+000	2.00005E-001	0.00000E+000	9	...........	1425.34
	77	36.1	2.00311E-001	1.70692E-007	0.00000E+000	2.00005E-001	0.00000E+000	9	...........	1425.34
	78	46.1	2.00312E-001	-8.76015E-009	0.00000E+000	2.00005E-001	0.00000E+000	9	...........	1425.34
	79	56.1	2.00314E-001	-1.44233E-007	0.00000E+000	2.00005E-001	0.00000E+000	9	...........	1425.34
	80	66.1	2.00311E-001	-2.13204E-007	0.00000E+000	2.00005E-001	0.00000E+000	9	...........	1425.34
	81	76.1	2.00310E-001	-2.82910E-007	0.00000E+000	2.00005E-001	0.00000E+000	9	...........	1425.34
	82	86.1	2.00309E-001	-3.22417E-007	0.00000E+000	2.00005E-001	0.00000E+000	9	...........	1425.42
	83	96.1	2.00311E-001	-3.59756E-007	0.00000E+000	2.00005E-001	0.00000E+000	9	...........	1425.34
	84	106.1	2.00310E-001	-3.61391E-007	0.00000E+000	2.00005E-001	0.00000E+000	9	...........	1425.42
	85	116.1	2.00311E-001	-3.48144E-007	0.00000E+000	2.00005E-001	0.00000E+000	9	...........	1425.42
	86	216.1	2.00311E-001	-3.44406E-007	0.00000E+000	2.00005E-001	0.00000E+000	9	...........	1425.42
	87	300	2.00309E-001	-3.28323E-007	0.00000E+000	2.00005E-001	0.00000E+000	9	...........	1425.42
	88	300.1	2.50314E-001	1.43627E-004	0.00000E+000	2.50005E-001	0.00000E+000	9	...........	1425.42
	89	300.2	2.50317E-001	9.22668E-005	0.00000E+000	2.50005E-001	0.00000E+000	9	...........	1425.42
	90	300.3	2.50317E-001	6.34207E-005	0.00000E+000	2.50005E-001	0.00000E+000	9	...........	1425.42
	91	300.4	2.50319E-001	4.59284E-005	0.00000E+000	2.50005E-001	0.00000E+000	9	...........	1425.42
	92	300.5	2.50318E-001	3.47485E-005	0.00000E+000	2.50005E-001	0.00000E+000	9	...........	1425.42
	93	300.6	2.50318E-001	2.73258E-005	0.00000E+000	2.50005E-001	0.00000E+000	9	...........	1425.42
	94	300.7	2.50317E-001	2.22014E-005	0.00000E+000	2.50005E-001	0.00000E+000	9	...........	1425.42
	95	300.8	2.50316E-001	1.85406E-005	0.00000E+000	2.50005E-001	0.00000E+000	9	...........	1425.42
	96	300.9	2.50316E-001	1.58569E-005	0.00000E+000	2.50005E-001	0.00000E+000	9	...........	1425.42
	97	301	2.50316E-001	1.38596E-005	0.00000E+000	2.50005E-001	0.00000E+000	9	...........	1425.42
