EXPLAIN
TAG	CHRONOA
TITLE	LABEL	Chronoamperometry Scan	Test Identifier
DATE	LABEL	18/7/2022	Date
TIME	LABEL	11:07:24	Time
NOTES	NOTES	1	Notes...
	
PSTAT	PSTAT	IFC1010-21051	Potentiostat
VPRESTEP	POTEN	-1.50000E-001	F	Pre-step Voltage (V)
TPRESTEP	QUANT	5.00000E-001	Pre-step Delay Time (s)
VSTEP1	POTEN	-2.00000E-001	F	Step 1 Voltage (V)
TSTEP1	QUANT	3.00000E+002	Step 1 Time (s)
VSTEP2	POTEN	-2.50000E-001	F	Step 2 Voltage (V)
TSTEP2	QUANT	1.00000E+000	Step 2 Time (s)
SAMPLETIME	QUANT	1.00000E-001	Sample Period (s)
DECIMATE	TOGGLE	T	Decimate
ILIMIT	QUANT	1.00000E+000	Limit I (mA/cm^2)
IMODE	SELECTOR	1	I/E Range Mode
IRANGE	QUANT	3.00000E-001	Max Current (mA)
EQDELAY	QUANT	5.00000E+000	Equil. Time (s)
SAMPLINGMODE	SELECTOR	1	Sampling Mode
AREA	QUANT	1.00000E+000	Sample Area (cm^2)
IRCOMP	SELECTOR	0	IRComp
PFCOR	QUANT	5.00000E+001	PF Corr. (ohm)
SEQUENCER	TOGGLE	TRUE	Run as Sequence
PSTATMODEL	IQUANT	64	Pstat Model
PSTATSECTION	LABEL	IFC1010-21051	Pstat Section
PSTATSERIALNO	LABEL	21051	Pstat Serial Number
CTRLMODE	IQUANT	1	Control Mode
ELECTROMETER	IQUANT	0	RE=0 or CS=1
IESTAB	IQUANT	0	I/E Stability
CASPEED	IQUANT	4	Control Amp Speed
CONVENTION	IQUANT	1	Current Convention
ICHRANGE	IQUANT	2	Ich Range
ICHRANGEMODE	TOGGLE	T	Ich Auto Range
ICHOFFSETENABLE	TOGGLE	F	Ich Offset Enable
ICHOFFSET	QUANT	0	Ich Offset (V)
ICHFILTER	IQUANT	3	Ich Filter
VCHRANGE	IQUANT	3	Vch Range
VCHRANGEMODE	TOGGLE	T	Vch Auto Range
VCHOFFSETENABLE	TOGGLE	F	Vch Offset Enable
VCHOFFSET	QUANT	0	Vch Offset (V)
VCHFILTER	IQUANT	3	Vch Filter
IERANGELOWERLIMIT	IQUANT	4	I/E Range Lower Limit
IERANGEMODE	TOGGLE	F	I/E AutoRange
IERANGE	IQUANT	9	I/E Range
ACHSELECT	IQUANT	0	Ach Select
ACHRANGE	IQUANT	2	Ach Range
ACHOFFSETENABLE	TOGGLE	F	Ach Offset Enable
ACHOFFSET	QUANT	0	Ach Offset (V)
ACHFILTER	IQUANT	1	Ach Filter
SENSECABLEID	IQUANT	14	Sense Cable ID
PWRCABLEID	IQUANT	14	Power Cable ID
DCCALDATE	LABEL	7/12/2022	DC Calibration Date
ACCALDATE	LABEL	4/2/2018	AC Calibration Date
FRAMEWORKVERSION	QUANT	7.06	Framework Version
INSTRUMENTVERSION	LABEL	4.30	Instrument Version
CURVE	TABLE	98
	Pt	T	Vf	Im	Vu	Sig	Ach	IERange	Over	Temp
	#	s	V vs. Ref.	A	V	V	V	#	bits	deg C
	0	-0.4	-1.49917E-001	-6.73161E-005	0.00000E+000	-1.50006E-001	0.00000E+000	9	...........	1425.34
	1	-0.3	-1.50103E-001	-6.68476E-005	0.00000E+000	-1.50006E-001	0.00000E+000	9	...........	1425.34
	2	-0.2	-1.50131E-001	-6.64065E-005	0.00000E+000	-1.50006E-001	0.00000E+000	9	...........	1425.34
	3	-0.1	-1.50131E-001	-6.59668E-005	0.00000E+000	-1.50006E-001	0.00000E+000	9	...........	1425.34
	4	0	-1.50131E-001	-6.55484E-005	0.00000E+000	-1.50006E-001	0.00000E+000	9	...........	1425.34
	5	0.1	-2.00140E-001	-2.27482E-004	0.00000E+000	-2.00005E-001	0.00000E+000	9	...........	1425.34
	6	0.2	-2.00141E-001	-1.82663E-004	0.00000E+000	-2.00005E-001	0.00000E+000	9	...........	1425.34
	7	0.3	-2.00140E-001	-1.56767E-004	0.00000E+000	-2.00005E-001	0.00000E+000	9	...........	1425.34
	8	0.4	-2.00140E-001	-1.40268E-004	0.00000E+000	-2.00005E-001	0.00000E+000	9	...........	1425.34
	9	0.5	-2.00142E-001	-1.29057E-004	0.00000E+000	-2.00005E-001	0.00000E+000	9	...........	1425.34
	10	0.6	-2.00142E-001	-1.21046E-004	0.00000E+000	-2.00005E-001	0.00000E+000	9	...........	1425.34
	11	0.7	-2.00143E-001	-1.15120E-004	0.00000E+000	-2.00005E-001	0.00000E+000	9	...........	1425.34
	12	0.8	-2.00141E-001	-1.10549E-004	0.00000E+000	-2.00005E-001	0.00000E+000	9	...........	1425.34
	13	0.9	-2.00141E-001	-1.06916E-004	0.00000E+000	-2.00005E-001	0.00000E+000	9	...........	1425.34
	14	1	-2.00141E-001	-1.03997E-004	0.00000E+000	-2.00005E-001	0.00000E+000	9	...........	1425.34
	15	1.1	-2.00140E-001	-1.01554E-004	0.00000E+000	-2.00005E-001	0.00000E+000	9	...........	1425.34
	16	1.2	-2.00142E-001	-9.94562E-005	0.00000E+000	-2.00005E-001	0.00000E+000	9	...........	1425.34
	17	1.3	-2.00143E-001	-9.76599E-005	0.00000E+000	-2.00005E-001	0.00000E+000	9	...........	1425.34
	18	1.4	-2.00143E-001	-9.60315E-005	0.00000E+000	-2.00005E-001	0.00000E+000	9	...........	1425.34
	19	1.5	-2.00142E-001	-9.46119E-005	0.00000E+000	-2.00005E-001	0.00000E+000	9	...........	1425.07
	20	1.6	-2.00142E-001	-9.33080E-005	0.00000E+000	-2.00005E-001	0.00000E+000	9	...........	1425.07
	21	1.7	-2.00141E-001	-9.21175E-005	0.00000E+000	-2.00005E-001	0.00000E+000	9	...........	1425.07
	22	1.8	-2.00141E-001	-9.10502E-005	0.00000E+000	-2.00005E-001	0.00000E+000	9	...........	1425.07
	23	1.9	-2.00142E-001	-9.00462E-005	0.00000E+000	-2.00005E-001	0.00000E+000	9	...........	1425.07
	24	2	-2.00141E-001	-8.91152E-005	0.00000E+000	-2.00005E-001	0.00000E+000	9	...........	1425.07
	25	2.1	-2.00141E-001	-8.82656E-005	0.00000E+000	-2.00005E-001	0.00000E+000	9	...........	1425.07
	26	2.2	-2.00142E-001	-8.74420E-005	0.00000E+000	-2.00005E-001	0.00000E+000	9	...........	1425.07
	27	2.3	-2.00141E-001	-8.67020E-005	0.00000E+000	-2.00005E-001	0.00000E+000	9	...........	1425.07
	28	2.4	-2.00142E-001	-8.59473E-005	0.00000E+000	-2.00005E-001	0.00000E+000	9	...........	1425.07
	29	2.5	-2.00142E-001	-8.52527E-005	0.00000E+000	-2.00005E-001	0.00000E+000	9	...........	1425.07
	30	2.6	-2.00140E-001	-8.45949E-005	0.00000E+000	-2.00005E-001	0.00000E+000	9	...........	1425.07
	31	2.7	-2.00143E-001	-8.39591E-005	0.00000E+000	-2.00005E-001	0.00000E+000	9	...........	1425.07
	32	2.8	-2.00142E-001	-8.33684E-005	0.00000E+000	-2.00005E-001	0.00000E+000	9	...........	1425.07
	33	2.9	-2.00141E-001	-8.28108E-005	0.00000E+000	-2.00005E-001	0.00000E+000	9	...........	1425.07
	34	3	-2.00143E-001	-8.22545E-005	0.00000E+000	-2.00005E-001	0.00000E+000	9	...........	1425.07
	35	3.1	-2.00141E-001	-8.16866E-005	0.00000E+000	-2.00005E-001	0.00000E+000	9	...........	1425.07
	36	3.2	-2.00143E-001	-8.11721E-005	0.00000E+000	-2.00005E-001	0.00000E+000	9	...........	1425.07
	37	3.3	-2.00142E-001	-8.06821E-005	0.00000E+000	-2.00005E-001	0.00000E+000	9	...........	1425.07
	38	3.4	-2.00141E-001	-8.02029E-005	0.00000E+000	-2.00005E-001	0.00000E+000	9	...........	1425.07
	39	3.5	-2.00141E-001	-7.97254E-005	0.00000E+000	-2.00005E-001	0.00000E+000	9	...........	1425.34
	40	3.6	-2.00141E-001	-7.93213E-005	0.00000E+000	-2.00005E-001	0.00000E+000	9	...........	1425.34
	41	3.7	-2.00143E-001	-7.88966E-005	0.00000E+000	-2.00005E-001	0.00000E+000	9	...........	1425.34
	42	3.8	-2.00144E-001	-7.84937E-005	0.00000E+000	-2.00005E-001	0.00000E+000	9	...........	1425.34
	43	3.9	-2.00141E-001	-7.80610E-005	0.00000E+000	-2.00005E-001	0.00000E+000	9	...........	1425.34
	44	4	-2.00142E-001	-7.76410E-005	0.00000E+000	-2.00005E-001	0.00000E+000	9	...........	1425.34
	45	4.1	-2.00142E-001	-7.72713E-005	0.00000E+000	-2.00005E-001	0.00000E+000	9	...........	1425.34
	46	4.2	-2.00143E-001	-7.69290E-005	0.00000E+000	-2.00005E-001	0.00000E+000	9	...........	1425.34
	47	4.3	-2.00142E-001	-7.65559E-005	0.00000E+000	-2.00005E-001	0.00000E+000	9	...........	1425.34
	48	4.4	-2.00141E-001	-7.62306E-005	0.00000E+000	-2.00005E-001	0.00000E+000	9	...........	1425.34
	49	4.5	-2.00143E-001	-7.58652E-005	0.00000E+000	-2.00005E-001	0.00000E+000	9	...........	1424.98
	50	4.6	-2.00144E-001	-7.55195E-005	0.00000E+000	-2.00005E-001	0.00000E+000	9	...........	1424.98
	51	4.7	-2.00142E-001	-7.52014E-005	0.00000E+000	-2.00005E-001	0.00000E+000	9	...........	1424.98
	52	4.8	-2.00141E-001	-7.48835E-005	0.00000E+000	-2.00005E-001	0.00000E+000	9	...........	1424.98
	53	4.9	-2.00142E-001	-7.45917E-005	0.00000E+000	-2.00005E-001	0.00000E+000	9	...........	1424.98
	54	5	-2.00143E-001	-7.42815E-005	0.00000E+000	-2.00005E-001	0.00000E+000	9	...........	1424.98
	55	5.1	-2.00144E-001	-7.39849E-005	0.00000E+000	-2.00005E-001	0.00000E+000	9	...........	1424.98
	56	5.2	-2.00144E-001	-7.37143E-005	0.00000E+000	-2.00005E-001	0.00000E+000	9	...........	1424.98
	57	5.3	-2.00143E-001	-7.34089E-005	0.00000E+000	-2.00005E-001	0.00000E+000	9	...........	1424.98
	58	5.4	-2.00142E-001	-7.31118E-005	0.00000E+000	-2.00005E-001	0.00000E+000	9	...........	1424.98
	59	5.5	-2.00142E-001	-7.28527E-005	0.00000E+000	-2.00005E-001	0.00000E+000	9	...........	1425.51
	60	5.6	-2.00144E-001	-7.25806E-005	0.00000E+000	-2.00005E-001	0.00000E+000	9	...........	1425.51
	61	5.7	-2.00144E-001	-7.23469E-005	0.00000E+000	-2.00005E-001	0.00000E+000	9	...........	1425.51
	62	5.8	-2.00144E-001	-7.20700E-005	0.00000E+000	-2.00005E-001	0.00000E+000	9	...........	1425.51
	63	5.9	-2.00145E-001	-7.18198E-005	0.00000E+000	-2.00005E-001	0.00000E+000	9	...........	1425.51
	64	6	-2.00145E-001	-7.15760E-005	0.00000E+000	-2.00005E-001	0.00000E+000	9	...........	1425.51
	65	6.1	-2.00144E-001	-7.13681E-005	0.00000E+000	-2.00005E-001	0.00000E+000	9	...........	1425.51
	66	7.1	-2.00143E-001	-6.91392E-005	0.00000E+000	-2.00005E-001	0.00000E+000	9	...........	1425.42
	67	8.1	-2.00143E-001	-6.73009E-005	0.00000E+000	-2.00005E-001	0.00000E+000	9	...........	1425.51
	68	9.1	-2.00140E-001	-6.56810E-005	0.00000E+000	-2.00005E-001	0.00000E+000	9	...........	1425.51
	69	10.1	-2.00141E-001	-6.42409E-005	0.00000E+000	-2.00005E-001	0.00000E+000	9	...........	1425.51
	70	11.1	-2.00143E-001	-6.30108E-005	0.00000E+000	-2.00005E-001	0.00000E+000	9	...........	1425.51
	71	12.1	-2.00142E-001	-6.18893E-005	0.00000E+000	-2.00005E-001	0.00000E+000	9	...........	1425.51
	72	13.1	-2.00143E-001	-6.09326E-005	0.00000E+000	-2.00005E-001	0.00000E+000	9	...........	1425.51
	73	14.1	-2.00143E-001	-5.99443E-005	0.00000E+000	-2.00005E-001	0.00000E+000	9	...........	1425.51
	74	15.1	-2.00142E-001	-5.90794E-005	0.00000E+000	-2.00005E-001	0.00000E+000	9	...........	1425.51
	75	16.1	-2.00143E-001	-5.83124E-005	0.00000E+000	-2.00005E-001	0.00000E+000	9	...........	1425.51
	76	26.1	-2.00141E-001	-5.28149E-005	0.00000E+000	-2.00005E-001	0.00000E+000	9	...........	1425.60
	77	36.1	-2.00142E-001	-4.95643E-005	0.00000E+000	-2.00005E-001	0.00000E+000	9	...........	1425.51
	78	46.1	-2.00141E-001	-4.72833E-005	0.00000E+000	-2.00005E-001	0.00000E+000	9	...........	1425.51
	79	56.1	-2.00142E-001	-4.55177E-005	0.00000E+000	-2.00005E-001	0.00000E+000	9	...........	1425.51
	80	66.1	-2.00143E-001	-4.41073E-005	0.00000E+000	-2.00005E-001	0.00000E+000	9	...........	1425.51
	81	76.1	-2.00142E-001	-4.29237E-005	0.00000E+000	-2.00005E-001	0.00000E+000	9	...........	1425.51
	82	86.1	-2.00141E-001	-4.19481E-005	0.00000E+000	-2.00005E-001	0.00000E+000	9	...........	1425.51
	83	96.1	-2.00142E-001	-4.09995E-005	0.00000E+000	-2.00005E-001	0.00000E+000	9	...........	1425.60
	84	106.1	-2.00143E-001	-4.01306E-005	0.00000E+000	-2.00005E-001	0.00000E+000	9	...........	1425.60
	85	116.1	-2.00144E-001	-3.94717E-005	0.00000E+000	-2.00005E-001	0.00000E+000	9	...........	1425.51
	86	216.1	-2.00144E-001	-3.45167E-005	0.00000E+000	-2.00005E-001	0.00000E+000	9	...........	1425.51
	87	300	-2.00145E-001	-3.21449E-005	0.00000E+000	-2.00005E-001	0.00000E+000	9	...........	1425.60
	88	300.1	-2.50146E-001	-1.79888E-004	0.00000E+000	-2.50005E-001	0.00000E+000	9	...........	1425.60
	89	300.2	-2.50148E-001	-1.28434E-004	0.00000E+000	-2.50005E-001	0.00000E+000	9	...........	1425.60
	90	300.3	-2.50149E-001	-1.00561E-004	0.00000E+000	-2.50005E-001	0.00000E+000	9	...........	1425.60
	91	300.4	-2.50148E-001	-8.43734E-005	0.00000E+000	-2.50005E-001	0.00000E+000	9	...........	1425.60
	92	300.5	-2.50147E-001	-7.45296E-005	0.00000E+000	-2.50005E-001	0.00000E+000	9	...........	1425.60
	93	300.6	-2.50148E-001	-6.82719E-005	0.00000E+000	-2.50005E-001	0.00000E+000	9	...........	1425.60
	94	300.7	-2.50148E-001	-6.41696E-005	0.00000E+000	-2.50005E-001	0.00000E+000	9	...........	1425.60
	95	300.8	-2.50149E-001	-6.12815E-005	0.00000E+000	-2.50005E-001	0.00000E+000	9	...........	1425.60
	96	300.9	-2.50147E-001	-5.91913E-005	0.00000E+000	-2.50005E-001	0.00000E+000	9	...........	1425.60
	97	301	-2.50149E-001	-5.77442E-005	0.00000E+000	-2.50005E-001	0.00000E+000	9	...........	1425.60
