EXPLAIN
TAG	CHRONOA
TITLE	LABEL	Chronoamperometry Scan	Test Identifier
DATE	LABEL	13/7/2022	Date
TIME	LABEL	11:49:08	Time
NOTES	NOTES	1	Notes...
	
PSTAT	PSTAT	IFC1010-21051	Potentiostat
VPRESTEP	POTEN	-5.50000E-001	F	Pre-step Voltage (V)
TPRESTEP	QUANT	5.00000E-001	Pre-step Delay Time (s)
VSTEP1	POTEN	-6.00000E-001	F	Step 1 Voltage (V)
TSTEP1	QUANT	3.00000E+002	Step 1 Time (s)
VSTEP2	POTEN	-6.50000E-001	F	Step 2 Voltage (V)
TSTEP2	QUANT	1.00000E+000	Step 2 Time (s)
SAMPLETIME	QUANT	1.00000E-001	Sample Period (s)
DECIMATE	TOGGLE	T	Decimate
ILIMIT	QUANT	1.00000E+000	Limit I (mA/cm^2)
IMODE	SELECTOR	1	I/E Range Mode
IRANGE	QUANT	3.00000E-001	Max Current (mA)
EQDELAY	QUANT	5.00000E+000	Equil. Time (s)
SAMPLINGMODE	SELECTOR	1	Sampling Mode
AREA	QUANT	1.00000E+000	Sample Area (cm^2)
IRCOMP	SELECTOR	0	IRComp
PFCOR	QUANT	5.00000E+001	PF Corr. (ohm)
SEQUENCER	TOGGLE	TRUE	Run as Sequence
PSTATMODEL	IQUANT	64	Pstat Model
PSTATSECTION	LABEL	IFC1010-21051	Pstat Section
PSTATSERIALNO	LABEL	21051	Pstat Serial Number
CTRLMODE	IQUANT	1	Control Mode
ELECTROMETER	IQUANT	0	RE=0 or CS=1
IESTAB	IQUANT	0	I/E Stability
CASPEED	IQUANT	4	Control Amp Speed
CONVENTION	IQUANT	1	Current Convention
ICHRANGE	IQUANT	2	Ich Range
ICHRANGEMODE	TOGGLE	T	Ich Auto Range
ICHOFFSETENABLE	TOGGLE	F	Ich Offset Enable
ICHOFFSET	QUANT	0	Ich Offset (V)
ICHFILTER	IQUANT	3	Ich Filter
VCHRANGE	IQUANT	3	Vch Range
VCHRANGEMODE	TOGGLE	T	Vch Auto Range
VCHOFFSETENABLE	TOGGLE	F	Vch Offset Enable
VCHOFFSET	QUANT	0	Vch Offset (V)
VCHFILTER	IQUANT	3	Vch Filter
IERANGELOWERLIMIT	IQUANT	4	I/E Range Lower Limit
IERANGEMODE	TOGGLE	F	I/E AutoRange
IERANGE	IQUANT	9	I/E Range
ACHSELECT	IQUANT	0	Ach Select
ACHRANGE	IQUANT	2	Ach Range
ACHOFFSETENABLE	TOGGLE	F	Ach Offset Enable
ACHOFFSET	QUANT	0	Ach Offset (V)
ACHFILTER	IQUANT	1	Ach Filter
SENSECABLEID	IQUANT	14	Sense Cable ID
PWRCABLEID	IQUANT	14	Power Cable ID
DCCALDATE	LABEL	7/12/2022	DC Calibration Date
ACCALDATE	LABEL	4/2/2018	AC Calibration Date
FRAMEWORKVERSION	QUANT	7.06	Framework Version
INSTRUMENTVERSION	LABEL	4.30	Instrument Version
CURVE	TABLE	98
	Pt	T	Vf	Im	Vu	Sig	Ach	IERange	Over	Temp
	#	s	V vs. Ref.	A	V	V	V	#	bits	deg C
	0	-0.4	-5.50447E-001	-1.17890E-004	0.00000E+000	-5.50017E-001	0.00000E+000	9	...........	1425.42
	1	-0.3	-5.50706E-001	-1.17366E-004	0.00000E+000	-5.50017E-001	0.00000E+000	9	...........	1425.42
	2	-0.2	-5.50707E-001	-1.16836E-004	0.00000E+000	-5.50017E-001	0.00000E+000	9	...........	1425.42
	3	-0.1	-5.50709E-001	-1.16394E-004	0.00000E+000	-5.50017E-001	0.00000E+000	9	...........	1425.42
	4	0	-5.50706E-001	-1.15907E-004	0.00000E+000	-5.50017E-001	0.00000E+000	9	...........	1425.42
	5	0.1	-6.00712E-001	-2.83137E-004	0.00000E+000	-6.00016E-001	0.00000E+000	9	...........	1425.42
	6	0.2	-6.00716E-001	-2.56000E-004	0.00000E+000	-6.00016E-001	0.00000E+000	9	...........	1425.42
	7	0.3	-6.00717E-001	-2.37198E-004	0.00000E+000	-6.00016E-001	0.00000E+000	9	...........	1425.42
	8	0.4	-6.00724E-001	-2.23018E-004	0.00000E+000	-6.00016E-001	0.00000E+000	9	...........	1425.42
	9	0.5	-6.00724E-001	-2.11807E-004	0.00000E+000	-6.00016E-001	0.00000E+000	9	...........	1425.42
	10	0.6	-6.00722E-001	-2.02649E-004	0.00000E+000	-6.00016E-001	0.00000E+000	9	...........	1425.42
	11	0.7	-6.00720E-001	-1.94971E-004	0.00000E+000	-6.00016E-001	0.00000E+000	9	...........	1425.42
	12	0.8	-6.00726E-001	-1.88462E-004	0.00000E+000	-6.00016E-001	0.00000E+000	9	...........	1424.98
	13	0.9	-6.00731E-001	-1.82834E-004	0.00000E+000	-6.00016E-001	0.00000E+000	9	...........	1424.98
	14	1	-6.00721E-001	-1.77943E-004	0.00000E+000	-6.00016E-001	0.00000E+000	9	...........	1424.98
	15	1.1	-6.00702E-001	-1.73618E-004	0.00000E+000	-6.00016E-001	0.00000E+000	9	...........	1424.98
	16	1.2	-6.00720E-001	-1.69824E-004	0.00000E+000	-6.00016E-001	0.00000E+000	9	...........	1424.98
	17	1.3	-6.00715E-001	-1.66375E-004	0.00000E+000	-6.00016E-001	0.00000E+000	9	...........	1424.98
	18	1.4	-6.00720E-001	-1.63348E-004	0.00000E+000	-6.00016E-001	0.00000E+000	9	...........	1424.98
	19	1.5	-6.00717E-001	-1.60540E-004	0.00000E+000	-6.00016E-001	0.00000E+000	9	...........	1424.98
	20	1.6	-6.00726E-001	-1.58049E-004	0.00000E+000	-6.00016E-001	0.00000E+000	9	...........	1424.98
	21	1.7	-6.00721E-001	-1.55711E-004	0.00000E+000	-6.00016E-001	0.00000E+000	9	...........	1424.98
	22	1.8	-6.00726E-001	-1.53600E-004	0.00000E+000	-6.00016E-001	0.00000E+000	9	...........	1425.16
	23	1.9	-6.00731E-001	-1.51658E-004	0.00000E+000	-6.00016E-001	0.00000E+000	9	...........	1425.16
	24	2	-6.00734E-001	-1.49849E-004	0.00000E+000	-6.00016E-001	0.00000E+000	9	...........	1425.16
	25	2.1	-6.00727E-001	-1.48102E-004	0.00000E+000	-6.00016E-001	0.00000E+000	9	...........	1425.16
	26	2.2	-6.00729E-001	-1.46583E-004	0.00000E+000	-6.00016E-001	0.00000E+000	9	...........	1425.16
	27	2.3	-6.00731E-001	-1.45100E-004	0.00000E+000	-6.00016E-001	0.00000E+000	9	...........	1425.16
	28	2.4	-6.00729E-001	-1.43768E-004	0.00000E+000	-6.00016E-001	0.00000E+000	9	...........	1425.16
	29	2.5	-6.00719E-001	-1.42482E-004	0.00000E+000	-6.00016E-001	0.00000E+000	9	...........	1425.16
	30	2.6	-6.00724E-001	-1.41257E-004	0.00000E+000	-6.00016E-001	0.00000E+000	9	...........	1425.16
	31	2.7	-6.00725E-001	-1.40078E-004	0.00000E+000	-6.00016E-001	0.00000E+000	9	...........	1425.16
	32	2.8	-6.00731E-001	-1.38994E-004	0.00000E+000	-6.00016E-001	0.00000E+000	9	...........	1424.89
	33	2.9	-6.00739E-001	-1.37997E-004	0.00000E+000	-6.00016E-001	0.00000E+000	9	...........	1424.89
	34	3	-6.00737E-001	-1.36995E-004	0.00000E+000	-6.00016E-001	0.00000E+000	9	...........	1424.89
	35	3.1	-6.00733E-001	-1.36084E-004	0.00000E+000	-6.00016E-001	0.00000E+000	9	...........	1424.89
	36	3.2	-6.00717E-001	-1.35183E-004	0.00000E+000	-6.00016E-001	0.00000E+000	9	...........	1424.89
	37	3.3	-6.00723E-001	-1.34366E-004	0.00000E+000	-6.00016E-001	0.00000E+000	9	...........	1424.89
	38	3.4	-6.00722E-001	-1.33538E-004	0.00000E+000	-6.00016E-001	0.00000E+000	9	...........	1424.89
	39	3.5	-6.00724E-001	-1.32765E-004	0.00000E+000	-6.00016E-001	0.00000E+000	9	...........	1424.89
	40	3.6	-6.00722E-001	-1.32046E-004	0.00000E+000	-6.00016E-001	0.00000E+000	9	...........	1424.89
	41	3.7	-6.00713E-001	-1.31313E-004	0.00000E+000	-6.00016E-001	0.00000E+000	9	...........	1424.89
	42	3.8	-6.00719E-001	-1.30595E-004	0.00000E+000	-6.00016E-001	0.00000E+000	9	...........	1425.25
	43	3.9	-6.00714E-001	-1.29943E-004	0.00000E+000	-6.00016E-001	0.00000E+000	9	...........	1425.25
	44	4	-6.00718E-001	-1.29322E-004	0.00000E+000	-6.00016E-001	0.00000E+000	9	...........	1425.25
	45	4.1	-6.00709E-001	-1.28714E-004	0.00000E+000	-6.00016E-001	0.00000E+000	9	...........	1425.25
	46	4.2	-6.00719E-001	-1.28099E-004	0.00000E+000	-6.00016E-001	0.00000E+000	9	...........	1425.25
	47	4.3	-6.00731E-001	-1.27514E-004	0.00000E+000	-6.00016E-001	0.00000E+000	9	...........	1425.25
	48	4.4	-6.00742E-001	-1.27036E-004	0.00000E+000	-6.00016E-001	0.00000E+000	9	...........	1425.25
	49	4.5	-6.00728E-001	-1.26502E-004	0.00000E+000	-6.00016E-001	0.00000E+000	9	...........	1425.25
	50	4.6	-6.00716E-001	-1.25979E-004	0.00000E+000	-6.00016E-001	0.00000E+000	9	...........	1425.25
	51	4.7	-6.00727E-001	-1.25481E-004	0.00000E+000	-6.00016E-001	0.00000E+000	9	...........	1425.25
	52	4.8	-6.00726E-001	-1.24999E-004	0.00000E+000	-6.00016E-001	0.00000E+000	9	...........	1424.89
	53	4.9	-6.00724E-001	-1.24491E-004	0.00000E+000	-6.00016E-001	0.00000E+000	9	...........	1424.89
	54	5	-6.00710E-001	-1.24025E-004	0.00000E+000	-6.00016E-001	0.00000E+000	9	...........	1424.89
	55	5.1	-6.00719E-001	-1.23612E-004	0.00000E+000	-6.00016E-001	0.00000E+000	9	...........	1424.89
	56	5.2	-6.00710E-001	-1.23088E-004	0.00000E+000	-6.00016E-001	0.00000E+000	9	...........	1424.89
	57	5.3	-6.00723E-001	-1.22679E-004	0.00000E+000	-6.00016E-001	0.00000E+000	9	...........	1424.89
	58	5.4	-6.00720E-001	-1.22333E-004	0.00000E+000	-6.00016E-001	0.00000E+000	9	...........	1424.89
	59	5.5	-6.00716E-001	-1.21936E-004	0.00000E+000	-6.00016E-001	0.00000E+000	9	...........	1424.89
	60	5.6	-6.00717E-001	-1.21541E-004	0.00000E+000	-6.00016E-001	0.00000E+000	9	...........	1424.89
	61	5.7	-6.00711E-001	-1.21124E-004	0.00000E+000	-6.00016E-001	0.00000E+000	9	...........	1424.89
	62	5.8	-6.00733E-001	-1.20777E-004	0.00000E+000	-6.00016E-001	0.00000E+000	9	...........	1424.98
	63	5.9	-6.00728E-001	-1.20419E-004	0.00000E+000	-6.00016E-001	0.00000E+000	9	...........	1424.98
	64	6	-6.00720E-001	-1.20050E-004	0.00000E+000	-6.00016E-001	0.00000E+000	9	...........	1424.98
	65	6.1	-6.00733E-001	-1.19730E-004	0.00000E+000	-6.00016E-001	0.00000E+000	9	...........	1424.98
	66	7.1	-6.00709E-001	-1.16565E-004	0.00000E+000	-6.00016E-001	0.00000E+000	9	...........	1424.89
	67	8.1	-6.00726E-001	-1.14142E-004	0.00000E+000	-6.00016E-001	0.00000E+000	9	...........	1425.34
	68	9.1	-6.00729E-001	-1.12016E-004	0.00000E+000	-6.00016E-001	0.00000E+000	9	...........	1425.34
	69	10.1	-6.00709E-001	-1.10213E-004	0.00000E+000	-6.00016E-001	0.00000E+000	9	...........	1425.34
	70	11.1	-6.00731E-001	-1.08685E-004	0.00000E+000	-6.00016E-001	0.00000E+000	9	...........	1425.34
	71	12.1	-6.00725E-001	-1.07277E-004	0.00000E+000	-6.00016E-001	0.00000E+000	9	...........	1425.42
	72	13.1	-6.00724E-001	-1.06074E-004	0.00000E+000	-6.00016E-001	0.00000E+000	9	...........	1425.42
	73	14.1	-6.00713E-001	-1.04956E-004	0.00000E+000	-6.00016E-001	0.00000E+000	9	...........	1425.34
	74	15.1	-6.00721E-001	-1.03984E-004	0.00000E+000	-6.00016E-001	0.00000E+000	9	...........	1425.42
	75	16.1	-6.00723E-001	-1.03029E-004	0.00000E+000	-6.00016E-001	0.00000E+000	9	...........	1425.42
	76	26.1	-6.00727E-001	-9.73213E-005	0.00000E+000	-6.00016E-001	0.00000E+000	9	...........	1425.42
	77	36.1	-6.00733E-001	-9.39011E-005	0.00000E+000	-6.00016E-001	0.00000E+000	9	...........	1425.42
	78	46.1	-6.00719E-001	-9.16968E-005	0.00000E+000	-6.00016E-001	0.00000E+000	9	...........	1425.42
	79	56.1	-6.00732E-001	-9.01541E-005	0.00000E+000	-6.00016E-001	0.00000E+000	9	...........	1425.42
	80	66.1	-6.00723E-001	-8.91614E-005	0.00000E+000	-6.00016E-001	0.00000E+000	9	...........	1425.42
	81	76.1	-6.00721E-001	-8.84773E-005	0.00000E+000	-6.00016E-001	0.00000E+000	9	...........	1425.42
	82	86.1	-6.00735E-001	-8.66356E-005	0.00000E+000	-6.00016E-001	0.00000E+000	9	...........	1425.42
	83	96.1	-6.00715E-001	-8.59280E-005	0.00000E+000	-6.00016E-001	0.00000E+000	9	...........	1425.42
	84	106.1	-6.00736E-001	-8.53980E-005	0.00000E+000	-6.00016E-001	0.00000E+000	9	...........	1425.42
	85	116.1	-6.00729E-001	-8.49815E-005	0.00000E+000	-6.00016E-001	0.00000E+000	9	...........	1425.42
	86	216.1	-6.00738E-001	-8.38714E-005	0.00000E+000	-6.00016E-001	0.00000E+000	9	...........	1425.51
	87	300	-6.00736E-001	-8.13628E-005	0.00000E+000	-6.00016E-001	0.00000E+000	9	...........	1425.51
	88	300.1	-6.50745E-001	-2.38610E-004	0.00000E+000	-6.50016E-001	0.00000E+000	9	...........	1425.51
	89	300.2	-6.50742E-001	-2.05417E-004	0.00000E+000	-6.50016E-001	0.00000E+000	9	...........	1425.51
	90	300.3	-6.50756E-001	-1.83084E-004	0.00000E+000	-6.50016E-001	0.00000E+000	9	...........	1425.51
	91	300.4	-6.50753E-001	-1.66895E-004	0.00000E+000	-6.50016E-001	0.00000E+000	9	...........	1425.51
	92	300.5	-6.50736E-001	-1.54625E-004	0.00000E+000	-6.50016E-001	0.00000E+000	9	...........	1425.51
	93	300.6	-6.50747E-001	-1.45242E-004	0.00000E+000	-6.50016E-001	0.00000E+000	9	...........	1425.51
	94	300.7	-6.50752E-001	-1.37781E-004	0.00000E+000	-6.50016E-001	0.00000E+000	9	...........	1425.51
	95	300.8	-6.50756E-001	-1.31801E-004	0.00000E+000	-6.50016E-001	0.00000E+000	9	...........	1425.51
	96	300.9	-6.50738E-001	-1.26961E-004	0.00000E+000	-6.50016E-001	0.00000E+000	9	...........	1425.51
	97	301	-6.50737E-001	-1.22956E-004	0.00000E+000	-6.50016E-001	0.00000E+000	9	...........	1425.51
