EXPLAIN
TAG	CHRONOA
TITLE	LABEL	Chronoamperometry Scan	Test Identifier
DATE	LABEL	13/7/2022	Date
TIME	LABEL	13:34:19	Time
NOTES	NOTES	1	Notes...
	
PSTAT	PSTAT	IFC1010-21051	Potentiostat
VPRESTEP	POTEN	-7.50000E-001	F	Pre-step Voltage (V)
TPRESTEP	QUANT	5.00000E-001	Pre-step Delay Time (s)
VSTEP1	POTEN	-8.00000E-001	F	Step 1 Voltage (V)
TSTEP1	QUANT	3.00000E+002	Step 1 Time (s)
VSTEP2	POTEN	-7.50000E-001	F	Step 2 Voltage (V)
TSTEP2	QUANT	1.00000E+000	Step 2 Time (s)
SAMPLETIME	QUANT	1.00000E-001	Sample Period (s)
DECIMATE	TOGGLE	T	Decimate
ILIMIT	QUANT	1.00000E+000	Limit I (mA/cm^2)
IMODE	SELECTOR	1	I/E Range Mode
IRANGE	QUANT	3.00000E-001	Max Current (mA)
EQDELAY	QUANT	5.00000E+000	Equil. Time (s)
SAMPLINGMODE	SELECTOR	1	Sampling Mode
AREA	QUANT	1.00000E+000	Sample Area (cm^2)
IRCOMP	SELECTOR	0	IRComp
PFCOR	QUANT	5.00000E+001	PF Corr. (ohm)
SEQUENCER	TOGGLE	TRUE	Run as Sequence
PSTATMODEL	IQUANT	64	Pstat Model
PSTATSECTION	LABEL	IFC1010-21051	Pstat Section
PSTATSERIALNO	LABEL	21051	Pstat Serial Number
CTRLMODE	IQUANT	1	Control Mode
ELECTROMETER	IQUANT	0	RE=0 or CS=1
IESTAB	IQUANT	0	I/E Stability
CASPEED	IQUANT	4	Control Amp Speed
CONVENTION	IQUANT	1	Current Convention
ICHRANGE	IQUANT	2	Ich Range
ICHRANGEMODE	TOGGLE	T	Ich Auto Range
ICHOFFSETENABLE	TOGGLE	F	Ich Offset Enable
ICHOFFSET	QUANT	0	Ich Offset (V)
ICHFILTER	IQUANT	3	Ich Filter
VCHRANGE	IQUANT	3	Vch Range
VCHRANGEMODE	TOGGLE	T	Vch Auto Range
VCHOFFSETENABLE	TOGGLE	F	Vch Offset Enable
VCHOFFSET	QUANT	0	Vch Offset (V)
VCHFILTER	IQUANT	3	Vch Filter
IERANGELOWERLIMIT	IQUANT	4	I/E Range Lower Limit
IERANGEMODE	TOGGLE	F	I/E AutoRange
IERANGE	IQUANT	9	I/E Range
ACHSELECT	IQUANT	0	Ach Select
ACHRANGE	IQUANT	2	Ach Range
ACHOFFSETENABLE	TOGGLE	F	Ach Offset Enable
ACHOFFSET	QUANT	0	Ach Offset (V)
ACHFILTER	IQUANT	1	Ach Filter
SENSECABLEID	IQUANT	14	Sense Cable ID
PWRCABLEID	IQUANT	14	Power Cable ID
DCCALDATE	LABEL	7/12/2022	DC Calibration Date
ACCALDATE	LABEL	4/2/2018	AC Calibration Date
FRAMEWORKVERSION	QUANT	7.06	Framework Version
INSTRUMENTVERSION	LABEL	4.30	Instrument Version
CURVE	TABLE	98
	Pt	T	Vf	Im	Vu	Sig	Ach	IERange	Over	Temp
	#	s	V vs. Ref.	A	V	V	V	#	bits	deg C
	0	-0.4	-7.50983E-001	-1.15365E-004	0.00000E+000	-7.50046E-001	0.00000E+000	9	...........	1426.40
	1	-0.3	-7.51069E-001	-1.15138E-004	0.00000E+000	-7.50046E-001	0.00000E+000	9	...........	1426.40
	2	-0.2	-7.51073E-001	-1.14881E-004	0.00000E+000	-7.50046E-001	0.00000E+000	9	...........	1426.40
	3	-0.1	-7.51073E-001	-1.14619E-004	0.00000E+000	-7.50046E-001	0.00000E+000	9	...........	1426.40
	4	0	-7.51091E-001	-1.14370E-004	0.00000E+000	-7.50046E-001	0.00000E+000	9	...........	1426.40
	5	0.1	-8.01098E-001	-3.08627E-004	0.00000E+000	-8.00059E-001	0.00000E+000	9	...........	1426.31
	6	0.2	-8.01086E-001	-2.57929E-004	0.00000E+000	-8.00059E-001	0.00000E+000	9	...........	1426.31
	7	0.3	-8.01089E-001	-2.27014E-004	0.00000E+000	-8.00059E-001	0.00000E+000	9	...........	1426.31
	8	0.4	-8.01086E-001	-2.06089E-004	0.00000E+000	-8.00059E-001	0.00000E+000	9	...........	1426.31
	9	0.5	-8.01095E-001	-1.91195E-004	0.00000E+000	-8.00059E-001	0.00000E+000	9	...........	1426.31
	10	0.6	-8.01094E-001	-1.80057E-004	0.00000E+000	-8.00059E-001	0.00000E+000	9	...........	1426.31
	11	0.7	-8.01096E-001	-1.71571E-004	0.00000E+000	-8.00059E-001	0.00000E+000	9	...........	1426.31
	12	0.8	-8.01100E-001	-1.64854E-004	0.00000E+000	-8.00059E-001	0.00000E+000	9	...........	1426.31
	13	0.9	-8.01105E-001	-1.59471E-004	0.00000E+000	-8.00059E-001	0.00000E+000	9	...........	1426.31
	14	1	-8.01089E-001	-1.55095E-004	0.00000E+000	-8.00059E-001	0.00000E+000	9	...........	1426.31
	15	1.1	-8.01082E-001	-1.51436E-004	0.00000E+000	-8.00059E-001	0.00000E+000	9	...........	1425.87
	16	1.2	-8.01091E-001	-1.48327E-004	0.00000E+000	-8.00059E-001	0.00000E+000	9	...........	1425.87
	17	1.3	-8.01076E-001	-1.45729E-004	0.00000E+000	-8.00059E-001	0.00000E+000	9	...........	1425.87
	18	1.4	-8.01077E-001	-1.43397E-004	0.00000E+000	-8.00059E-001	0.00000E+000	9	...........	1425.87
	19	1.5	-8.01097E-001	-1.41559E-004	0.00000E+000	-8.00059E-001	0.00000E+000	9	...........	1425.87
	20	1.6	-8.01088E-001	-1.39796E-004	0.00000E+000	-8.00059E-001	0.00000E+000	9	...........	1425.87
	21	1.7	-8.01092E-001	-1.38322E-004	0.00000E+000	-8.00059E-001	0.00000E+000	9	...........	1425.87
	22	1.8	-8.01090E-001	-1.36968E-004	0.00000E+000	-8.00059E-001	0.00000E+000	9	...........	1425.87
	23	1.9	-8.01089E-001	-1.35738E-004	0.00000E+000	-8.00059E-001	0.00000E+000	9	...........	1425.87
	24	2	-8.01087E-001	-1.34556E-004	0.00000E+000	-8.00059E-001	0.00000E+000	9	...........	1425.87
	25	2.1	-8.01088E-001	-1.33608E-004	0.00000E+000	-8.00059E-001	0.00000E+000	9	...........	1425.87
	26	2.2	-8.01093E-001	-1.32727E-004	0.00000E+000	-8.00059E-001	0.00000E+000	9	...........	1425.87
	27	2.3	-8.01088E-001	-1.31967E-004	0.00000E+000	-8.00059E-001	0.00000E+000	9	...........	1425.87
	28	2.4	-8.01078E-001	-1.31238E-004	0.00000E+000	-8.00059E-001	0.00000E+000	9	...........	1425.87
	29	2.5	-8.01079E-001	-1.30523E-004	0.00000E+000	-8.00059E-001	0.00000E+000	9	...........	1425.87
	30	2.6	-8.01079E-001	-1.29811E-004	0.00000E+000	-8.00059E-001	0.00000E+000	9	...........	1425.87
	31	2.7	-8.01092E-001	-1.29209E-004	0.00000E+000	-8.00059E-001	0.00000E+000	9	...........	1425.87
	32	2.8	-8.01090E-001	-1.28716E-004	0.00000E+000	-8.00059E-001	0.00000E+000	9	...........	1425.87
	33	2.9	-8.01100E-001	-1.28208E-004	0.00000E+000	-8.00059E-001	0.00000E+000	9	...........	1425.87
	34	3	-8.01094E-001	-1.27677E-004	0.00000E+000	-8.00059E-001	0.00000E+000	9	...........	1425.87
	35	3.1	-8.01098E-001	-1.27264E-004	0.00000E+000	-8.00059E-001	0.00000E+000	9	...........	1426.13
	36	3.2	-8.01094E-001	-1.26816E-004	0.00000E+000	-8.00059E-001	0.00000E+000	9	...........	1426.13
	37	3.3	-8.01089E-001	-1.26444E-004	0.00000E+000	-8.00059E-001	0.00000E+000	9	...........	1426.13
	38	3.4	-8.01081E-001	-1.26062E-004	0.00000E+000	-8.00059E-001	0.00000E+000	9	...........	1426.13
	39	3.5	-8.01090E-001	-1.25658E-004	0.00000E+000	-8.00059E-001	0.00000E+000	9	...........	1426.13
	40	3.6	-8.01089E-001	-1.25315E-004	0.00000E+000	-8.00059E-001	0.00000E+000	9	...........	1426.13
	41	3.7	-8.01096E-001	-1.25048E-004	0.00000E+000	-8.00059E-001	0.00000E+000	9	...........	1426.13
	42	3.8	-8.01096E-001	-1.24748E-004	0.00000E+000	-8.00059E-001	0.00000E+000	9	...........	1426.13
	43	3.9	-8.01098E-001	-1.24444E-004	0.00000E+000	-8.00059E-001	0.00000E+000	9	...........	1426.13
	44	4	-8.01092E-001	-1.24166E-004	0.00000E+000	-8.00059E-001	0.00000E+000	9	...........	1426.13
	45	4.1	-8.01076E-001	-1.23849E-004	0.00000E+000	-8.00059E-001	0.00000E+000	9	...........	1426.22
	46	4.2	-8.01089E-001	-1.23651E-004	0.00000E+000	-8.00059E-001	0.00000E+000	9	...........	1426.22
	47	4.3	-8.01084E-001	-1.23454E-004	0.00000E+000	-8.00059E-001	0.00000E+000	9	...........	1426.22
	48	4.4	-8.01086E-001	-1.23155E-004	0.00000E+000	-8.00059E-001	0.00000E+000	9	...........	1426.22
	49	4.5	-8.01084E-001	-1.22882E-004	0.00000E+000	-8.00059E-001	0.00000E+000	9	...........	1426.22
	50	4.6	-8.01081E-001	-1.22673E-004	0.00000E+000	-8.00059E-001	0.00000E+000	9	...........	1426.22
	51	4.7	-8.01098E-001	-1.22589E-004	0.00000E+000	-8.00059E-001	0.00000E+000	9	...........	1426.22
	52	4.8	-8.01087E-001	-1.22352E-004	0.00000E+000	-8.00059E-001	0.00000E+000	9	...........	1426.22
	53	4.9	-8.01084E-001	-1.22159E-004	0.00000E+000	-8.00059E-001	0.00000E+000	9	...........	1426.22
	54	5	-8.01083E-001	-1.21944E-004	0.00000E+000	-8.00059E-001	0.00000E+000	9	...........	1426.22
	55	5.1	-8.01076E-001	-1.21702E-004	0.00000E+000	-8.00059E-001	0.00000E+000	9	...........	1426.31
	56	5.2	-8.01095E-001	-1.21670E-004	0.00000E+000	-8.00059E-001	0.00000E+000	9	...........	1426.31
	57	5.3	-8.01091E-001	-1.21402E-004	0.00000E+000	-8.00059E-001	0.00000E+000	9	...........	1426.31
	58	5.4	-8.01088E-001	-1.21263E-004	0.00000E+000	-8.00059E-001	0.00000E+000	9	...........	1426.31
	59	5.5	-8.01093E-001	-1.21181E-004	0.00000E+000	-8.00059E-001	0.00000E+000	9	...........	1426.31
	60	5.6	-8.01092E-001	-1.21021E-004	0.00000E+000	-8.00059E-001	0.00000E+000	9	...........	1426.31
	61	5.7	-8.01092E-001	-1.20872E-004	0.00000E+000	-8.00059E-001	0.00000E+000	9	...........	1426.31
	62	5.8	-8.01085E-001	-1.20680E-004	0.00000E+000	-8.00059E-001	0.00000E+000	9	...........	1426.31
	63	5.9	-8.01103E-001	-1.20564E-004	0.00000E+000	-8.00059E-001	0.00000E+000	9	...........	1426.31
	64	6	-8.01095E-001	-1.20419E-004	0.00000E+000	-8.00059E-001	0.00000E+000	9	...........	1426.31
	65	6.1	-8.01092E-001	-1.20347E-004	0.00000E+000	-8.00059E-001	0.00000E+000	9	...........	1426.31
	66	7.1	-8.01090E-001	-1.19211E-004	0.00000E+000	-8.00059E-001	0.00000E+000	9	...........	1425.87
	67	8.1	-8.01091E-001	-1.18362E-004	0.00000E+000	-8.00059E-001	0.00000E+000	9	...........	1426.31
	68	9.1	-8.01102E-001	-1.17674E-004	0.00000E+000	-8.00059E-001	0.00000E+000	9	...........	1426.31
	69	10.1	-8.01118E-001	-1.17064E-004	0.00000E+000	-8.00059E-001	0.00000E+000	9	...........	1426.31
	70	11.1	-8.01087E-001	-1.16635E-004	0.00000E+000	-8.00059E-001	0.00000E+000	9	...........	1426.31
	71	12.1	-8.01098E-001	-1.16194E-004	0.00000E+000	-8.00059E-001	0.00000E+000	9	...........	1426.31
	72	13.1	-8.01092E-001	-1.15774E-004	0.00000E+000	-8.00059E-001	0.00000E+000	9	...........	1426.31
	73	14.1	-8.01091E-001	-1.15471E-004	0.00000E+000	-8.00059E-001	0.00000E+000	9	...........	1426.31
	74	15.1	-8.01093E-001	-1.15168E-004	0.00000E+000	-8.00059E-001	0.00000E+000	9	...........	1426.31
	75	16.1	-8.01106E-001	-1.14894E-004	0.00000E+000	-8.00059E-001	0.00000E+000	9	...........	1426.31
	76	26.1	-8.01103E-001	-1.13139E-004	0.00000E+000	-8.00059E-001	0.00000E+000	9	...........	1426.31
	77	36.1	-8.01096E-001	-1.12396E-004	0.00000E+000	-8.00059E-001	0.00000E+000	9	...........	1426.40
	78	46.1	-8.01103E-001	-1.11716E-004	0.00000E+000	-8.00059E-001	0.00000E+000	9	...........	1426.31
	79	56.1	-8.01086E-001	-1.11335E-004	0.00000E+000	-8.00059E-001	0.00000E+000	9	...........	1426.31
	80	66.1	-8.01100E-001	-1.11001E-004	0.00000E+000	-8.00059E-001	0.00000E+000	9	...........	1426.31
	81	76.1	-8.01093E-001	-1.10692E-004	0.00000E+000	-8.00059E-001	0.00000E+000	9	...........	1426.31
	82	86.1	-8.01088E-001	-1.10520E-004	0.00000E+000	-8.00059E-001	0.00000E+000	9	...........	1426.40
	83	96.1	-8.01088E-001	-1.10482E-004	0.00000E+000	-8.00059E-001	0.00000E+000	9	...........	1426.40
	84	106.1	-8.01095E-001	-1.10470E-004	0.00000E+000	-8.00059E-001	0.00000E+000	9	...........	1426.40
	85	116.1	-8.01090E-001	-1.10407E-004	0.00000E+000	-8.00059E-001	0.00000E+000	9	...........	1426.40
	86	216.1	-8.01097E-001	-1.10639E-004	0.00000E+000	-8.00059E-001	0.00000E+000	9	...........	1426.40
	87	300	-8.01084E-001	-1.10928E-004	0.00000E+000	-8.00059E-001	0.00000E+000	9	...........	1426.40
	88	300.1	-7.51062E-001	3.84468E-005	0.00000E+000	-7.50046E-001	0.00000E+000	9	...........	1426.40
	89	300.2	-7.51080E-001	-2.51981E-005	0.00000E+000	-7.50046E-001	0.00000E+000	9	...........	1426.40
	90	300.3	-7.51088E-001	-5.56723E-005	0.00000E+000	-7.50046E-001	0.00000E+000	9	...........	1426.40
	91	300.4	-7.51094E-001	-7.15777E-005	0.00000E+000	-7.50046E-001	0.00000E+000	9	...........	1426.40
	92	300.5	-7.51088E-001	-8.05233E-005	0.00000E+000	-7.50046E-001	0.00000E+000	9	...........	1426.40
	93	300.6	-7.51068E-001	-8.58495E-005	0.00000E+000	-7.50046E-001	0.00000E+000	9	...........	1426.40
	94	300.7	-7.51068E-001	-8.92254E-005	0.00000E+000	-7.50046E-001	0.00000E+000	9	...........	1426.40
	95	300.8	-7.51067E-001	-9.14210E-005	0.00000E+000	-7.50046E-001	0.00000E+000	9	...........	1426.40
	96	300.9	-7.51078E-001	-9.30491E-005	0.00000E+000	-7.50046E-001	0.00000E+000	9	...........	1426.40
	97	301	-7.51085E-001	-9.42170E-005	0.00000E+000	-7.50046E-001	0.00000E+000	9	...........	1426.40
