Data from AgNPs_FTO_APTES_UA_100um_CRN_0.1mM_R6G_10uM_NaF_0.1M_Addition_RamanShift__4__15-49-39-275.txt Node

Date: Tue Dec 21 15:49:39 GMT 2021
User: TCL
Spectrometer: QEP01345
Trigger mode: 4
Integration Time (sec): 7.000000E0
Scans to average: 10
Electric dark correction enabled: true
Nonlinearity correction enabled: false
Boxcar width: 0
XAxis mode: Raman Shifts
Number of Pixels in Spectrum: 1044
>>>>>Begin Spectral Data<<<<<
46.04893	0.5
50.45542	-0.7
54.85868	-0.6
59.25871	0.1
63.6555	33.6
68.04907	37.8
72.43941	41.1
76.82654	45.7
81.21044	47.3
85.59113	45.7
89.96862	47.9
94.34289	50.5
98.71396	51
103.08183	56.1
107.4465	57.6
111.80798	59.8
116.16626	57.4
120.52136	57.8
124.87327	59.1
129.222	59.5
133.56755	62.9
137.90993	70.3
142.24913	71.8
146.58517	76.2
150.91804	91.8
155.24774	101.4
159.57429	122.6
163.89768	156.4
168.21792	204.2
172.53501	269.8
176.84895	375.2
181.15975	521.5
185.46741	732.8
189.77193	1008.7
194.07331	1365.6
198.37157	1745.3
202.6667	2161.1
206.9587	2589
211.24758	3002.8
215.53334	3419.9
219.81599	3848.4
224.09553	4351
228.37195	4890.9
232.64527	5520.3
236.91549	6139.1
241.18261	6747
245.44663	7329
249.70755	7813.2
253.96539	8250.7
258.22014	8593.4
262.4718	8869.7
266.72039	9112.4
270.96589	9221.8
275.20832	9229.5
279.44768	9145.7
283.68397	9027.1
287.91719	8907.7
292.14735	8873.7
296.37445	8879.1
300.59849	8974.3
304.81948	9055.5
309.03742	9082.3
313.25231	9012.9
317.46415	8776.1
321.67296	8456.3
325.87872	8173
330.08145	8023.9
334.28114	8017.3
338.47781	8056
342.67145	8186.4
346.86207	8319.4
351.04966	8530.4
355.23424	8727.7
359.4158	8938.8
363.59435	9079.9
367.76989	9177
371.94243	9218.7
376.11196	9251.6
380.27849	9308.4
384.44203	9361.3
388.60257	9380
392.76012	9433.8
396.91468	9543.1
401.06626	9651.1
405.21485	9778.8
409.36047	9687.4
413.50311	9452.4
417.64277	9207.9
421.77947	9070.1
425.9132	9011.3
430.04396	8988.4
434.17176	9039.4
438.2966	9086.5
442.41849	9149.1
446.53742	9300.8
450.6534	9439.8
454.76644	9567.9
458.87653	9641.3
462.98368	9665.7
467.08789	9622.5
471.18916	9569.7
475.2875	9546
479.38291	9506.8
483.4754	9434.3
487.56496	9388.4
491.6516	9308.6
495.73531	9200.3
499.81612	9159.8
503.89401	9165.2
507.96899	9194
512.04106	9188.6
516.11023	9240.3
520.1765	9241.4
524.23987	9206.8
528.30034	9130.9
532.35792	9045.4
536.41261	8970.8
540.46441	8877.4
544.51333	8832.7
548.55936	8892.1
552.60252	9032.6
556.64279	9183.5
560.6802	9268.4
564.71473	9306.4
568.7464	9436.3
572.7752	9621.8
576.80114	9683.7
580.82422	9659.6
584.84444	9684.9
588.86181	9726.5
592.87633	9703.4
596.888	9698.9
600.89682	9757.8
604.9028	10181.5
608.90594	11389.9
612.90624	12973
616.90371	12668.5
620.89834	10391.7
624.89015	9244
628.87913	9104.3
632.86528	9250.3
636.84862	9445.5
640.82913	9413.4
644.80683	9105.4
648.78172	8855.8
652.75379	8703.8
656.72306	8760.8
660.68952	8908.8
664.65319	8865
668.61405	8651.3
672.57211	8567.3
676.52738	8575.9
680.47986	8595.2
684.42955	8564.1
688.37646	8481.8
692.32058	8463.2
696.26192	8493.2
700.20048	8543.7
704.13626	8558.6
708.06928	8589.9
711.99952	8569.5
715.927	8554.8
719.85171	8560.6
723.77365	8571.5
727.69284	8528.2
731.60928	8465.8
735.52295	8411.2
739.43388	8373.2
743.34206	8374.5
747.24749	8401.6
751.15017	8449.3
755.05012	8533.7
758.94733	8697.5
762.8418	9151.1
766.73354	9958.3
770.62254	10878
774.50882	11389
778.39237	10994.2
782.27321	10004.3
786.15132	9116.9
790.02671	8608.6
793.89938	8347.6
797.76935	8257.8
801.6366	8202.5
805.50115	8186.1
809.36299	8191.7
813.22213	8195.4
817.07857	8197.5
820.93231	8168.2
824.78336	8110
828.63172	8071.9
832.47738	8049.9
836.32036	8011.3
840.16066	7982
843.99827	7950.6
847.8332	7921.7
851.66546	7903.3
855.49504	7886.7
859.32195	7872.8
863.1462	7863.5
866.96777	7830.3
870.78668	7840.5
874.60293	7876.9
878.41652	7861.9
882.22745	7893.5
886.03573	7949
889.84136	7940.4
893.64433	7942.4
897.44466	7875.4
901.24235	7821.6
905.0374	7763.1
908.8298	7712.7
912.61957	7687.7
916.40671	7703.2
920.19121	7758.7
923.97308	7782.7
927.75233	7792.5
931.52895	7772
935.30295	7702.9
939.07433	7584.3
942.84309	7446
946.60924	7355.8
950.37278	7318.3
954.13371	7309.4
957.89203	7286.6
961.64774	7263.5
965.40086	7237.1
969.15137	7203.7
972.89929	7182.9
976.64461	7164.9
980.38733	7153.2
984.12747	7117.5
987.86502	7129
991.59999	7159.4
995.33237	7184.5
999.06217	7223.6
1002.78939	7322
1006.51404	7389.1
1010.23611	7494.5
1013.95561	7565.8
1017.67255	7570.7
1021.38692	7520.3
1025.09872	7462.7
1028.80796	7382.5
1032.51465	7363.2
1036.21877	7365.8
1039.92035	7393.8
1043.61937	7426.4
1047.31584	7431.5
1051.00976	7455.9
1054.70114	7475.3
1058.38998	7491.6
1062.07627	7537.1
1065.76003	7596.5
1069.44126	7662.9
1073.11995	7743.4
1076.79611	7800.7
1080.46974	7863
1084.14085	7884.7
1087.80943	7928.4
1091.47549	7975.9
1095.13903	8002.2
1098.80005	7909.1
1102.45857	7736.9
1106.11456	7604.4
1109.76805	7549.7
1113.41903	7602.4
1117.06751	7712.1
1120.71348	7875.2
1124.35696	8069.7
1127.99793	8305.3
1131.63641	8417.9
1135.2724	8358.4
1138.90589	8160.8
1142.5369	8026.5
1146.16542	7925.6
1149.79145	7844.7
1153.415	7804.2
1157.03607	7801.1
1160.65467	7864.3
1164.27079	8057.3
1167.88443	8369.2
1171.49561	8776.9
1175.10432	9426.4
1178.71056	10267.4
1182.31434	10954.7
1185.91565	11249.7
1189.51451	11143.6
1193.11091	10766.1
1196.70485	10317.6
1200.29634	9917.3
1203.88538	9608.1
1207.47197	9280.8
1211.05612	8966.2
1214.63782	8737
1218.21708	8533.1
1221.79391	8384.2
1225.36829	8280.3
1228.94024	8217.7
1232.50976	8187.8
1236.07685	8132.9
1239.6415	8135
1243.20374	8145.9
1246.76355	8184
1250.32093	8257.1
1253.8759	8361
1257.42845	8531.1
1260.97859	8724
1264.52631	8909.3
1268.07163	9095.8
1271.61453	9247.4
1275.15503	9406.4
1278.69312	9529.7
1282.22882	9656.7
1285.76211	9858
1289.29301	10154.1
1292.82151	10466.7
1296.34761	10879.1
1299.87133	11299.5
1303.39266	11924.8
1306.9116	12600.2
1310.42815	13323.8
1313.94233	13763.7
1317.45412	13655.7
1320.96354	13281.6
1324.47058	12832.2
1327.97525	12395.6
1331.47754	12052.2
1334.97747	11879.1
1338.47502	11779
1341.97022	11788.2
1345.46305	11902.7
1348.95352	12156
1352.44163	12504.3
1355.92738	13110.5
1359.41078	14099.6
1362.89183	15283.9
1366.37053	15344.7
1369.84688	13884.6
1373.32088	12074
1376.79254	10837.2
1380.26186	10217.3
1383.72883	9941.6
1387.19347	9774.8
1390.65578	9559.4
1394.11575	9415.4
1397.57339	9320.9
1401.0287	9261.6
1404.48168	9205.8
1407.93234	9098.6
1411.38068	8922.6
1414.82669	8729.6
1418.27039	8518.5
1421.71177	8291.6
1425.15083	8142.4
1428.58758	8000.1
1432.02203	7952.6
1435.45416	8048.3
1438.88399	8135.7
1442.31151	8205
1445.73673	8291.6
1449.15965	8416.3
1452.58027	8472.8
1455.9986	8519.6
1459.41463	8574.6
1462.82837	8650.1
1466.23982	8777.6
1469.64898	8887.6
1473.05586	8981.9
1476.46045	9029.8
1479.86276	9070.6
1483.26279	9137.7
1486.66054	9208.6
1490.05602	9396.1
1493.44922	9656.4
1496.84016	10112.4
1500.22882	10821.8
1503.61521	11821
1506.99934	12900.8
1510.38121	13844.1
1513.76081	14100.8
1517.13816	13550.6
1520.51324	12439.4
1523.88607	11339.6
1527.25665	10596.3
1530.62498	10168.3
1533.99105	9895.4
1537.35488	9690
1540.71647	9485.3
1544.07581	9270.1
1547.4329	9073.3
1550.78776	8971.7
1554.14038	8908.6
1557.49077	8932.3
1560.83892	9059.3
1564.18484	9205
1567.52853	9372.3
1570.86999	9555.8
1574.20922	9725.1
1577.54624	9777.4
1580.88103	9589.1
1584.2136	9289.7
1587.54395	9047.7
1590.87208	9037.4
1594.19801	9237.4
1597.52172	9553.9
1600.84321	9704.3
1604.16251	9438.8
1607.47959	8984.6
1610.79447	8535.8
1614.10715	8095.2
1617.41763	7648.7
1620.7259	7351.1
1624.03199	7196.6
1627.33587	7136.6
1630.63757	7222.9
1633.93707	7438.9
1637.23439	7854.9
1640.52951	8512.3
1643.82246	9401.1
1647.11321	10432.6
1650.40179	11202.2
1653.68819	11172.7
1656.97241	10170
1660.25446	8938.9
1663.53433	7890.1
1666.81203	7208.7
1670.08756	6764.1
1673.36092	6478.8
1676.63211	6308.3
1679.90115	6159.7
1683.16801	6076.1
1686.43272	5997.2
1689.69527	5960.5
1692.95567	5927.4
1696.2139	5917.9
1699.46999	5897.4
1702.72392	5861.2
1705.97571	5790.5
1709.22535	5723.7
1712.47284	5677
1715.71819	5621.4
1718.96139	5594.1
1722.20246	5539.9
1725.44139	5506.5
1728.67818	5478.2
1731.91284	5433
1735.14537	5398.4
1738.37576	5375.5
1741.60403	5348.5
1744.83017	5345.8
1748.05418	5351.4
1751.27607	5327.5
1754.49584	5314.1
1757.71349	5330.5
1760.92903	5305
1764.14244	5290.7
1767.35375	5280.2
1770.56294	5248.7
1773.77002	5236.9
1776.97499	5208.5
1780.17785	5162.6
1783.37861	5154.8
1786.57727	5128.6
1789.77382	5129.2
1792.96828	5118.2
1796.16064	5088.5
1799.3509	5068.9
1802.53907	5047
1805.72514	5043.3
1808.90913	5004.3
1812.09102	4989.7
1815.27083	4964.7
1818.44856	4950
1821.6242	4950.8
1824.79776	4935.3
1827.96924	4916.7
1831.13864	4920.3
1834.30597	4907.4
1837.47122	4900.5
1840.6344	4883.4
1843.7955	4886.2
1846.95454	4874.8
1850.11151	4852.2
1853.26642	4862.5
1856.41926	4853.6
1859.57004	4854
1862.71876	4825.2
1865.86542	4822.3
1869.01003	4820.9
1872.15258	4800.3
1875.29308	4815.1
1878.43152	4791.7
1881.56792	4779.4
1884.70227	4772.5
1887.83457	4760.9
1890.96482	4754.3
1894.09304	4739.2
1897.21921	4724.8
1900.34335	4730.6
1903.46544	4716.6
1906.58551	4707.2
1909.70353	4703.5
1912.81953	4683.8
1915.93349	4687.5
1919.04543	4672
1922.15534	4660.7
1925.26322	4645.9
1928.36908	4632.7
1931.47292	4612.7
1934.57473	4612.8
1937.67453	4597.1
1940.77232	4570.9
1943.86808	4552.7
1946.96184	4554.5
1950.05358	4526.3
1953.14331	4503.3
1956.23103	4507.4
1959.31675	4486.1
1962.40046	4467.3
1965.48217	4448.5
1968.56188	4443.1
1971.63959	4422.6
1974.7153	4401.8
1977.78901	4394.3
1980.86073	4387.6
1983.93046	4359.8
1986.99819	4351.1
1990.06394	4330.2
1993.1277	4304.7
1996.18947	4284.7
1999.24925	4272.9
2002.30706	4260.3
2005.36288	4246.9
2008.41672	4226
2011.46859	4192.5
2014.51848	4202.2
2017.56639	4191.8
2020.61233	4168.9
2023.6563	4160.9
2026.6983	4144.5
2029.73833	4140.3
2032.7764	4102.6
2035.8125	4114.6
2038.84664	4096.4
2041.87881	4088.1
2044.90903	4075.6
2047.93729	4068.3
2050.96359	4061.1
2053.98794	4051.5
2057.01034	4045.9
2060.03078	4014.5
2063.04927	4015
2066.06582	4014.9
2069.08042	4014.3
2072.09307	4000.7
2075.10378	3997.6
2078.11255	4005.9
2081.11938	3995.8
2084.12426	3993.4
2087.12722	3990.2
2090.12824	3986.1
2093.12732	3982.3
2096.12447	3978.4
2099.11969	3982.2
2102.11299	3981.9
2105.10435	3980.8
2108.09379	3972.1
2111.08131	3974.3
2114.0669	3960
2117.05057	3966.6
2120.03233	3973
2123.01216	3957.4
2125.99008	3973.2
2128.96609	3975.8
2131.94018	3970.3
2134.91236	3974.2
2137.88263	3966.8
2140.851	3969.2
2143.81746	3962.2
2146.78201	3972.6
2149.74466	3966.9
2152.7054	3959.7
2155.66425	3940.2
2158.6212	3959.7
2161.57625	3946.8
2164.52941	3947
2167.48067	3944
2170.43004	3938.4
2173.37752	3918.3
2176.32311	3919.2
2179.26681	3921.4
2182.20863	3927.1
2185.14856	3902.7
2188.08661	3917.6
2191.02278	3899
2193.95707	3897.5
2196.88948	3885.6
2199.82001	3888.9
2202.74867	3883.3
2205.67545	3871.6
2208.60037	3862.9
2211.52341	3864.7
2214.44458	3852.8
2217.36388	3833.5
2220.28132	3832.6
2223.1969	3809.7
2226.11061	3813.5
2229.02246	3781.1
2231.93245	3788.2
2234.84058	3780.3
2237.74686	3773
2240.65128	3765.4
2243.55385	3758.4
2246.45456	3760.3
2249.35343	3740.8
2252.25044	3753.5
2255.14561	3731.3
2258.03893	3729.6
2260.93041	3719.1
2263.82004	3721.1
2266.70783	3697.5
2269.59378	3688.7
2272.4779	3681.3
2275.36017	3667.4
2278.24061	3663.8
2281.11922	3653.9
2283.996	3635.8
2286.87094	3628.6
2289.74405	3612.2
2292.61534	3622.4
2295.4848	3606
2298.35243	3583.3
2301.21824	3583.8
2304.08223	3596.8
2306.94439	3579.7
2309.80474	3563.9
2312.66327	3576.9
2315.51999	3575.7
2318.37489	3557.1
2321.22797	3555.9
2324.07925	3550.5
2326.92871	3548.8
2329.77637	3531.9
2332.62222	3528.2
2335.46626	3522.1
2338.3085	3514.1
2341.14893	3499
2343.98756	3514.6
2346.8244	3498.8
2349.65943	3499.3
2352.49267	3498.1
2355.32411	3490.2
2358.15376	3497.7
2360.98161	3502.7
2363.80768	3499.2
2366.63195	3483.3
2369.45444	3491.4
2372.27514	3470.6
2375.09405	3471.1
2377.91118	3473.3
2380.72652	3448.1
2383.54009	3443.6
2386.35187	3439.4
2389.16188	3429.5
2391.97011	3397.7
2394.77657	3400.4
2397.58125	3393.9
2400.38416	3378.2
2403.18529	3375.8
2405.98466	3368.8
2408.78226	3343.5
2411.57809	3353
2414.37216	3330.8
2417.16446	3343.1
2419.955	3328.8
2422.74378	3327.5
2425.5308	3320.5
2428.31606	3324.7
2431.09956	3319.3
2433.88131	3294.6
2436.6613	3319.1
2439.43954	3309.5
2442.21603	3310.9
2444.99077	3305.1
2447.76377	3295.7
2450.53501	3287.8
2453.30451	3299.8
2456.07226	3284.8
2458.83827	3285.8
2461.60254	3271.1
2464.36507	3271
2467.12586	3267.4
2469.88492	3266.2
2472.64224	3268.7
2475.39782	3276.9
2478.15167	3275.3
2480.90379	3260.5
2483.65417	3268.7
2486.40283	3257.5
2489.14976	3261.7
2491.89497	3257.8
2494.63845	3260.2
2497.3802	3265.5
2500.12024	3243.8
2502.85855	3240.8
2505.59514	3235.8
2508.33002	3217.6
2511.06318	3210.3
2513.79462	3208.7
2516.52435	3197.9
2519.25237	3179.4
2521.97867	3186.5
2524.70327	3189.4
2527.42616	3165.3
2530.14734	3167.2
2532.86681	3156.6
2535.58458	3142.9
2538.30065	3145.9
2541.01501	3140.1
2543.72768	3137.6
2546.43864	3128.5
2549.14791	3141.7
2551.85548	3122.3
2554.56136	3110.2
2557.26554	3107.2
2559.96803	3107.9
2562.66883	3102.3
2565.36794	3077.2
2568.06536	3078
2570.7611	3083.7
2573.45514	3060.2
2576.14751	3069.5
2578.83819	3053.9
2581.52719	3054.4
2584.21451	3054.7
2586.90015	3039.9
2589.58411	3043
2592.2664	3027.1
2594.94701	3024.6
2597.62594	3018.4
2600.30321	3000.1
2602.9788	3004.1
2605.65273	2999.1
2608.32498	2993.9
2610.99557	3006.2
2613.66449	2995.4
2616.33175	2969.9
2618.99734	2984.4
2621.66128	2984.4
2624.32355	2967.8
2626.98416	2966.3
2629.64311	2951.4
2632.30041	2954.1
2634.95605	2952.2
2637.61004	2935.9
2640.26238	2930.5
2642.91306	2926.5
2645.56209	2931.8
2648.20948	2921.3
2650.85521	2929.8
2653.4993	2921.4
2656.14175	2913.3
2658.78255	2912.3
2661.42171	2911.3
2664.05923	2923.1
2666.6951	2926.1
2669.32934	2911.3
2671.96194	2912.3
2674.59291	2914.4
2677.22224	2918.5
2679.84993	2910
2682.476	2898
2685.10043	2916.2
2687.72324	2910.2
2690.34441	2903.2
2692.96396	2909.3
2695.58188	2907
2698.19818	2900.5
2700.81285	2902.2
2703.4259	2930.8
2706.03733	2970.9
2708.64714	2935.4
2711.25533	2904.2
2713.86191	2899.6
2716.46687	2896.5
2719.07021	2915
2721.67194	2894.8
2724.27206	2893.4
2726.87057	2887
2729.46747	2890.3
2732.06276	2894.8
2734.65644	2887.1
2737.24852	2881.9
2739.83899	2873.7
2742.42786	2882.7
2745.01513	2867.5
2747.60079	2863.8
2750.18486	2872.1
2752.76733	2848.9
2755.3482	2860.9
2757.92747	2861
2760.50515	2850.5
2763.08123	2831.2
2765.65573	2838.4
2768.22863	2836.3
2770.79994	2833.6
2773.36967	2838.3
2775.9378	2829.2
2778.50435	2813.2
2781.06932	2814.3
2783.6327	2811.4
2786.1945	2803.1
2788.75471	2794.5
2791.31335	2778.5
2793.87041	2793.1
2796.42589	2775.9
2798.97979	2778
2801.53212	2770.8
2804.08288	2759.7
2806.63206	2763.2
2809.17967	2760.3
2811.72571	2752.8
2814.27018	2748.6
2816.81308	2751.7
2819.35442	2739.5
2821.89419	2740.7
2824.43239	2737.1
2826.96904	2738.2
2829.50412	2742.7
2832.03763	2737
2834.56959	2726.9
2837.1	2709
2839.62884	2717.8
2842.15613	2723
2844.68186	2740.4
2847.20604	2736.3
2849.72867	2737.3
2852.24974	2742.3
2854.76927	2753.9
2857.28724	2758.3
2859.80367	2744.8
2862.31855	2720.7
2864.83189	2722.1
2867.34368	2724.7
2869.85393	2719.4
2872.36264	2711
2874.8698	2719.9
2877.37543	2719.5
2879.87952	2722
2882.38207	2705.8
2884.88308	2711.7
2887.38256	2706.1
2889.88051	2707.6
2892.37692	2711.9
2894.8718	2700.4
2897.36515	2710.1
2899.85698	2714.4
2902.34727	2708.9
2904.83604	2708.5
2907.32328	2716.2
2909.809	2712.7
2912.29319	2709.3
2914.77587	2729.9
2917.25702	2711.8
2919.73665	2706.6
2922.21476	2713
2924.69136	2715.2
2927.16644	2709.1
2929.64	2717.1
2932.11205	2704.3
2934.58258	2694.7
2937.05161	2703.5
2939.51912	2695
2941.98513	2700.5
2944.44962	2684.9
2946.91261	2678.1
2949.37409	2682.2
2951.83407	2680
2954.29254	2666.7
2956.74951	2653.6
2959.20498	2661.3
2961.65895	2656.3
2964.11142	2637.1
2966.56239	2626.8
2969.01186	2634
2971.45984	2616.8
2973.90632	2612.7
2976.35131	2614
2978.7948	2599.5
2981.23681	2605.6
2983.67732	2602.5
2986.11635	2593.7
2988.55388	2578.2
2990.98993	2576.9
2993.4245	2580
2995.85758	2571.9
2998.28917	2563.7
3000.71928	2570.3
3003.14791	2554.2
3005.57506	2548.5
3008.00073	2552.5
3010.42493	2543.6
3012.84764	2551.5
3015.26888	2561.2
3017.68865	2542.7
3020.10694	2536.8
3022.52376	2541.4
3024.9391	2521.2
3027.35298	2532
3029.76539	2527.5
3032.17632	2519.9
3034.5858	2526.1
3036.9938	2514.4
3039.40034	2517.9
3041.80542	2508.5
3044.20903	2506
3046.61118	2497.5
3049.01187	2496.2
3051.4111	2493.3
3053.80888	2493.5
3056.20519	2487.3
3058.60005	2496.8
3060.99345	2483
3063.3854	2487.3
3065.7759	2482.2
3068.16494	2475.2
3070.55254	2466.9
3072.93868	2480.9
3075.32338	2470.5
3077.70662	2466.2
3080.08842	2473.3
3082.46878	2453.8
3084.84769	2465.2
3087.22515	2463.1
3089.60118	2466.7
3091.97576	2461.9
3094.3489	2467.7
3096.72061	2469.5
3099.09087	2464.8
3101.4597	2471
3103.82709	2473
3106.19305	2465.9
3108.55757	2457
3110.92066	2465.8
3113.28232	2449.1
3115.64255	2455
3118.00134	2466.3
3120.35871	2457.1
3122.71466	2463.5
3125.06917	2450
3127.42226	2454.2
3129.77393	2455.5
3132.12417	2463.6
3134.47299	2454.5
3136.82039	2462
3139.16636	2472.6
3141.51092	2467.5
3143.85406	2470.5
3146.19579	2478.5
3148.53609	2480.3
3150.87499	2491
3153.21246	2492.4
3155.54853	2500.5
3157.88318	2498.2
3160.21642	2504.1
3162.54826	2505.5
3164.87868	2509
3167.2077	2523.4
3169.5353	2520.9
3171.86151	2526.9
3174.18631	2511.3
3176.5097	2517.3
3178.83169	2518.5
3181.15228	2515.8
3183.47147	2518.7
3185.78926	2513.1
3188.10565	2509.7
3190.42065	2528.7
3192.73424	2521.4
3195.04645	2513.5
3197.35725	2534
3199.66667	2541.5
3201.97469	2541.6
3204.28132	2542.2
3206.58656	2546.9
3208.8904	2552.7
3211.19287	2546.6
3213.49394	2546.1
3215.79363	2558.6
3218.09193	2561.5
3220.38884	2568.3
3222.68438	2578.7
3224.97853	2572.1
3227.2713	2564.9
3229.56269	2566.9
3231.8527	2560.8
3234.14133	2555.7
3236.42858	2542.8
3238.71446	2552.2
3240.99896	2545.1
3243.28209	2544.2
3245.56384	2530.4
3247.84423	2551
3250.12324	2540.1
3252.40088	2547.4
3254.67715	2542.4
3256.95205	2538.8
3259.22558	2532.1
3261.49775	2524.5
3263.76855	2518
3266.03799	2511.3
3268.30606	2515.6
3270.57277	2516.8
3272.83812	2507.6
3275.10211	2489.5
3277.36474	2496.4
3279.62601	2500.1
3281.88593	2499.7
3284.14448	2497.6
3286.40168	2485.3
3288.65753	2492.7
3290.91202	2484.1
3293.16516	2474.9
3295.41695	2473.1
3297.66738	2474.6
3299.91647	2455.6
3302.16421	2436.6
3304.4106	2414.9
3306.65564	2420.2
3308.89933	2400.4
3311.14169	2394
3313.38269	2382.1
3315.62236	2356.3
3317.86068	2341
3320.09766	2309.1
3322.3333	2305.9
3324.5676	2313.3
3326.80056	2282.8
3329.03219	2272.1
3331.26248	0.9
3333.49143	-0.8
3335.71905	0.1
