Data from AgNPs_FTO_APTES_UA_0um_CRN_0.1mM_R6G_10uM_NaF_0.1M_Addition_RamanShift__66__11-28-18-979.txt Node

Date: Tue Dec 21 11:28:18 GMT 2021
User: TCL
Spectrometer: QEP01345
Trigger mode: 4
Integration Time (sec): 7.000000E0
Scans to average: 10
Electric dark correction enabled: true
Nonlinearity correction enabled: false
Boxcar width: 0
XAxis mode: Raman Shifts
Number of Pixels in Spectrum: 1044
>>>>>Begin Spectral Data<<<<<
46.04893	-1.0625
50.45542	-0.1625
54.85868	1.1375
59.25871	0.7375
63.6555	30.5375
68.04907	34.1375
72.43941	38.0375
76.82654	37.5375
81.21044	41.8375
85.59113	42.6375
89.96862	46.4375
94.34289	45.6375
98.71396	47.6375
103.08183	50.0375
107.4465	54.7375
111.80798	49.8375
116.16626	52.7375
120.52136	55.4375
124.87327	54.1375
129.222	55.5375
133.56755	58.3375
137.90993	67.2375
142.24913	68.9375
146.58517	75.3375
150.91804	84.0375
155.24774	100.3375
159.57429	119.6375
163.89768	158.4375
168.21792	205.3375
172.53501	272.9375
176.84895	372.4375
181.15975	525.9375
185.46741	726.6375
189.77193	1002.7375
194.07331	1331.8375
198.37157	1715.9375
202.6667	2119.6375
206.9587	2521.2375
211.24758	2943.2375
215.53334	3379.1375
219.81599	3855.3375
224.09553	4386.0375
228.37195	4986.0375
232.64527	5620.2375
236.91549	6240.2375
241.18261	6795.5375
245.44663	7237.2375
249.70755	7586.3375
253.96539	7879.3375
258.22014	8106.4375
262.4718	8306.7375
266.72039	8462.4375
270.96589	8506.6375
275.20832	8496.6375
279.44768	8444.8375
283.68397	8351.5375
287.91719	8301.6375
292.14735	8335.8375
296.37445	8492.8375
300.59849	8817.5375
304.81948	9244.4375
309.03742	9606.9375
313.25231	9623.3375
317.46415	9187.1375
321.67296	8404.1375
325.87872	7689.0375
330.08145	7325.3375
334.28114	7266.3375
338.47781	7383.8375
342.67145	7602.7375
346.86207	7962.5375
351.04966	8500.2375
355.23424	9128.7375
359.4158	9628.2375
363.59435	9821.2375
367.76989	9791.6375
371.94243	9696.0375
376.11196	9531.9375
380.27849	9416.4375
384.44203	9282.7375
388.60257	9079.0375
392.76012	9008.8375
396.91468	9141.6375
401.06626	9457.6375
405.21485	9744.2375
409.36047	9588.3375
413.50311	9060.1375
417.64277	8535.0375
421.77947	8285.8375
425.9132	8178.2375
430.04396	8169.1375
434.17176	8219.5375
438.2966	8352.6375
442.41849	8653.7375
446.53742	9079.9375
450.6534	9488.5375
454.76644	9713.1375
458.87653	9706.4375
462.98368	9489.0375
467.08789	9203.9375
471.18916	8952.4375
475.2875	8661.6375
479.38291	8436.2375
483.4754	8237.8375
487.56496	8036.9375
491.6516	7912.0375
495.73531	7807.9375
499.81612	7801.4375
503.89401	7891.2375
507.96899	8007.7375
512.04106	8062.3375
516.11023	8127.8375
520.1765	8175.8375
524.23987	8137.7375
528.30034	8015.9375
532.35792	7810.8375
536.41261	7578.6375
540.46441	7324.8375
544.51333	7177.8375
548.55936	7190.7375
552.60252	7421.1375
556.64279	7719.8375
560.6802	7971.4375
564.71473	8260.3375
568.7464	8829.4375
572.7752	9281.7375
576.80114	9080.6375
580.82422	8751.6375
584.84444	8662.8375
588.86181	8710.5375
592.87633	8852.5375
596.888	9009.0375
600.89682	9174.9375
604.9028	10093.7375
608.90594	12836.4375
612.90624	16692.1375
616.90371	16178.8375
620.89834	10767.8375
624.89015	7984.0375
628.87913	7422.7375
632.86528	7472.2375
636.84862	7573.0375
640.82913	7428.6375
644.80683	7005.8375
648.78172	6687.6375
652.75379	6697.6375
656.72306	7082.7375
660.68952	7600.9375
664.65319	7537.0375
668.61405	7078.1375
672.57211	6803.8375
676.52738	6787.5375
680.47986	6782.0375
684.42955	6668.4375
688.37646	6605.5375
692.32058	6627.4375
696.26192	6737.7375
700.20048	6881.8375
704.13626	7019.5375
708.06928	7043.2375
711.99952	6934.2375
715.927	6845.9375
719.85171	6851.9375
723.77365	6803.9375
727.69284	6677.2375
731.60928	6598.0375
735.52295	6616.0375
739.43388	6650.3375
743.34206	6712.8375
747.24749	6756.1375
751.15017	6872.1375
755.05012	7084.5375
758.94733	7538.2375
762.8418	8556.4375
766.73354	10306.5375
770.62254	12150.5375
774.50882	13007.6375
778.39237	12460.5375
782.27321	10645.0375
786.15132	8685.2375
790.02671	7479.1375
793.89938	6954.6375
797.76935	6735.4375
801.6366	6658.5375
805.50115	6586.1375
809.36299	6541.0375
813.22213	6495.4375
817.07857	6445.7375
820.93231	6435.2375
824.78336	6460.7375
828.63172	6503.0375
832.47738	6540.5375
836.32036	6527.1375
840.16066	6466.8375
843.99827	6418.4375
847.8332	6347.8375
851.66546	6326.4375
855.49504	6310.1375
859.32195	6293.5375
863.1462	6250.7375
866.96777	6198.7375
870.78668	6165.2375
874.60293	6164.4375
878.41652	6195.5375
882.22745	6230.1375
886.03573	6267.8375
889.84136	6257.3375
893.64433	6199.0375
897.44466	6165.3375
901.24235	6161.4375
905.0374	6151.2375
908.8298	6100.1375
912.61957	6052.0375
916.40671	6117.5375
920.19121	6225.0375
923.97308	6339.0375
927.75233	6448.2375
931.52895	6537.3375
935.30295	6392.4375
939.07433	6103.7375
942.84309	5840.8375
946.60924	5695.5375
950.37278	5619.8375
954.13371	5579.4375
957.89203	5532.0375
961.64774	5522.9375
965.40086	5498.1375
969.15137	5462.5375
972.89929	5443.8375
976.64461	5432.1375
980.38733	5405.3375
984.12747	5433.1375
987.86502	5477.8375
991.59999	5538.1375
995.33237	5651.5375
999.06217	5825.1375
1002.78939	6101.8375
1006.51404	6358.6375
1010.23611	6552.1375
1013.95561	6666.8375
1017.67255	6574.4375
1021.38692	6348.1375
1025.09872	6106.5375
1028.80796	5981.0375
1032.51465	6024.9375
1036.21877	6135.4375
1039.92035	6261.2375
1043.61937	6367.6375
1047.31584	6347.4375
1051.00976	6301.3375
1054.70114	6254.3375
1058.38998	6198.2375
1062.07627	6207.9375
1065.76003	6234.4375
1069.44126	6344.7375
1073.11995	6538.2375
1076.79611	6685.6375
1080.46974	6814.8375
1084.14085	7042.8375
1087.80943	7297.6375
1091.47549	7422.9375
1095.13903	7281.6375
1098.80005	6912.1375
1102.45857	6541.7375
1106.11456	6346.6375
1109.76805	6350.3375
1113.41903	6497.7375
1117.06751	6770.6375
1120.71348	7132.7375
1124.35696	7585.8375
1127.99793	7982.0375
1131.63641	7966.0375
1135.2724	7506.4375
1138.90589	7071.6375
1142.5369	6810.4375
1146.16542	6673.7375
1149.79145	6626.3375
1153.415	6656.1375
1157.03607	6753.5375
1160.65467	6971.7375
1164.27079	7342.5375
1167.88443	7939.0375
1171.49561	8897.7375
1175.10432	10451.7375
1178.71056	12469.7375
1182.31434	13941.3375
1185.91565	14276.0375
1189.51451	13894.8375
1193.11091	13056.2375
1196.70485	11933.3375
1200.29634	10942.3375
1203.88538	10092.4375
1207.47197	9208.0375
1211.05612	8522.0375
1214.63782	8173.6375
1218.21708	8093.8375
1221.79391	8155.0375
1225.36829	8188.9375
1228.94024	8114.5375
1232.50976	8015.8375
1236.07685	7905.6375
1239.6415	7893.9375
1243.20374	7923.4375
1246.76355	7938.0375
1250.32093	8023.0375
1253.8759	8274.2375
1257.42845	8654.9375
1260.97859	9113.8375
1264.52631	9562.1375
1268.07163	10022.6375
1271.61453	10366.8375
1275.15503	10587.3375
1278.69312	10692.7375
1282.22882	10818.4375
1285.76211	11203.7375
1289.29301	11792.4375
1292.82151	12429.6375
1296.34761	13110.2375
1299.87133	14003.8375
1303.39266	15227.0375
1306.9116	17046.4375
1310.42815	19229.7375
1313.94233	20783.8375
1317.45412	20764.8375
1320.96354	19590.3375
1324.47058	18011.1375
1327.97525	16635.9375
1331.47754	15649.3375
1334.97747	15231.5375
1338.47502	15133.0375
1341.97022	15181.5375
1345.46305	15292.1375
1348.95352	15770.2375
1352.44163	16753.0375
1355.92738	18418.8375
1359.41078	21081.3375
1362.89183	23729.9375
1366.37053	23636.3375
1369.84688	20539.5375
1373.32088	16893.5375
1376.79254	14297.0375
1380.26186	13009.4375
1383.72883	12358.5375
1387.19347	11910.8375
1390.65578	11387.6375
1394.11575	11090.0375
1397.57339	11132.7375
1401.0287	11458.9375
1404.48168	11748.8375
1407.93234	11937.1375
1411.38068	11930.9375
1414.82669	11679.8375
1418.27039	11144.6375
1421.71177	10542.8375
1425.15083	10047.2375
1428.58758	9783.9375
1432.02203	9828.5375
1435.45416	10028.3375
1438.88399	10207.8375
1442.31151	10297.0375
1445.73673	10411.8375
1449.15965	10561.0375
1452.58027	10599.5375
1455.9986	10458.7375
1459.41463	10413.0375
1462.82837	10595.7375
1466.23982	10919.8375
1469.64898	11254.9375
1473.05586	11539.6375
1476.46045	11683.3375
1479.86276	11871.7375
1483.26279	12071.1375
1486.66054	12252.1375
1490.05602	12542.8375
1493.44922	12935.9375
1496.84016	13471.9375
1500.22882	14417.4375
1503.61521	15889.3375
1506.99934	17687.6375
1510.38121	19481.7375
1513.76081	20580.3375
1517.13816	19801.9375
1520.51324	17472.8375
1523.88607	14945.2375
1527.25665	13233.2375
1530.62498	12359.5375
1533.99105	11888.4375
1537.35488	11619.4375
1540.71647	11447.7375
1544.07581	11244.1375
1547.4329	10989.2375
1550.78776	10702.5375
1554.14038	10405.4375
1557.49077	10261.0375
1560.83892	10329.9375
1564.18484	10610.7375
1567.52853	10998.4375
1570.86999	11389.0375
1574.20922	11658.0375
1577.54624	11734.4375
1580.88103	11221.8375
1584.2136	10440.9375
1587.54395	10188.4375
1590.87208	10617.1375
1594.19801	11687.5375
1597.52172	13094.6375
1600.84321	13918.6375
1604.16251	13536.6375
1607.47959	12176.8375
1610.79447	10516.3375
1614.10715	8996.4375
1617.41763	7918.4375
1620.7259	7316.3375
1624.03199	7048.7375
1627.33587	7031.6375
1630.63757	7267.1375
1633.93707	7793.5375
1637.23439	8696.4375
1640.52951	10186.4375
1643.82246	12253.2375
1647.11321	14477.0375
1650.40179	15919.1375
1653.68819	15416.6375
1656.97241	13011.6375
1660.25446	10227.7375
1663.53433	8122.0375
1666.81203	6856.7375
1670.08756	6161.2375
1673.36092	5734.3375
1676.63211	5480.6375
1679.90115	5303.8375
1683.16801	5184.6375
1686.43272	5074.8375
1689.69527	5008.8375
1692.95567	4960.6375
1696.2139	4919.7375
1699.46999	4918.6375
1702.72392	4880.4375
1705.97571	4848.7375
1709.22535	4821.8375
1712.47284	4803.7375
1715.71819	4833.8375
1718.96139	4825.8375
1722.20246	4818.5375
1725.44139	4801.3375
1728.67818	4752.3375
1731.91284	4681.1375
1735.14537	4628.9375
1738.37576	4590.1375
1741.60403	4541.7375
1744.83017	4518.6375
1748.05418	4511.0375
1751.27607	4513.2375
1754.49584	4493.5375
1757.71349	4482.6375
1760.92903	4469.1375
1764.14244	4445.4375
1767.35375	4426.7375
1770.56294	4400.0375
1773.77002	4366.3375
1776.97499	4341.9375
1780.17785	4297.6375
1783.37861	4285.9375
1786.57727	4255.7375
1789.77382	4245.1375
1792.96828	4240.9375
1796.16064	4208.6375
1799.3509	4207.9375
1802.53907	4189.6375
1805.72514	4175.0375
1808.90913	4143.9375
1812.09102	4135.4375
1815.27083	4105.3375
1818.44856	4093.6375
1821.6242	4089.3375
1824.79776	4092.9375
1827.96924	4072.2375
1831.13864	4061.3375
1834.30597	4063.3375
1837.47122	4047.9375
1840.6344	4043.8375
1843.7955	4037.8375
1846.95454	4025.7375
1850.11151	4015.5375
1853.26642	4024.4375
1856.41926	4016.1375
1859.57004	4030.6375
1862.71876	4020.4375
1865.86542	4014.8375
1869.01003	4023.3375
1872.15258	4017.6375
1875.29308	4009.6375
1878.43152	4009.0375
1881.56792	3996.8375
1884.70227	4004.3375
1887.83457	4032.0375
1890.96482	4024.6375
1894.09304	4007.8375
1897.21921	4026.1375
1900.34335	4019.2375
1903.46544	4014.3375
1906.58551	4013.2375
1909.70353	4020.7375
1912.81953	3998.8375
1915.93349	4010.9375
1919.04543	4010.2375
1922.15534	3975.9375
1925.26322	3995.9375
1928.36908	3957.1375
1931.47292	3936.3375
1934.57473	3929.1375
1937.67453	3905.8375
1940.77232	3876.7375
1943.86808	3849.7375
1946.96184	3826.5375
1950.05358	3812.4375
1953.14331	3807.6375
1956.23103	3784.3375
1959.31675	3743.2375
1962.40046	3750.0375
1965.48217	3733.7375
1968.56188	3730.3375
1971.63959	3716.1375
1974.7153	3705.2375
1977.78901	3690.7375
1980.86073	3674.5375
1983.93046	3658.7375
1986.99819	3641.4375
1990.06394	3631.7375
1993.1277	3600.9375
1996.18947	3590.2375
1999.24925	3578.9375
2002.30706	3574.2375
2005.36288	3554.0375
2008.41672	3546.4375
2011.46859	3530.4375
2014.51848	3516.6375
2017.56639	3507.3375
2020.61233	3496.7375
2023.6563	3502.7375
2026.6983	3485.2375
2029.73833	3476.9375
2032.7764	3459.0375
2035.8125	3445.1375
2038.84664	3453.4375
2041.87881	3427.7375
2044.90903	3431.9375
2047.93729	3425.2375
2050.96359	3423.1375
2053.98794	3407.2375
2057.01034	3416.9375
2060.03078	3395.1375
2063.04927	3391.6375
2066.06582	3375.9375
2069.08042	3379.6375
2072.09307	3365.6375
2075.10378	3358.9375
2078.11255	3372.4375
2081.11938	3363.9375
2084.12426	3359.3375
2087.12722	3356.8375
2090.12824	3349.0375
2093.12732	3363.4375
2096.12447	3343.8375
2099.11969	3357.7375
2102.11299	3348.9375
2105.10435	3343.9375
2108.09379	3351.1375
2111.08131	3337.3375
2114.0669	3332.7375
2117.05057	3346.1375
2120.03233	3344.9375
2123.01216	3328.2375
2125.99008	3339.2375
2128.96609	3325.1375
2131.94018	3333.3375
2134.91236	3327.0375
2137.88263	3335.2375
2140.851	3328.8375
2143.81746	3337.2375
2146.78201	3327.4375
2149.74466	3312.2375
2152.7054	3319.0375
2155.66425	3295.8375
2158.6212	3302.9375
2161.57625	3304.8375
2164.52941	3307.4375
2167.48067	3286.2375
2170.43004	3289.9375
2173.37752	3282.2375
2176.32311	3290.8375
2179.26681	3287.9375
2182.20863	3285.3375
2185.14856	3287.5375
2188.08661	3282.5375
2191.02278	3280.9375
2193.95707	3267.1375
2196.88948	3262.3375
2199.82001	3268.4375
2202.74867	3249.9375
2205.67545	3246.3375
2208.60037	3239.5375
2211.52341	3248.5375
2214.44458	3240.4375
2217.36388	3214.1375
2220.28132	3208.3375
2223.1969	3198.8375
2226.11061	3203.2375
2229.02246	3177.8375
2231.93245	3166.1375
2234.84058	3164.8375
2237.74686	3158.6375
2240.65128	3151.5375
2243.55385	3156.5375
2246.45456	3154.2375
2249.35343	3141.8375
2252.25044	3140.1375
2255.14561	3133.5375
2258.03893	3144.0375
2260.93041	3147.3375
2263.82004	3132.3375
2266.70783	3132.1375
2269.59378	3099.4375
2272.4779	3097.1375
2275.36017	3084.2375
2278.24061	3077.6375
2281.11922	3072.6375
2283.996	3050.7375
2286.87094	3055.9375
2289.74405	3026.3375
2292.61534	3031.3375
2295.4848	3034.6375
2298.35243	3028.1375
2301.21824	3014.3375
2304.08223	3028.4375
2306.94439	3009.1375
2309.80474	2997.5375
2312.66327	3006.9375
2315.51999	3004.6375
2318.37489	3006.2375
2321.22797	2993.9375
2324.07925	2986.8375
2326.92871	2986.7375
2329.77637	2985.7375
2332.62222	2977.6375
2335.46626	2976.1375
2338.3085	2986.3375
2341.14893	2971.7375
2343.98756	2986.2375
2346.8244	2976.8375
2349.65943	2969.0375
2352.49267	2980.0375
2355.32411	2989.7375
2358.15376	3005.7375
2360.98161	3009.5375
2363.80768	3010.8375
2366.63195	3013.2375
2369.45444	3014.0375
2372.27514	3010.0375
2375.09405	3006.0375
2377.91118	3002.2375
2380.72652	2985.8375
2383.54009	2970.0375
2386.35187	2946.0375
2389.16188	2927.6375
2391.97011	2927.6375
2394.77657	2903.3375
2397.58125	2893.9375
2400.38416	2880.8375
2403.18529	2877.9375
2405.98466	2880.9375
2408.78226	2862.9375
2411.57809	2863.8375
2414.37216	2846.1375
2417.16446	2844.7375
2419.955	2838.5375
2422.74378	2842.1375
2425.5308	2844.4375
2428.31606	2838.5375
2431.09956	2842.3375
2433.88131	2828.7375
2436.6613	2832.6375
2439.43954	2831.4375
2442.21603	2818.6375
2444.99077	2838.5375
2447.76377	2835.7375
2450.53501	2848.8375
2453.30451	2853.3375
2456.07226	2842.0375
2458.83827	2842.8375
2461.60254	2848.4375
2464.36507	2849.1375
2467.12586	2841.4375
2469.88492	2834.3375
2472.64224	2832.0375
2475.39782	2854.4375
2478.15167	2860.4375
2480.90379	2863.2375
2483.65417	2864.7375
2486.40283	2871.3375
2489.14976	2868.7375
2491.89497	2872.7375
2494.63845	2894.3375
2497.3802	2887.2375
2500.12024	2890.5375
2502.85855	2883.0375
2505.59514	2868.9375
2508.33002	2853.4375
2511.06318	2830.8375
2513.79462	2824.0375
2516.52435	2809.9375
2519.25237	2798.3375
2521.97867	2786.3375
2524.70327	2778.0375
2527.42616	2778.2375
2530.14734	2767.6375
2532.86681	2768.8375
2535.58458	2766.3375
2538.30065	2764.2375
2541.01501	2762.1375
2543.72768	2772.1375
2546.43864	2759.3375
2549.14791	2764.4375
2551.85548	2751.1375
2554.56136	2760.7375
2557.26554	2756.0375
2559.96803	2771.7375
2562.66883	2756.3375
2565.36794	2757.1375
2568.06536	2749.5375
2570.7611	2752.7375
2573.45514	2743.5375
2576.14751	2752.6375
2578.83819	2740.2375
2581.52719	2744.3375
2584.21451	2727.8375
2586.90015	2731.0375
2589.58411	2723.1375
2592.2664	2718.4375
2594.94701	2702.0375
2597.62594	2726.3375
2600.30321	2715.2375
2602.9788	2721.1375
2605.65273	2710.0375
2608.32498	2729.5375
2610.99557	2724.8375
2613.66449	2718.6375
2616.33175	2710.6375
2618.99734	2717.1375
2621.66128	2708.2375
2624.32355	2706.8375
2626.98416	2714.4375
2629.64311	2710.4375
2632.30041	2699.2375
2634.95605	2711.5375
2637.61004	2703.7375
2640.26238	2698.5375
2642.91306	2682.5375
2645.56209	2679.8375
2648.20948	2678.9375
2650.85521	2687.1375
2653.4993	2682.0375
2656.14175	2694.8375
2658.78255	2690.0375
2661.42171	2695.0375
2664.05923	2700.4375
2666.6951	2708.4375
2669.32934	2709.7375
2671.96194	2714.5375
2674.59291	2716.5375
2677.22224	2720.1375
2679.84993	2713.7375
2682.476	2724.8375
2685.10043	2712.7375
2687.72324	2718.5375
2690.34441	2712.0375
2692.96396	2718.4375
2695.58188	2710.7375
2698.19818	2707.9375
2700.81285	2731.3375
2703.4259	2747.0375
2706.03733	2805.7375
2708.64714	2770.0375
2711.25533	2756.2375
2713.86191	2756.8375
2716.46687	2759.8375
2719.07021	2759.8375
2721.67194	2755.6375
2724.27206	2761.5375
2726.87057	2764.3375
2729.46747	2757.8375
2732.06276	2742.2375
2734.65644	2754.1375
2737.24852	2724.8375
2739.83899	2737.3375
2742.42786	2735.5375
2745.01513	2723.1375
2747.60079	2713.2375
2750.18486	2712.0375
2752.76733	2714.2375
2755.3482	2706.5375
2757.92747	2714.4375
2760.50515	2706.3375
2763.08123	2703.3375
2765.65573	2707.7375
2768.22863	2723.1375
2770.79994	2707.9375
2773.36967	2733.0375
2775.9378	2721.6375
2778.50435	2719.3375
2781.06932	2733.9375
2783.6327	2719.6375
2786.1945	2734.9375
2788.75471	2741.2375
2791.31335	2756.1375
2793.87041	2740.6375
2796.42589	2734.6375
2798.97979	2756.9375
2801.53212	2753.2375
2804.08288	2763.4375
2806.63206	2774.6375
2809.17967	2779.2375
2811.72571	2789.3375
2814.27018	2794.5375
2816.81308	2803.6375
2819.35442	2797.3375
2821.89419	2805.5375
2824.43239	2816.9375
2826.96904	2823.6375
2829.50412	2829.1375
2832.03763	2811.2375
2834.56959	2823.3375
2837.1	2834.5375
2839.62884	2861.9375
2842.15613	2901.2375
2844.68186	2955.8375
2847.20604	3017.0375
2849.72867	3061.6375
2852.24974	3084.1375
2854.76927	3093.7375
2857.28724	3091.2375
2859.80367	3075.5375
2862.31855	3042.0375
2864.83189	3028.5375
2867.34368	3017.9375
2869.85393	3009.7375
2872.36264	2999.2375
2874.8698	2990.7375
2877.37543	2998.0375
2879.87952	2993.5375
2882.38207	2991.1375
2884.88308	2971.4375
2887.38256	2983.4375
2889.88051	2977.2375
2892.37692	2973.5375
2894.8718	2983.3375
2897.36515	2989.3375
2899.85698	2988.8375
2902.34727	3003.8375
2904.83604	3003.2375
2907.32328	3001.6375
2909.809	3003.7375
2912.29319	3001.1375
2914.77587	3000.1375
2917.25702	2992.3375
2919.73665	2986.7375
2922.21476	2988.2375
2924.69136	2987.7375
2927.16644	2977.7375
2929.64	2963.8375
2932.11205	2949.7375
2934.58258	2924.7375
2937.05161	2914.0375
2939.51912	2890.3375
2941.98513	2861.0375
2944.44962	2831.2375
2946.91261	2793.8375
2949.37409	2759.2375
2951.83407	2740.0375
2954.29254	2713.3375
2956.74951	2700.2375
2959.20498	2685.3375
2961.65895	2654.1375
2964.11142	2646.7375
2966.56239	2630.3375
2969.01186	2623.0375
2971.45984	2598.1375
2973.90632	2590.5375
2976.35131	2575.8375
2978.7948	2554.5375
2981.23681	2563.9375
2983.67732	2545.8375
2986.11635	2525.9375
2988.55388	2524.2375
2990.98993	2506.2375
2993.4245	2492.3375
2995.85758	2482.6375
2998.28917	2478.3375
3000.71928	2476.8375
3003.14791	2465.8375
3005.57506	2458.8375
3008.00073	2458.4375
3010.42493	2447.5375
3012.84764	2448.2375
3015.26888	2439.0375
3017.68865	2437.3375
3020.10694	2434.0375
3022.52376	2424.1375
3024.9391	2417.3375
3027.35298	2416.1375
3029.76539	2414.7375
3032.17632	2407.4375
3034.5858	2404.6375
3036.9938	2391.0375
3039.40034	2386.1375
3041.80542	2384.7375
3044.20903	2389.3375
3046.61118	2387.6375
3049.01187	2380.3375
3051.4111	2363.5375
3053.80888	2356.7375
3056.20519	2362.9375
3058.60005	2350.7375
3060.99345	2355.4375
3063.3854	2354.5375
3065.7759	2338.6375
3068.16494	2337.2375
3070.55254	2328.2375
3072.93868	2324.5375
3075.32338	2320.4375
3077.70662	2302.9375
3080.08842	2284.5375
3082.46878	2290.6375
3084.84769	2276.7375
3087.22515	2268.9375
3089.60118	2262.0375
3091.97576	2264.9375
3094.3489	2261.3375
3096.72061	2251.3375
3099.09087	2257.5375
3101.4597	2250.1375
3103.82709	2251.8375
3106.19305	2237.1375
3108.55757	2231.6375
3110.92066	2225.0375
3113.28232	2220.8375
3115.64255	2217.0375
3118.00134	2213.6375
3120.35871	2210.1375
3122.71466	2205.8375
3125.06917	2215.2375
3127.42226	2209.8375
3129.77393	2213.5375
3132.12417	2225.4375
3134.47299	2206.2375
3136.82039	2216.4375
3139.16636	2214.5375
3141.51092	2232.0375
3143.85406	2208.4375
3146.19579	2223.4375
3148.53609	2212.2375
3150.87499	2233.7375
3153.21246	2226.6375
3155.54853	2232.1375
3157.88318	2227.4375
3160.21642	2233.8375
3162.54826	2224.1375
3164.87868	2222.8375
3167.2077	2225.2375
3169.5353	2233.7375
3171.86151	2228.3375
3174.18631	2236.7375
3176.5097	2240.8375
3178.83169	2231.0375
3181.15228	2237.2375
3183.47147	2231.4375
3185.78926	2227.5375
3188.10565	2239.8375
3190.42065	2232.6375
3192.73424	2240.1375
3195.04645	2247.5375
3197.35725	2246.1375
3199.66667	2250.2375
3201.97469	2247.1375
3204.28132	2251.7375
3206.58656	2259.9375
3208.8904	2254.3375
3211.19287	2262.7375
3213.49394	2248.7375
3215.79363	2251.7375
3218.09193	2253.0375
3220.38884	2265.5375
3222.68438	2274.2375
3224.97853	2259.9375
3227.2713	2266.4375
3229.56269	2258.4375
3231.8527	2270.4375
3234.14133	2256.3375
3236.42858	2256.3375
3238.71446	2243.1375
3240.99896	2232.3375
3243.28209	2255.9375
3245.56384	2243.3375
3247.84423	2231.0375
3250.12324	2233.0375
3252.40088	2244.1375
3254.67715	2237.7375
3256.95205	2217.4375
3259.22558	2225.2375
3261.49775	2212.6375
3263.76855	2209.8375
3266.03799	2201.1375
3268.30606	2198.6375
3270.57277	2194.7375
3272.83812	2185.6375
3275.10211	2198.7375
3277.36474	2193.4375
3279.62601	2188.1375
3281.88593	2188.3375
3284.14448	2213.2375
3286.40168	2198.0375
3288.65753	2189.4375
3290.91202	2197.5375
3293.16516	2188.8375
3295.41695	2176.6375
3297.66738	2175.5375
3299.91647	2155.5375
3302.16421	2139.8375
3304.4106	2136.9375
3306.65564	2120.5375
3308.89933	2114.4375
3311.14169	2094.6375
3313.38269	2096.5375
3315.62236	2066.1375
3317.86068	2054.9375
3320.09766	2032.1375
3322.3333	2012.6375
3324.5676	2019.7375
3326.80056	1983.9375
3329.03219	1978.7375
3331.26248	-0.2625
3333.49143	-0.6625
3335.71905	0.2375
