Data from AgNP_FTO_APTES_CRN_1000uM_R6G_10uM_NaF_0.1M_Addition_RamanShift__2__20-52-38-265.txt Node

Date: Wed Dec 15 20:52:38 GMT 2021
User: TCL
Spectrometer: QEP01345
Trigger mode: 4
Integration Time (sec): 7.000000E0
Scans to average: 10
Electric dark correction enabled: true
Nonlinearity correction enabled: false
Boxcar width: 0
XAxis mode: Raman Shifts
Number of Pixels in Spectrum: 1044
>>>>>Begin Spectral Data<<<<<
46.04893	0.2625
50.45542	-1.7375
54.85868	-1.6375
59.25871	-0.7375
63.6555	68.9625
68.04907	76.7625
72.43941	77.4625
76.82654	82.1625
81.21044	87.9625
85.59113	88.1625
89.96862	97.0625
94.34289	91.6625
98.71396	98.0625
103.08183	99.5625
107.4465	106.7625
111.80798	107.5625
116.16626	110.4625
120.52136	114.1625
124.87327	118.3625
129.222	123.8625
133.56755	234.8625
137.90993	147.3625
142.24913	149.4625
146.58517	168.8625
150.91804	198.5625
155.24774	233.9625
159.57429	290.3625
163.89768	371.0625
168.21792	483.4625
172.53501	668.8625
176.84895	1058.6625
181.15975	1287.2625
185.46741	1824.8625
189.77193	2517.3625
194.07331	3369.3625
198.37157	4327.1625
202.6667	5348.1625
206.9587	6369.2625
211.24758	7363.1625
215.53334	8327.4625
219.81599	9363.9625
224.09553	10513.6625
228.37195	11751.7625
232.64527	13101.4625
236.91549	14532.1625
241.18261	16034.9625
245.44663	17472.5625
249.70755	18728.6625
253.96539	19878.1625
258.22014	20786.3625
262.4718	21597.2625
266.72039	22144.0625
270.96589	22347.0625
275.20832	22404.9625
279.44768	22276.5625
283.68397	21999.6625
287.91719	21813.9625
292.14735	21671.7625
296.37445	21583.9625
300.59849	21607.2625
304.81948	21654.4625
309.03742	21588.0625
313.25231	21443.9625
317.46415	21154.3625
321.67296	20778.2625
325.87872	20464.7625
330.08145	20303.7625
334.28114	20278.2625
338.47781	20436.4625
342.67145	20656.4625
346.86207	20914.5625
351.04966	21241.5625
355.23424	21577.4625
359.4158	21869.8625
363.59435	22043.7625
367.76989	22226.2625
371.94243	22293.8625
376.11196	22408.5625
380.27849	22515.9625
384.44203	22676.3625
388.60257	22899.0625
392.76012	23102.7625
396.91468	23308.2625
401.06626	23591.7625
405.21485	23837.5625
409.36047	23848.4625
413.50311	23631.5625
417.64277	23534.2625
421.77947	23553.8625
425.9132	23607.8625
430.04396	23746.7625
434.17176	23864.4625
438.2966	24105.1625
442.41849	24441.7625
446.53742	24914.5625
450.6534	25444.6625
454.76644	25798.1625
458.87653	25936.3625
462.98368	25883.4625
467.08789	25653.4625
471.18916	25458.5625
475.2875	25334.4625
479.38291	25213.0625
483.4754	25084.4625
487.56496	24841.7625
491.6516	24484.5625
495.73531	24307.8625
499.81612	24157.6625
503.89401	24271.7625
507.96899	24332.8625
512.04106	24348.9625
516.11023	24313.3625
520.1765	24257.6625
524.23987	24189.7625
528.30034	24105.3625
532.35792	23940.8625
536.41261	23722.8625
540.46441	23583.1625
544.51333	23557.1625
548.55936	23787.8625
552.60252	24159.2625
556.64279	24558.9625
560.6802	24834.0625
564.71473	25036.0625
568.7464	25291.8625
572.7752	25790.7625
576.80114	26190.5625
580.82422	26648.3625
584.84444	27211.3625
588.86181	27877.5625
592.87633	28458.0625
596.888	28398.1625
600.89682	27760.8625
604.9028	27698.2625
608.90594	28797.0625
612.90624	30082.5625
616.90371	28727.9625
620.89834	25544.6625
624.89015	24122.4625
628.87913	23907.1625
632.86528	24016.5625
636.84862	24072.5625
640.82913	23869.7625
644.80683	23508.5625
648.78172	23310.7625
652.75379	23288.6625
656.72306	23394.7625
660.68952	23599.6625
664.65319	23537.4625
668.61405	23309.6625
672.57211	23303.5625
676.52738	23388.9625
680.47986	23464.8625
684.42955	23352.8625
688.37646	23288.5625
692.32058	23325.9625
696.26192	23491.2625
700.20048	23687.5625
704.13626	23862.4625
708.06928	23874.2625
711.99952	23864.9625
715.927	23832.1625
719.85171	23848.8625
723.77365	23751.7625
727.69284	23511.6625
731.60928	23287.3625
735.52295	23227.1625
739.43388	23223.8625
743.34206	23304.5625
747.24749	23398.0625
751.15017	23485.9625
755.05012	23770.2625
758.94733	24217.1625
762.8418	25018.7625
766.73354	26210.3625
770.62254	27366.0625
774.50882	27574.5625
778.39237	26695.4625
782.27321	25414.2625
786.15132	24246.9625
790.02671	23597.9625
793.89938	23266.0625
797.76935	23122.9625
801.6366	23095.7625
805.50115	23056.0625
809.36299	22985.8625
813.22213	22865.4625
817.07857	22805.8625
820.93231	22756.6625
824.78336	22661.1625
828.63172	22700.6625
832.47738	22645.2625
836.32036	22653.8625
840.16066	22734.0625
843.99827	22721.0625
847.8332	22680.9625
851.66546	22634.5625
855.49504	22620.2625
859.32195	22628.8625
863.1462	22606.2625
866.96777	22577.7625
870.78668	22551.3625
874.60293	22573.2625
878.41652	22572.5625
882.22745	22630.6625
886.03573	22691.5625
889.84136	22695.5625
893.64433	22644.0625
897.44466	22602.0625
901.24235	22487.5625
905.0374	22455.9625
908.8298	22427.5625
912.61957	22467.8625
916.40671	22597.9625
920.19121	22770.0625
923.97308	22848.1625
927.75233	22894.9625
931.52895	22803.0625
935.30295	22549.2625
939.07433	22285.1625
942.84309	22045.1625
946.60924	21974.6625
950.37278	21885.2625
954.13371	21846.1625
957.89203	21800.3625
961.64774	21830.7625
965.40086	21819.8625
969.15137	21722.7625
972.89929	21643.1625
976.64461	21569.1625
980.38733	21538.7625
984.12747	21615.3625
987.86502	21730.4625
991.59999	21823.8625
995.33237	22014.6625
999.06217	22343.4625
1002.78939	22665.8625
1006.51404	22956.6625
1010.23611	23228.9625
1013.95561	23419.0625
1017.67255	23446.2625
1021.38692	23299.5625
1025.09872	23020.0625
1028.80796	22892.0625
1032.51465	23013.9625
1036.21877	23250.0625
1039.92035	23352.2625
1043.61937	23333.3625
1047.31584	23226.5625
1051.00976	23148.0625
1054.70114	23166.2625
1058.38998	23269.6625
1062.07627	23493.3625
1065.76003	23900.7625
1069.44126	24347.2625
1073.11995	24803.3625
1076.79611	25094.7625
1080.46974	24981.7625
1084.14085	24702.4625
1087.80943	24560.7625
1091.47549	24474.7625
1095.13903	24380.7625
1098.80005	24138.6625
1102.45857	23724.2625
1106.11456	23430.9625
1109.76805	23299.5625
1113.41903	23280.9625
1117.06751	23368.4625
1120.71348	23540.9625
1124.35696	23722.0625
1127.99793	23992.1625
1131.63641	24171.6625
1135.2724	24057.2625
1138.90589	23936.0625
1142.5369	23939.1625
1146.16542	23936.0625
1149.79145	23998.9625
1153.415	24232.2625
1157.03607	24404.5625
1160.65467	24875.2625
1164.27079	25669.1625
1167.88443	26642.6625
1171.49561	27885.5625
1175.10432	29329.5625
1178.71056	31167.8625
1182.31434	32886.7625
1185.91565	33647.2625
1189.51451	33492.9625
1193.11091	32747.3625
1196.70485	31776.6625
1200.29634	30730.1625
1203.88538	30017.7625
1207.47197	29514.5625
1211.05612	29119.2625
1214.63782	28642.7625
1218.21708	28181.3625
1221.79391	27705.9625
1225.36829	27423.8625
1228.94024	27173.1625
1232.50976	26876.4625
1236.07685	26536.5625
1239.6415	26374.9625
1243.20374	26383.0625
1246.76355	26508.4625
1250.32093	26794.4625
1253.8759	27173.1625
1257.42845	27752.5625
1260.97859	28284.8625
1264.52631	28885.7625
1268.07163	29453.3625
1271.61453	30024.6625
1275.15503	30692.1625
1278.69312	31365.1625
1282.22882	31992.7625
1285.76211	32756.6625
1289.29301	33720.3625
1292.82151	34912.2625
1296.34761	36348.0625
1299.87133	38103.2625
1303.39266	39927.3625
1306.9116	41664.3625
1310.42815	43104.4625
1313.94233	43941.8625
1317.45412	43800.7625
1320.96354	43089.8625
1324.47058	42194.6625
1327.97525	41520.5625
1331.47754	41008.3625
1334.97747	40706.7625
1338.47502	40473.5625
1341.97022	40211.2625
1345.46305	39926.9625
1348.95352	39714.0625
1352.44163	39862.0625
1355.92738	40599.7625
1359.41078	41913.0625
1362.89183	43014.1625
1366.37053	42343.9625
1369.84688	39639.0625
1373.32088	36209.0625
1376.79254	33825.9625
1380.26186	32851.2625
1383.72883	32751.4625
1387.19347	32636.0625
1390.65578	32342.2625
1394.11575	32344.5625
1397.57339	32574.0625
1401.0287	32960.4625
1404.48168	33253.2625
1407.93234	33142.1625
1411.38068	32636.5625
1414.82669	31743.4625
1418.27039	30714.6625
1421.71177	29658.2625
1425.15083	28795.8625
1428.58758	28378.9625
1432.02203	28539.2625
1435.45416	29081.3625
1438.88399	29744.7625
1442.31151	30133.2625
1445.73673	30479.2625
1449.15965	30723.7625
1452.58027	30897.4625
1455.9986	30912.4625
1459.41463	31091.3625
1462.82837	31523.5625
1466.23982	31985.2625
1469.64898	32426.8625
1473.05586	32655.0625
1476.46045	32674.5625
1479.86276	32548.9625
1483.26279	32325.4625
1486.66054	32247.3625
1490.05602	32378.3625
1493.44922	32665.9625
1496.84016	33003.5625
1500.22882	33556.7625
1503.61521	34395.0625
1506.99934	35343.5625
1510.38121	36022.4625
1513.76081	36063.7625
1517.13816	35271.8625
1520.51324	34257.8625
1523.88607	33406.7625
1527.25665	32979.7625
1530.62498	32937.9625
1533.99105	32912.2625
1537.35488	32716.3625
1540.71647	32251.4625
1544.07581	31666.5625
1547.4329	31013.4625
1550.78776	30466.5625
1554.14038	30011.3625
1557.49077	29761.7625
1560.83892	29658.6625
1564.18484	29691.5625
1567.52853	29955.5625
1570.86999	30429.8625
1574.20922	31189.4625
1577.54624	31940.0625
1580.88103	32285.4625
1584.2136	32385.9625
1587.54395	32612.2625
1590.87208	33220.2625
1594.19801	34413.7625
1597.52172	35646.1625
1600.84321	36051.9625
1604.16251	34927.5625
1607.47959	32848.8625
1610.79447	30576.3625
1614.10715	28453.5625
1617.41763	26761.0625
1620.7259	25618.2625
1624.03199	24991.3625
1627.33587	24983.3625
1630.63757	25434.7625
1633.93707	26576.6625
1637.23439	28557.9625
1640.52951	31424.5625
1643.82246	34768.6625
1647.11321	37368.6625
1650.40179	37850.9625
1653.68819	35659.0625
1656.97241	31888.9625
1660.25446	28215.0625
1663.53433	25490.0625
1666.81203	23676.1625
1670.08756	22503.5625
1673.36092	21781.9625
1676.63211	21278.5625
1679.90115	20935.3625
1683.16801	20668.1625
1686.43272	20496.3625
1689.69527	20318.3625
1692.95567	20219.6625
1696.2139	20190.6625
1699.46999	20134.7625
1702.72392	20105.2625
1705.97571	20032.7625
1709.22535	19975.8625
1712.47284	19952.8625
1715.71819	19912.2625
1718.96139	19893.0625
1722.20246	19844.4625
1725.44139	19772.9625
1728.67818	19679.6625
1731.91284	19573.1625
1735.14537	19494.3625
1738.37576	19448.3625
1741.60403	19399.7625
1744.83017	19371.6625
1748.05418	19298.9625
1751.27607	19290.7625
1754.49584	19286.2625
1757.71349	19258.1625
1760.92903	19273.7625
1764.14244	19261.0625
1767.35375	19217.1625
1770.56294	19202.7625
1773.77002	19147.6625
1776.97499	19142.0625
1780.17785	19085.8625
1783.37861	19059.5625
1786.57727	19044.2625
1789.77382	18944.5625
1792.96828	18955.0625
1796.16064	18904.7625
1799.3509	18873.7625
1802.53907	18842.4625
1805.72514	18776.4625
1808.90913	18706.8625
1812.09102	18684.4625
1815.27083	18663.5625
1818.44856	18642.7625
1821.6242	18630.0625
1824.79776	18560.3625
1827.96924	18569.0625
1831.13864	18553.9625
1834.30597	18592.8625
1837.47122	18587.6625
1840.6344	18557.9625
1843.7955	18539.9625
1846.95454	18494.2625
1850.11151	18458.4625
1853.26642	18467.3625
1856.41926	18480.1625
1859.57004	18452.4625
1862.71876	18430.6625
1865.86542	18405.6625
1869.01003	18431.0625
1872.15258	18444.0625
1875.29308	18426.9625
1878.43152	18372.1625
1881.56792	18348.7625
1884.70227	18374.0625
1887.83457	18319.3625
1890.96482	18303.7625
1894.09304	18293.5625
1897.21921	18293.7625
1900.34335	18278.3625
1903.46544	18226.4625
1906.58551	18223.8625
1909.70353	18165.2625
1912.81953	18129.8625
1915.93349	18130.4625
1919.04543	18109.6625
1922.15534	18065.0625
1925.26322	18036.9625
1928.36908	18039.8625
1931.47292	18007.7625
1934.57473	17916.8625
1937.67453	17902.1625
1940.77232	17846.4625
1943.86808	17824.6625
1946.96184	17779.0625
1950.05358	17700.2625
1953.14331	17651.0625
1956.23103	17648.1625
1959.31675	17570.7625
1962.40046	17586.3625
1965.48217	17521.0625
1968.56188	17443.9625
1971.63959	17397.8625
1974.7153	17350.3625
1977.78901	17311.1625
1980.86073	17213.8625
1983.93046	17190.7625
1986.99819	17147.3625
1990.06394	17113.3625
1993.1277	17077.3625
1996.18947	17002.3625
1999.24925	16977.7625
2002.30706	16895.7625
2005.36288	16861.9625
2008.41672	16826.9625
2011.46859	16772.0625
2014.51848	16760.0625
2017.56639	16694.5625
2020.61233	16669.0625
2023.6563	16615.5625
2026.6983	16613.3625
2029.73833	16591.5625
2032.7764	16508.2625
2035.8125	16487.3625
2038.84664	16468.8625
2041.87881	16456.2625
2044.90903	16405.7625
2047.93729	16357.4625
2050.96359	16364.2625
2053.98794	16340.7625
2057.01034	16337.7625
2060.03078	16312.6625
2063.04927	16291.4625
2066.06582	16289.8625
2069.08042	16281.0625
2072.09307	16289.7625
2075.10378	16287.1625
2078.11255	16233.5625
2081.11938	16257.0625
2084.12426	16279.6625
2087.12722	16209.3625
2090.12824	16213.7625
2093.12732	16248.2625
2096.12447	16208.8625
2099.11969	16207.3625
2102.11299	16243.2625
2105.10435	16237.1625
2108.09379	16225.4625
2111.08131	16262.9625
2114.0669	16285.8625
2117.05057	16291.1625
2120.03233	16310.8625
2123.01216	16297.9625
2125.99008	16326.7625
2128.96609	16349.5625
2131.94018	16354.0625
2134.91236	16336.3625
2137.88263	16381.1625
2140.851	16337.7625
2143.81746	16367.4625
2146.78201	16369.5625
2149.74466	16365.0625
2152.7054	16436.5625
2155.66425	16396.2625
2158.6212	16399.8625
2161.57625	16402.7625
2164.52941	16393.5625
2167.48067	16348.3625
2170.43004	16379.9625
2173.37752	16369.9625
2176.32311	16380.6625
2179.26681	16379.1625
2182.20863	16345.8625
2185.14856	16370.8625
2188.08661	16341.5625
2191.02278	16357.8625
2193.95707	16331.8625
2196.88948	16287.4625
2199.82001	16287.3625
2202.74867	16291.5625
2205.67545	16279.2625
2208.60037	16273.3625
2211.52341	16245.1625
2214.44458	16240.2625
2217.36388	16192.7625
2220.28132	16154.5625
2223.1969	16107.0625
2226.11061	16102.7625
2229.02246	16109.3625
2231.93245	16086.8625
2234.84058	16048.0625
2237.74686	16016.3625
2240.65128	16014.7625
2243.55385	15955.4625
2246.45456	15930.8625
2249.35343	15912.6625
2252.25044	15909.1625
2255.14561	15859.8625
2258.03893	15866.2625
2260.93041	15835.6625
2263.82004	15784.4625
2266.70783	15788.5625
2269.59378	15733.5625
2272.4779	15700.8625
2275.36017	15675.0625
2278.24061	15652.7625
2281.11922	15585.1625
2283.996	15533.8625
2286.87094	15560.2625
2289.74405	15533.8625
2292.61534	15509.0625
2295.4848	15504.6625
2298.35243	15482.9625
2301.21824	15494.2625
2304.08223	15443.6625
2306.94439	15433.1625
2309.80474	15442.3625
2312.66327	15448.9625
2315.51999	15434.1625
2318.37489	15454.1625
2321.22797	15409.3625
2324.07925	15412.2625
2326.92871	15360.3625
2329.77637	15404.7625
2332.62222	15367.8625
2335.46626	15320.3625
2338.3085	15303.8625
2341.14893	15299.3625
2343.98756	15292.9625
2346.8244	15287.9625
2349.65943	15247.2625
2352.49267	15242.8625
2355.32411	15230.8625
2358.15376	15240.9625
2360.98161	15229.6625
2363.80768	15237.8625
2366.63195	15218.0625
2369.45444	15154.8625
2372.27514	15187.0625
2375.09405	15175.3625
2377.91118	15121.2625
2380.72652	15101.4625
2383.54009	15078.9625
2386.35187	15073.9625
2389.16188	15028.7625
2391.97011	15010.6625
2394.77657	14956.9625
2397.58125	14951.9625
2400.38416	14931.1625
2403.18529	14906.4625
2405.98466	14910.6625
2408.78226	14899.6625
2411.57809	14871.5625
2414.37216	14802.4625
2417.16446	14783.1625
2419.955	14777.2625
2422.74378	14772.8625
2425.5308	14717.6625
2428.31606	14705.3625
2431.09956	14749.7625
2433.88131	14719.5625
2436.6613	14723.6625
2439.43954	14709.6625
2442.21603	14699.8625
2444.99077	14703.5625
2447.76377	14696.0625
2450.53501	14681.1625
2453.30451	14647.1625
2456.07226	14628.2625
2458.83827	14649.5625
2461.60254	14651.1625
2464.36507	14609.1625
2467.12586	14599.0625
2469.88492	14604.3625
2472.64224	14557.3625
2475.39782	14564.8625
2478.15167	14587.2625
2480.90379	14588.0625
2483.65417	14554.8625
2486.40283	14590.8625
2489.14976	14603.4625
2491.89497	14561.5625
2494.63845	14578.2625
2497.3802	14536.5625
2500.12024	14519.4625
2502.85855	14529.0625
2505.59514	14516.0625
2508.33002	14523.2625
2511.06318	14522.6625
2513.79462	14500.6625
2516.52435	14440.4625
2519.25237	14430.6625
2521.97867	14430.7625
2524.70327	14439.6625
2527.42616	14416.3625
2530.14734	14401.2625
2532.86681	14367.8625
2535.58458	14361.9625
2538.30065	14359.1625
2541.01501	14370.2625
2543.72768	14321.3625
2546.43864	14325.2625
2549.14791	14273.3625
2551.85548	14265.7625
2554.56136	14234.9625
2557.26554	14225.2625
2559.96803	14198.9625
2562.66883	14191.1625
2565.36794	14182.3625
2568.06536	14171.2625
2570.7611	14168.2625
2573.45514	14145.9625
2576.14751	14139.2625
2578.83819	14107.9625
2581.52719	14090.0625
2584.21451	14068.1625
2586.90015	14072.9625
2589.58411	14014.5625
2592.2664	14034.0625
2594.94701	13957.7625
2597.62594	13979.2625
2600.30321	13961.4625
2602.9788	13940.4625
2605.65273	13937.5625
2608.32498	13896.3625
2610.99557	13866.6625
2613.66449	13887.1625
2616.33175	13885.5625
2618.99734	13856.6625
2621.66128	13826.0625
2624.32355	13855.4625
2626.98416	13841.2625
2629.64311	13833.7625
2632.30041	13823.6625
2634.95605	13806.5625
2637.61004	13789.8625
2640.26238	13778.0625
2642.91306	13776.2625
2645.56209	13776.0625
2648.20948	13757.0625
2650.85521	13741.7625
2653.4993	13765.3625
2656.14175	13723.6625
2658.78255	13773.4625
2661.42171	13728.9625
2664.05923	13754.8625
2666.6951	13739.1625
2669.32934	13741.0625
2671.96194	13731.9625
2674.59291	13749.5625
2677.22224	13746.7625
2679.84993	13746.3625
2682.476	13709.7625
2685.10043	13710.0625
2687.72324	13690.2625
2690.34441	13725.4625
2692.96396	13695.4625
2695.58188	13704.1625
2698.19818	13724.3625
2700.81285	13709.8625
2703.4259	13729.6625
2706.03733	13782.2625
2708.64714	13756.3625
2711.25533	13783.5625
2713.86191	13734.8625
2716.46687	13777.8625
2719.07021	13744.2625
2721.67194	13748.7625
2724.27206	13749.1625
2726.87057	13768.5625
2729.46747	13727.5625
2732.06276	13733.2625
2734.65644	13751.4625
2737.24852	13712.7625
2739.83899	13721.8625
2742.42786	13681.4625
2745.01513	13704.3625
2747.60079	13694.6625
2750.18486	13671.0625
2752.76733	13664.2625
2755.3482	13697.4625
2757.92747	13654.8625
2760.50515	13645.5625
2763.08123	13654.9625
2765.65573	13631.1625
2768.22863	13644.4625
2770.79994	13615.7625
2773.36967	13633.9625
2775.9378	13612.8625
2778.50435	13544.4625
2781.06932	13548.2625
2783.6327	13548.3625
2786.1945	13550.7625
2788.75471	13522.8625
2791.31335	13475.7625
2793.87041	13460.1625
2796.42589	13428.9625
2798.97979	13425.3625
2801.53212	13380.6625
2804.08288	13377.8625
2806.63206	13301.1625
2809.17967	13292.7625
2811.72571	13279.3625
2814.27018	13274.7625
2816.81308	13241.2625
2819.35442	13240.4625
2821.89419	13210.1625
2824.43239	13185.9625
2826.96904	13192.0625
2829.50412	13186.8625
2832.03763	13140.9625
2834.56959	13209.0625
2837.1	13139.9625
2839.62884	13164.6625
2842.15613	13148.1625
2844.68186	13187.8625
2847.20604	13181.4625
2849.72867	13192.7625
2852.24974	13175.8625
2854.76927	13155.7625
2857.28724	13128.4625
2859.80367	13131.8625
2862.31855	13106.4625
2864.83189	13082.7625
2867.34368	13077.8625
2869.85393	13063.8625
2872.36264	13061.4625
2874.8698	13081.3625
2877.37543	13038.8625
2879.87952	13041.8625
2882.38207	13066.8625
2884.88308	13059.1625
2887.38256	13081.3625
2889.88051	13076.9625
2892.37692	13033.4625
2894.8718	13019.7625
2897.36515	13060.2625
2899.85698	13063.4625
2902.34727	13081.9625
2904.83604	13093.1625
2907.32328	13129.5625
2909.809	13104.7625
2912.29319	13107.6625
2914.77587	13074.0625
2917.25702	13082.2625
2919.73665	13063.5625
2922.21476	13079.4625
2924.69136	13101.9625
2927.16644	13097.1625
2929.64	13082.3625
2932.11205	13080.1625
2934.58258	13052.1625
2937.05161	13065.5625
2939.51912	13084.6625
2941.98513	13083.0625
2944.44962	13037.7625
2946.91261	12963.9625
2949.37409	12984.3625
2951.83407	12969.3625
2954.29254	12950.3625
2956.74951	12948.5625
2959.20498	12913.1625
2961.65895	12897.3625
2964.11142	12901.3625
2966.56239	12855.3625
2969.01186	12854.7625
2971.45984	12827.7625
2973.90632	12810.4625
2976.35131	12768.9625
2978.7948	12737.9625
2981.23681	12710.6625
2983.67732	12708.3625
2986.11635	12695.5625
2988.55388	12667.7625
2990.98993	12619.1625
2993.4245	12617.2625
2995.85758	12600.1625
2998.28917	12549.0625
3000.71928	12538.9625
3003.14791	12520.9625
3005.57506	12515.5625
3008.00073	12486.9625
3010.42493	12489.2625
3012.84764	12437.7625
3015.26888	12438.1625
3017.68865	12401.7625
3020.10694	12390.1625
3022.52376	12379.3625
3024.9391	12356.3625
3027.35298	12365.8625
3029.76539	12365.6625
3032.17632	12355.2625
3034.5858	12315.7625
3036.9938	12315.6625
3039.40034	12279.3625
3041.80542	12276.1625
3044.20903	12258.9625
3046.61118	12259.0625
3049.01187	12230.7625
3051.4111	12233.0625
3053.80888	12184.6625
3056.20519	12196.7625
3058.60005	12152.5625
3060.99345	12126.7625
3063.3854	12122.9625
3065.7759	12109.3625
3068.16494	12120.3625
3070.55254	12064.1625
3072.93868	12051.7625
3075.32338	12014.7625
3077.70662	11979.2625
3080.08842	11925.6625
3082.46878	11959.2625
3084.84769	11941.2625
3087.22515	11929.0625
3089.60118	11962.1625
3091.97576	11949.3625
3094.3489	11962.1625
3096.72061	11971.5625
3099.09087	11927.0625
3101.4597	11931.7625
3103.82709	11932.2625
3106.19305	11915.3625
3108.55757	11903.6625
3110.92066	11877.0625
3113.28232	11833.9625
3115.64255	11818.9625
3118.00134	11780.5625
3120.35871	11787.9625
3122.71466	11783.0625
3125.06917	11764.6625
3127.42226	11745.4625
3129.77393	11764.5625
3132.12417	11735.5625
3134.47299	11749.7625
3136.82039	11751.3625
3139.16636	11755.4625
3141.51092	11792.0625
3143.85406	11759.2625
3146.19579	11762.4625
3148.53609	11757.8625
3150.87499	11773.8625
3153.21246	11750.3625
3155.54853	11816.5625
3157.88318	11758.8625
3160.21642	11774.4625
3162.54826	11750.0625
3164.87868	11733.5625
3167.2077	11762.9625
3169.5353	11772.3625
3171.86151	11762.1625
3174.18631	11766.9625
3176.5097	11777.2625
3178.83169	11741.6625
3181.15228	11748.4625
3183.47147	11732.8625
3185.78926	11741.2625
3188.10565	11702.3625
3190.42065	11727.1625
3192.73424	11704.0625
3195.04645	11697.8625
3197.35725	11729.3625
3199.66667	11688.4625
3201.97469	11733.5625
3204.28132	11679.0625
3206.58656	11705.2625
3208.8904	11718.8625
3211.19287	11705.2625
3213.49394	11696.2625
3215.79363	11697.6625
3218.09193	11707.0625
3220.38884	11722.8625
3222.68438	11749.4625
3224.97853	11709.4625
3227.2713	11724.6625
3229.56269	11663.7625
3231.8527	11666.1625
3234.14133	11667.4625
3236.42858	11636.6625
3238.71446	11656.8625
3240.99896	11583.9625
3243.28209	11599.2625
3245.56384	11606.4625
3247.84423	11599.7625
3250.12324	11586.4625
3252.40088	11562.9625
3254.67715	11583.3625
3256.95205	11556.1625
3259.22558	11550.3625
3261.49775	11549.1625
3263.76855	11529.4625
3266.03799	11512.7625
3268.30606	11475.7625
3270.57277	11465.0625
3272.83812	11433.1625
3275.10211	11416.8625
3277.36474	11434.2625
3279.62601	11436.6625
3281.88593	11408.7625
3284.14448	11413.3625
3286.40168	11408.0625
3288.65753	11397.0625
3290.91202	11345.4625
3293.16516	11348.7625
3295.41695	11299.8625
3297.66738	11235.2625
3299.91647	11206.5625
3302.16421	11117.5625
3304.4106	11099.6625
3306.65564	11035.3625
3308.89933	10953.8625
3311.14169	10895.1625
3313.38269	10831.5625
3315.62236	10771.3625
3317.86068	10680.8625
3320.09766	10559.9625
3322.3333	10470.6625
3324.5676	10484.8625
3326.80056	10300.7625
3329.03219	10264.5625
3331.26248	3.8625
3333.49143	-0.1375
3335.71905	-0.2375
