Data from AgNP_FTO_APTES_CRN_10uM_R6G_10uM_NaF_0.1M_Addition_RamanShift__35__16-55-47-997.txt Node

Date: Wed Dec 15 16:55:47 GMT 2021
User: TCL
Spectrometer: QEP01345
Trigger mode: 4
Integration Time (sec): 7.000000E0
Scans to average: 10
Electric dark correction enabled: true
Nonlinearity correction enabled: false
Boxcar width: 0
XAxis mode: Raman Shifts
Number of Pixels in Spectrum: 1044
>>>>>Begin Spectral Data<<<<<
46.04893	2.1625
50.45542	-0.8375
54.85868	-0.9375
59.25871	-1.3375
63.6555	50.7625
68.04907	55.6625
72.43941	52.8625
76.82654	62.6625
81.21044	63.3625
85.59113	71.1625
89.96862	75.8625
94.34289	71.4625
98.71396	78.0625
103.08183	82.9625
107.4465	84.3625
111.80798	83.6625
116.16626	86.7625
120.52136	84.9625
124.87327	86.7625
129.222	86.5625
133.56755	86.6625
137.90993	93.4625
142.24913	100.7625
146.58517	107.8625
150.91804	121.7625
155.24774	135.5625
159.57429	162.9625
163.89768	205.1625
168.21792	256.1625
172.53501	341.2625
176.84895	468.5625
181.15975	639.9625
185.46741	883.2625
189.77193	1213.6625
194.07331	1625.0625
198.37157	2087.3625
202.6667	2573.5625
206.9587	3072.3625
211.24758	3558.0625
215.53334	4103.3625
219.81599	4678.1625
224.09553	5360.4625
228.37195	6105.2625
232.64527	6901.7625
236.91549	7677.7625
241.18261	8340.2625
245.44663	8837.0625
249.70755	9217.4625
253.96539	9504.2625
258.22014	9809.0625
262.4718	10099.8625
266.72039	10360.3625
270.96589	10476.0625
275.20832	10492.8625
279.44768	10389.0625
283.68397	10224.3625
287.91719	10159.9625
292.14735	10286.0625
296.37445	10598.4625
300.59849	11124.2625
304.81948	11732.4625
309.03742	12248.6625
313.25231	12282.4625
317.46415	11660.2625
321.67296	10556.5625
325.87872	9604.1625
330.08145	9132.5625
334.28114	9052.5625
338.47781	9220.7625
342.67145	9538.1625
346.86207	10036.8625
351.04966	10808.3625
355.23424	11696.7625
359.4158	12315.5625
363.59435	12560.0625
367.76989	12578.3625
371.94243	12458.1625
376.11196	12233.1625
380.27849	12095.2625
384.44203	11884.8625
388.60257	11627.1625
392.76012	11502.5625
396.91468	11588.3625
401.06626	11940.2625
405.21485	12170.8625
409.36047	11907.6625
413.50311	11123.4625
417.64277	10341.8625
421.77947	9877.9625
425.9132	9682.0625
430.04396	9654.7625
434.17176	9667.1625
438.2966	9797.9625
442.41849	10035.7625
446.53742	10373.7625
450.6534	10662.3625
454.76644	10838.5625
458.87653	10811.8625
462.98368	10696.2625
467.08789	10512.0625
471.18916	10221.2625
475.2875	9925.7625
479.38291	9676.0625
483.4754	9492.5625
487.56496	9333.8625
491.6516	9263.5625
495.73531	9249.6625
499.81612	9297.8625
503.89401	9476.3625
507.96899	9638.5625
512.04106	9858.1625
516.11023	10152.1625
520.1765	10331.7625
524.23987	10366.6625
528.30034	10129.6625
532.35792	9828.8625
536.41261	9495.0625
540.46441	9160.7625
544.51333	8980.2625
548.55936	9011.4625
552.60252	9275.4625
556.64279	9578.9625
560.6802	9754.4625
564.71473	9979.2625
568.7464	10508.8625
572.7752	10826.0625
576.80114	10393.0625
580.82422	9853.0625
584.84444	9612.2625
588.86181	9518.7625
592.87633	9540.4625
596.888	9713.4625
600.89682	10189.3625
604.9028	11751.9625
608.90594	15966.7625
612.90624	21555.2625
616.90371	20879.3625
620.89834	13581.7625
624.89015	10015.9625
628.87913	9322.6625
632.86528	9382.9625
636.84862	9632.2625
640.82913	9507.3625
644.80683	9007.3625
648.78172	8625.7625
652.75379	8746.1625
656.72306	9229.7625
660.68952	9844.7625
664.65319	9717.8625
668.61405	9082.8625
672.57211	8722.0625
676.52738	8682.9625
680.47986	8644.6625
684.42955	8567.1625
688.37646	8525.8625
692.32058	8577.7625
696.26192	8676.7625
700.20048	8817.3625
704.13626	8933.8625
708.06928	8928.4625
711.99952	8866.9625
715.927	8814.5625
719.85171	8800.6625
723.77365	8795.4625
727.69284	8652.0625
731.60928	8574.3625
735.52295	8554.4625
739.43388	8586.8625
743.34206	8637.8625
747.24749	8672.2625
751.15017	8722.6625
755.05012	8928.3625
758.94733	9520.4625
762.8418	10892.5625
766.73354	13277.7625
770.62254	15810.0625
774.50882	17074.6625
778.39237	16245.2625
782.27321	13756.0625
786.15132	11188.5625
790.02671	9675.2625
793.89938	9032.0625
797.76935	8744.8625
801.6366	8624.2625
805.50115	8545.1625
809.36299	8469.4625
813.22213	8427.6625
817.07857	8416.2625
820.93231	8409.2625
824.78336	8451.7625
828.63172	8546.5625
832.47738	8578.5625
836.32036	8566.7625
840.16066	8471.8625
843.99827	8385.4625
847.8332	8348.7625
851.66546	8309.7625
855.49504	8329.6625
859.32195	8281.9625
863.1462	8215.9625
866.96777	8168.8625
870.78668	8150.7625
874.60293	8179.8625
878.41652	8191.6625
882.22745	8244.2625
886.03573	8287.9625
889.84136	8281.1625
893.64433	8206.6625
897.44466	8175.2625
901.24235	8190.9625
905.0374	8176.2625
908.8298	8142.5625
912.61957	8112.6625
916.40671	8154.2625
920.19121	8217.8625
923.97308	8319.1625
927.75233	8440.6625
931.52895	8612.6625
935.30295	8479.6625
939.07433	8166.8625
942.84309	7883.6625
946.60924	7715.1625
950.37278	7604.3625
954.13371	7568.7625
957.89203	7522.0625
961.64774	7509.9625
965.40086	7468.6625
969.15137	7458.5625
972.89929	7427.2625
976.64461	7422.2625
980.38733	7397.7625
984.12747	7396.9625
987.86502	7428.4625
991.59999	7443.7625
995.33237	7518.0625
999.06217	7667.6625
1002.78939	7862.9625
1006.51404	8077.4625
1010.23611	8299.2625
1013.95561	8453.4625
1017.67255	8406.1625
1021.38692	8263.7625
1025.09872	8093.7625
1028.80796	7995.5625
1032.51465	8025.8625
1036.21877	8139.0625
1039.92035	8282.9625
1043.61937	8345.3625
1047.31584	8376.9625
1051.00976	8362.9625
1054.70114	8334.8625
1058.38998	8339.6625
1062.07627	8413.9625
1065.76003	8565.1625
1069.44126	8753.4625
1073.11995	9073.5625
1076.79611	9357.9625
1080.46974	9614.6625
1084.14085	9814.6625
1087.80943	9963.6625
1091.47549	9884.0625
1095.13903	9494.9625
1098.80005	8980.6625
1102.45857	8604.0625
1106.11456	8447.9625
1109.76805	8477.0625
1113.41903	8702.6625
1117.06751	9081.7625
1120.71348	9569.2625
1124.35696	10158.4625
1127.99793	10714.1625
1131.63641	10667.7625
1135.2724	10014.8625
1138.90589	9363.4625
1142.5369	8973.2625
1146.16542	8725.4625
1149.79145	8559.6625
1153.415	8539.1625
1157.03607	8646.0625
1160.65467	8862.7625
1164.27079	9260.1625
1167.88443	9897.1625
1171.49561	10978.7625
1175.10432	12754.9625
1178.71056	15074.5625
1182.31434	16585.8625
1185.91565	16636.4625
1189.51451	15810.8625
1193.11091	14524.8625
1196.70485	13068.6625
1200.29634	12058.0625
1203.88538	11371.7625
1207.47197	10542.4625
1211.05612	9821.4625
1214.63782	9398.5625
1218.21708	9242.5625
1221.79391	9247.0625
1225.36829	9318.6625
1228.94024	9396.4625
1232.50976	9446.2625
1236.07685	9502.9625
1239.6415	9542.6625
1243.20374	9576.3625
1246.76355	9643.2625
1250.32093	9773.9625
1253.8759	10004.5625
1257.42845	10364.0625
1260.97859	10751.8625
1264.52631	11165.1625
1268.07163	11574.8625
1271.61453	11953.9625
1275.15503	12219.8625
1278.69312	12206.8625
1282.22882	12200.4625
1285.76211	12474.7625
1289.29301	12933.1625
1292.82151	13391.4625
1296.34761	13857.5625
1299.87133	14586.5625
1303.39266	15921.2625
1306.9116	18104.7625
1310.42815	20748.9625
1313.94233	22458.5625
1317.45412	22016.7625
1320.96354	20097.2625
1324.47058	17948.9625
1327.97525	16158.9625
1331.47754	15089.8625
1334.97747	14635.6625
1338.47502	14648.4625
1341.97022	14980.0625
1345.46305	15778.1625
1348.95352	17103.7625
1352.44163	19012.5625
1355.92738	21542.3625
1359.41078	25456.8625
1362.89183	29483.1625
1366.37053	29025.0625
1369.84688	24092.7625
1373.32088	18981.9625
1376.79254	15756.7625
1380.26186	14138.3625
1383.72883	13306.4625
1387.19347	12620.5625
1390.65578	11926.3625
1394.11575	11322.1625
1397.57339	10972.9625
1401.0287	10880.7625
1404.48168	10901.2625
1407.93234	10987.3625
1411.38068	11031.5625
1414.82669	11038.0625
1418.27039	10910.3625
1421.71177	10753.3625
1425.15083	10607.0625
1428.58758	10449.9625
1432.02203	10485.7625
1435.45416	10580.9625
1438.88399	10678.6625
1442.31151	10671.0625
1445.73673	10698.2625
1449.15965	10756.4625
1452.58027	10705.3625
1455.9986	10583.5625
1459.41463	10548.6625
1462.82837	10650.5625
1466.23982	10854.2625
1469.64898	11164.6625
1473.05586	11420.7625
1476.46045	11557.1625
1479.86276	11816.1625
1483.26279	12186.2625
1486.66054	12617.8625
1490.05602	13134.0625
1493.44922	13928.8625
1496.84016	15147.6625
1500.22882	17099.6625
1503.61521	19712.5625
1506.99934	22745.9625
1510.38121	25713.8625
1513.76081	27384.7625
1517.13816	26277.4625
1520.51324	22654.5625
1523.88607	18818.7625
1527.25665	16022.3625
1530.62498	14418.7625
1533.99105	13518.5625
1537.35488	12889.8625
1540.71647	12493.8625
1544.07581	12319.1625
1547.4329	12209.0625
1550.78776	12172.1625
1554.14038	12206.0625
1557.49077	12388.0625
1560.83892	12746.9625
1564.18484	13314.5625
1567.52853	13980.9625
1570.86999	14625.3625
1574.20922	15140.8625
1577.54624	15312.3625
1580.88103	14642.2625
1584.2136	13412.1625
1587.54395	12372.7625
1590.87208	12008.3625
1594.19801	12367.0625
1597.52172	13186.1625
1600.84321	13525.2625
1604.16251	12986.6625
1607.47959	12096.7625
1610.79447	11177.3625
1614.10715	10288.9625
1617.41763	9580.1625
1620.7259	9116.7625
1624.03199	8918.1625
1627.33587	8937.8625
1630.63757	9160.3625
1633.93707	9590.4625
1637.23439	10313.7625
1640.52951	11442.6625
1643.82246	13079.1625
1647.11321	15327.0625
1650.40179	17269.2625
1653.68819	17235.1625
1656.97241	14983.8625
1660.25446	12107.8625
1663.53433	10007.7625
1666.81203	8781.5625
1670.08756	8086.2625
1673.36092	7642.2625
1676.63211	7391.1625
1679.90115	7211.6625
1683.16801	7094.0625
1686.43272	7004.2625
1689.69527	6939.4625
1692.95567	6888.7625
1696.2139	6884.3625
1699.46999	6892.5625
1702.72392	6862.1625
1705.97571	6839.4625
1709.22535	6788.6625
1712.47284	6780.1625
1715.71819	6765.1625
1718.96139	6774.6625
1722.20246	6767.7625
1725.44139	6741.4625
1728.67818	6658.7625
1731.91284	6610.5625
1735.14537	6525.7625
1738.37576	6499.2625
1741.60403	6450.3625
1744.83017	6439.7625
1748.05418	6398.0625
1751.27607	6405.9625
1754.49584	6385.5625
1757.71349	6371.7625
1760.92903	6386.2625
1764.14244	6363.4625
1767.35375	6359.5625
1770.56294	6326.6625
1773.77002	6304.4625
1776.97499	6261.3625
1780.17785	6223.5625
1783.37861	6193.3625
1786.57727	6160.3625
1789.77382	6148.9625
1792.96828	6150.3625
1796.16064	6138.6625
1799.3509	6114.7625
1802.53907	6102.9625
1805.72514	6082.9625
1808.90913	6073.3625
1812.09102	6015.6625
1815.27083	6027.6625
1818.44856	5998.6625
1821.6242	5992.5625
1824.79776	5979.9625
1827.96924	5964.6625
1831.13864	5948.3625
1834.30597	5969.9625
1837.47122	5947.0625
1840.6344	5943.6625
1843.7955	5940.9625
1846.95454	5926.4625
1850.11151	5935.1625
1853.26642	5924.6625
1856.41926	5927.8625
1859.57004	5913.3625
1862.71876	5914.9625
1865.86542	5922.0625
1869.01003	5937.7625
1872.15258	5913.6625
1875.29308	5907.8625
1878.43152	5894.5625
1881.56792	5921.5625
1884.70227	5912.1625
1887.83457	5908.3625
1890.96482	5918.6625
1894.09304	5889.0625
1897.21921	5883.5625
1900.34335	5887.7625
1903.46544	5863.1625
1906.58551	5901.8625
1909.70353	5879.6625
1912.81953	5881.1625
1915.93349	5868.7625
1919.04543	5863.1625
1922.15534	5841.3625
1925.26322	5821.7625
1928.36908	5817.0625
1931.47292	5788.5625
1934.57473	5770.0625
1937.67453	5739.2625
1940.77232	5712.9625
1943.86808	5685.7625
1946.96184	5660.8625
1950.05358	5661.0625
1953.14331	5630.0625
1956.23103	5593.7625
1959.31675	5601.4625
1962.40046	5583.8625
1965.48217	5561.5625
1968.56188	5552.1625
1971.63959	5524.3625
1974.7153	5532.5625
1977.78901	5489.1625
1980.86073	5465.8625
1983.93046	5440.9625
1986.99819	5428.6625
1990.06394	5414.0625
1993.1277	5391.8625
1996.18947	5385.8625
1999.24925	5356.9625
2002.30706	5331.4625
2005.36288	5319.2625
2008.41672	5297.1625
2011.46859	5286.1625
2014.51848	5258.6625
2017.56639	5250.5625
2020.61233	5226.2625
2023.6563	5209.8625
2026.6983	5212.5625
2029.73833	5199.5625
2032.7764	5174.5625
2035.8125	5179.6625
2038.84664	5124.4625
2041.87881	5154.3625
2044.90903	5126.3625
2047.93729	5102.5625
2050.96359	5114.3625
2053.98794	5115.9625
2057.01034	5096.2625
2060.03078	5087.2625
2063.04927	5073.3625
2066.06582	5095.1625
2069.08042	5069.9625
2072.09307	5075.1625
2075.10378	5052.6625
2078.11255	5044.1625
2081.11938	5044.4625
2084.12426	5048.7625
2087.12722	5021.5625
2090.12824	5033.9625
2093.12732	5041.2625
2096.12447	5043.9625
2099.11969	5024.9625
2102.11299	5029.7625
2105.10435	5033.8625
2108.09379	5043.2625
2111.08131	5054.2625
2114.0669	5048.7625
2117.05057	5052.7625
2120.03233	5050.0625
2123.01216	5074.9625
2125.99008	5048.6625
2128.96609	5059.8625
2131.94018	5049.9625
2134.91236	5061.1625
2137.88263	5057.6625
2140.851	5062.6625
2143.81746	5056.4625
2146.78201	5058.9625
2149.74466	5048.5625
2152.7054	5043.7625
2155.66425	5050.5625
2158.6212	5042.9625
2161.57625	5045.1625
2164.52941	5022.8625
2167.48067	5039.6625
2170.43004	5019.7625
2173.37752	5020.6625
2176.32311	5015.2625
2179.26681	5014.2625
2182.20863	5015.8625
2185.14856	5010.1625
2188.08661	5001.3625
2191.02278	4999.2625
2193.95707	4989.7625
2196.88948	4993.3625
2199.82001	4984.4625
2202.74867	4969.0625
2205.67545	4985.6625
2208.60037	4968.8625
2211.52341	4968.9625
2214.44458	4942.8625
2217.36388	4931.8625
2220.28132	4920.4625
2223.1969	4919.3625
2226.11061	4905.4625
2229.02246	4894.5625
2231.93245	4879.2625
2234.84058	4859.5625
2237.74686	4868.8625
2240.65128	4869.8625
2243.55385	4844.5625
2246.45456	4845.7625
2249.35343	4828.7625
2252.25044	4825.9625
2255.14561	4819.0625
2258.03893	4835.5625
2260.93041	4857.0625
2263.82004	4832.9625
2266.70783	4824.2625
2269.59378	4792.3625
2272.4779	4790.8625
2275.36017	4767.5625
2278.24061	4768.6625
2281.11922	4746.1625
2283.996	4739.9625
2286.87094	4731.9625
2289.74405	4711.7625
2292.61534	4686.0625
2295.4848	4677.8625
2298.35243	4692.3625
2301.21824	4679.7625
2304.08223	4676.8625
2306.94439	4682.6625
2309.80474	4666.8625
2312.66327	4672.7625
2315.51999	4649.7625
2318.37489	4661.0625
2321.22797	4654.7625
2324.07925	4635.3625
2326.92871	4640.5625
2329.77637	4638.0625
2332.62222	4633.6625
2335.46626	4611.4625
2338.3085	4639.7625
2341.14893	4614.3625
2343.98756	4617.4625
2346.8244	4623.4625
2349.65943	4628.3625
2352.49267	4618.8625
2355.32411	4632.9625
2358.15376	4650.3625
2360.98161	4648.9625
2363.80768	4660.1625
2366.63195	4663.3625
2369.45444	4690.6625
2372.27514	4657.9625
2375.09405	4660.5625
2377.91118	4641.7625
2380.72652	4610.6625
2383.54009	4604.7625
2386.35187	4579.0625
2389.16188	4560.1625
2391.97011	4534.2625
2394.77657	4516.2625
2397.58125	4498.0625
2400.38416	4490.4625
2403.18529	4474.8625
2405.98466	4465.7625
2408.78226	4467.7625
2411.57809	4444.4625
2414.37216	4454.5625
2417.16446	4430.5625
2419.955	4436.6625
2422.74378	4437.6625
2425.5308	4421.2625
2428.31606	4415.5625
2431.09956	4420.3625
2433.88131	4404.6625
2436.6613	4419.6625
2439.43954	4414.6625
2442.21603	4422.5625
2444.99077	4411.4625
2447.76377	4417.7625
2450.53501	4417.3625
2453.30451	4432.1625
2456.07226	4422.5625
2458.83827	4411.6625
2461.60254	4400.6625
2464.36507	4399.5625
2467.12586	4401.5625
2469.88492	4403.8625
2472.64224	4397.7625
2475.39782	4401.9625
2478.15167	4421.7625
2480.90379	4417.8625
2483.65417	4414.5625
2486.40283	4432.4625
2489.14976	4452.9625
2491.89497	4460.7625
2494.63845	4476.5625
2497.3802	4480.8625
2500.12024	4436.3625
2502.85855	4426.5625
2505.59514	4418.3625
2508.33002	4418.6625
2511.06318	4362.6625
2513.79462	4354.9625
2516.52435	4329.5625
2519.25237	4313.8625
2521.97867	4292.2625
2524.70327	4289.7625
2527.42616	4271.5625
2530.14734	4276.0625
2532.86681	4253.7625
2535.58458	4271.2625
2538.30065	4252.8625
2541.01501	4246.9625
2543.72768	4253.6625
2546.43864	4255.3625
2549.14791	4252.0625
2551.85548	4261.2625
2554.56136	4242.4625
2557.26554	4237.3625
2559.96803	4231.5625
2562.66883	4232.3625
2565.36794	4232.7625
2568.06536	4233.2625
2570.7611	4203.5625
2573.45514	4214.7625
2576.14751	4189.2625
2578.83819	4185.4625
2581.52719	4170.3625
2584.21451	4162.9625
2586.90015	4161.9625
2589.58411	4149.6625
2592.2664	4134.4625
2594.94701	4130.2625
2597.62594	4135.8625
2600.30321	4114.2625
2602.9788	4122.8625
2605.65273	4130.1625
2608.32498	4105.7625
2610.99557	4098.2625
2613.66449	4105.3625
2616.33175	4113.8625
2618.99734	4092.7625
2621.66128	4102.7625
2624.32355	4103.4625
2626.98416	4081.6625
2629.64311	4086.0625
2632.30041	4068.9625
2634.95605	4069.7625
2637.61004	4052.0625
2640.26238	4035.6625
2642.91306	4041.3625
2645.56209	4027.7625
2648.20948	4039.9625
2650.85521	4027.6625
2653.4993	4030.3625
2656.14175	4005.5625
2658.78255	4018.9625
2661.42171	4038.2625
2664.05923	4038.3625
2666.6951	4034.2625
2669.32934	4053.7625
2671.96194	4037.0625
2674.59291	4043.2625
2677.22224	4040.6625
2679.84993	4057.2625
2682.476	4041.4625
2685.10043	4056.5625
2687.72324	4040.3625
2690.34441	4050.9625
2692.96396	4049.6625
2695.58188	4046.1625
2698.19818	4041.8625
2700.81285	4066.6625
2703.4259	4085.8625
2706.03733	4137.5625
2708.64714	4090.7625
2711.25533	4080.8625
2713.86191	4075.0625
2716.46687	4078.5625
2719.07021	4069.2625
2721.67194	4078.0625
2724.27206	4070.9625
2726.87057	4059.2625
2729.46747	4055.1625
2732.06276	4054.9625
2734.65644	4058.1625
2737.24852	4041.9625
2739.83899	4043.6625
2742.42786	4026.4625
2745.01513	4004.5625
2747.60079	3996.6625
2750.18486	4010.1625
2752.76733	4002.6625
2755.3482	4005.1625
2757.92747	4015.6625
2760.50515	3988.8625
2763.08123	3976.7625
2765.65573	3960.5625
2768.22863	3960.2625
2770.79994	3954.4625
2773.36967	3958.0625
2775.9378	3943.0625
2778.50435	3953.9625
2781.06932	3938.0625
2783.6327	3949.3625
2786.1945	3935.4625
2788.75471	3935.3625
2791.31335	3924.6625
2793.87041	3939.6625
2796.42589	3923.3625
2798.97979	3925.8625
2801.53212	3923.3625
2804.08288	3931.4625
2806.63206	3929.3625
2809.17967	3912.6625
2811.72571	3920.7625
2814.27018	3929.3625
2816.81308	3926.8625
2819.35442	3936.9625
2821.89419	3936.3625
2824.43239	3946.6625
2826.96904	3944.8625
2829.50412	3962.8625
2832.03763	3963.8625
2834.56959	3968.9625
2837.1	3968.4625
2839.62884	3991.0625
2842.15613	4027.2625
2844.68186	4089.9625
2847.20604	4136.6625
2849.72867	4180.2625
2852.24974	4195.4625
2854.76927	4222.6625
2857.28724	4233.6625
2859.80367	4207.8625
2862.31855	4179.5625
2864.83189	4163.2625
2867.34368	4156.5625
2869.85393	4154.8625
2872.36264	4154.1625
2874.8698	4148.0625
2877.37543	4134.5625
2879.87952	4133.6625
2882.38207	4147.0625
2884.88308	4135.6625
2887.38256	4143.8625
2889.88051	4135.4625
2892.37692	4102.9625
2894.8718	4117.9625
2897.36515	4130.3625
2899.85698	4126.0625
2902.34727	4136.7625
2904.83604	4133.0625
2907.32328	4147.6625
2909.809	4149.3625
2912.29319	4141.8625
2914.77587	4130.5625
2917.25702	4121.5625
2919.73665	4103.6625
2922.21476	4123.9625
2924.69136	4115.1625
2927.16644	4095.5625
2929.64	4110.3625
2932.11205	4091.1625
2934.58258	4057.0625
2937.05161	4055.6625
2939.51912	4036.6625
2941.98513	4001.0625
2944.44962	3961.1625
2946.91261	3929.6625
2949.37409	3903.2625
2951.83407	3892.7625
2954.29254	3866.6625
2956.74951	3856.1625
2959.20498	3837.0625
2961.65895	3823.1625
2964.11142	3823.8625
2966.56239	3808.8625
2969.01186	3799.3625
2971.45984	3772.9625
2973.90632	3761.5625
2976.35131	3748.0625
2978.7948	3754.1625
2981.23681	3733.7625
2983.67732	3723.1625
2986.11635	3709.9625
2988.55388	3697.1625
2990.98993	3685.9625
2993.4245	3687.8625
2995.85758	3677.1625
2998.28917	3657.3625
3000.71928	3656.8625
3003.14791	3653.9625
3005.57506	3645.4625
3008.00073	3646.1625
3010.42493	3632.2625
3012.84764	3637.4625
3015.26888	3629.2625
3017.68865	3627.4625
3020.10694	3625.8625
3022.52376	3608.9625
3024.9391	3610.0625
3027.35298	3617.1625
3029.76539	3611.2625
3032.17632	3609.0625
3034.5858	3584.3625
3036.9938	3583.0625
3039.40034	3574.4625
3041.80542	3573.2625
3044.20903	3569.9625
3046.61118	3565.2625
3049.01187	3563.8625
3051.4111	3572.0625
3053.80888	3563.3625
3056.20519	3560.7625
3058.60005	3538.0625
3060.99345	3547.6625
3063.3854	3536.9625
3065.7759	3532.3625
3068.16494	3547.8625
3070.55254	3544.4625
3072.93868	3519.1625
3075.32338	3524.8625
3077.70662	3505.7625
3080.08842	3486.4625
3082.46878	3490.3625
3084.84769	3487.8625
3087.22515	3481.0625
3089.60118	3481.9625
3091.97576	3478.9625
3094.3489	3476.1625
3096.72061	3481.3625
3099.09087	3464.7625
3101.4597	3472.1625
3103.82709	3475.9625
3106.19305	3459.9625
3108.55757	3452.7625
3110.92066	3455.6625
3113.28232	3447.9625
3115.64255	3452.5625
3118.00134	3459.7625
3120.35871	3448.1625
3122.71466	3447.1625
3125.06917	3443.4625
3127.42226	3440.0625
3129.77393	3461.4625
3132.12417	3452.9625
3134.47299	3471.1625
3136.82039	3479.1625
3139.16636	3477.0625
3141.51092	3482.2625
3143.85406	3493.7625
3146.19579	3504.6625
3148.53609	3497.9625
3150.87499	3505.8625
3153.21246	3514.6625
3155.54853	3527.0625
3157.88318	3521.1625
3160.21642	3548.5625
3162.54826	3535.7625
3164.87868	3536.1625
3167.2077	3551.3625
3169.5353	3548.1625
3171.86151	3560.2625
3174.18631	3552.2625
3176.5097	3546.9625
3178.83169	3554.4625
3181.15228	3560.5625
3183.47147	3567.2625
3185.78926	3570.5625
3188.10565	3564.0625
3190.42065	3569.5625
3192.73424	3564.9625
3195.04645	3578.0625
3197.35725	3581.1625
3199.66667	3582.5625
3201.97469	3594.6625
3204.28132	3593.7625
3206.58656	3612.6625
3208.8904	3621.4625
3211.19287	3618.0625
3213.49394	3628.3625
3215.79363	3624.8625
3218.09193	3628.0625
3220.38884	3638.8625
3222.68438	3669.6625
3224.97853	3628.2625
3227.2713	3625.8625
3229.56269	3624.2625
3231.8527	3637.5625
3234.14133	3622.1625
3236.42858	3613.4625
3238.71446	3615.8625
3240.99896	3600.9625
3243.28209	3602.2625
3245.56384	3612.0625
3247.84423	3610.2625
3250.12324	3592.0625
3252.40088	3600.9625
3254.67715	3614.1625
3256.95205	3583.5625
3259.22558	3603.7625
3261.49775	3595.5625
3263.76855	3592.5625
3266.03799	3580.8625
3268.30606	3583.2625
3270.57277	3587.2625
3272.83812	3558.9625
3275.10211	3557.3625
3277.36474	3545.9625
3279.62601	3564.8625
3281.88593	3551.9625
3284.14448	3559.9625
3286.40168	3563.6625
3288.65753	3562.5625
3290.91202	3550.2625
3293.16516	3532.7625
3295.41695	3540.5625
3297.66738	3511.7625
3299.91647	3510.1625
3302.16421	3479.6625
3304.4106	3476.2625
3306.65564	3460.0625
3308.89933	3424.3625
3311.14169	3410.1625
3313.38269	3404.0625
3315.62236	3372.8625
3317.86068	3330.5625
3320.09766	3298.4625
3322.3333	3267.2625
3324.5676	3281.7625
3326.80056	3238.2625
3329.03219	3227.4625
3331.26248	2.5625
3333.49143	-0.1375
3335.71905	-1.3375
