Data from AgNP_FTO_APTES_CRN_0uM_R6G_10uM_NaF_0.1M_Addition_RamanShift__71__12-52-32-986.txt Node

Date: Wed Dec 15 12:52:32 GMT 2021
User: TCL
Spectrometer: QEP01345
Trigger mode: 4
Integration Time (sec): 7.000000E0
Scans to average: 10
Electric dark correction enabled: true
Nonlinearity correction enabled: false
Boxcar width: 0
XAxis mode: Raman Shifts
Number of Pixels in Spectrum: 1044
>>>>>Begin Spectral Data<<<<<
46.04893	0.0375
50.45542	-1.7625
54.85868	-1.5625
59.25871	-0.8625
63.6555	129.3375
68.04907	136.4375
72.43941	142.3375
76.82654	155.4375
81.21044	158.1375
85.59113	168.1375
89.96862	176.2375
94.34289	176.0375
98.71396	184.6375
103.08183	190.0375
107.4465	196.6375
111.80798	197.1375
116.16626	201.8375
120.52136	204.5375
124.87327	212.0375
129.222	219.1375
133.56755	229.6375
137.90993	242.7375
142.24913	262.6375
146.58517	285.6375
150.91804	323.0375
155.24774	379.0375
159.57429	463.5375
163.89768	578.2375
168.21792	750.0375
172.53501	1016.3375
176.84895	1382.6375
181.15975	1914.8375
185.46741	2673.1375
189.77193	3676.6375
194.07331	4891.2375
198.37157	6326.4375
202.6667	7815.2375
206.9587	9267.1375
211.24758	10703.2375
215.53334	12203.9375
219.81599	13817.4375
224.09553	15637.5375
228.37195	17603.9375
232.64527	19854.9375
236.91549	22072.5375
241.18261	24234.2375
245.44663	26108.3375
249.70755	27731.0375
253.96539	29077.8375
258.22014	30338.8375
262.4718	31415.3375
266.72039	32296.7375
270.96589	32775.5375
275.20832	32875.0375
279.44768	32669.4375
283.68397	32330.7375
287.91719	32037.3375
292.14735	31933.7375
296.37445	32115.0375
300.59849	32695.6375
304.81948	33451.8375
309.03742	34036.0375
313.25231	33915.3375
317.46415	32889.4375
321.67296	31257.1375
325.87872	29863.0375
330.08145	29191.0375
334.28114	29229.4375
338.47781	29602.1375
342.67145	30251.6375
346.86207	31185.5375
351.04966	32496.2375
355.23424	34033.0375
359.4158	35267.4375
363.59435	35956.9375
367.76989	36217.6375
371.94243	36258.0375
376.11196	36206.0375
380.27849	36191.9375
384.44203	36074.0375
388.60257	35964.6375
392.76012	36006.0375
396.91468	36504.2375
401.06626	37374.0375
405.21485	38123.4375
409.36047	37930.1375
413.50311	36844.0375
417.64277	35859.0375
421.77947	35389.2375
425.9132	35349.2375
430.04396	35485.1375
434.17176	35720.0375
438.2966	36171.1375
442.41849	37017.8375
446.53742	38125.4375
450.6534	39352.0375
454.76644	40403.0375
458.87653	40717.5375
462.98368	40486.6375
467.08789	39797.4375
471.18916	38742.2375
475.2875	37714.5375
479.38291	36885.9375
483.4754	36299.6375
487.56496	35836.9375
491.6516	35383.3375
495.73531	35141.1375
499.81612	35090.5375
503.89401	35322.6375
507.96899	35521.7375
512.04106	35774.4375
516.11023	36081.3375
520.1765	36257.0375
524.23987	36225.4375
528.30034	35833.1375
532.35792	35315.6375
536.41261	34733.1375
540.46441	34102.1375
544.51333	33848.9375
548.55936	34068.5375
552.60252	34675.9375
556.64279	35328.7375
560.6802	35669.4375
564.71473	36060.3375
568.7464	36982.7375
572.7752	37892.7375
576.80114	37804.5375
580.82422	37551.3375
584.84444	37647.7375
588.86181	37930.2375
592.87633	38483.8375
596.888	39259.0375
600.89682	40422.2375
604.9028	43628.2375
608.90594	51032.3375
612.90624	59509.4375
616.90371	56463.7375
620.89834	43733.9375
624.89015	37914.8375
628.87913	36868.4375
632.86528	36746.5375
636.84862	36526.5375
640.82913	35771.5375
644.80683	34596.2375
648.78172	33793.4375
652.75379	33868.2375
656.72306	34915.4375
660.68952	36139.3375
664.65319	35973.2375
668.61405	34917.9375
672.57211	34359.6375
676.52738	34226.7375
680.47986	34223.7375
684.42955	34092.6375
688.37646	34077.4375
692.32058	34144.8375
696.26192	34421.2375
700.20048	34927.3375
704.13626	35237.3375
708.06928	35060.8375
711.99952	34742.8375
715.927	34655.4375
719.85171	34669.4375
723.77365	34483.1375
727.69284	34086.9375
731.60928	33810.1375
735.52295	33790.1375
739.43388	33949.7375
743.34206	34171.0375
747.24749	34547.9375
751.15017	34974.6375
755.05012	35661.2375
758.94733	36929.7375
762.8418	39634.5375
766.73354	43925.7375
770.62254	48313.6375
774.50882	50025.8375
778.39237	47728.4375
782.27321	42973.2375
786.15132	38641.1375
790.02671	36138.8375
793.89938	35004.6375
797.76935	34575.1375
801.6366	34388.1375
805.50115	34174.2375
809.36299	33973.9375
813.22213	33827.7375
817.07857	33745.7375
820.93231	33827.6375
824.78336	33884.5375
828.63172	34008.2375
832.47738	34193.4375
836.32036	34215.3375
840.16066	34336.5375
843.99827	34377.6375
847.8332	34289.7375
851.66546	34001.7375
855.49504	33970.7375
859.32195	33881.6375
863.1462	33651.0375
866.96777	33445.7375
870.78668	33412.9375
874.60293	33430.6375
878.41652	33504.3375
882.22745	33637.5375
886.03573	33773.4375
889.84136	33718.9375
893.64433	33612.0375
897.44466	33435.1375
901.24235	33428.9375
905.0374	33443.3375
908.8298	33395.2375
912.61957	33487.5375
916.40671	33766.0375
920.19121	34177.2375
923.97308	34703.8375
927.75233	35122.6375
931.52895	35250.5375
935.30295	34815.7375
939.07433	34046.4375
942.84309	33439.7375
946.60924	33163.9375
950.37278	32965.8375
954.13371	32676.3375
957.89203	32440.7375
961.64774	32337.4375
965.40086	32233.5375
969.15137	32082.0375
972.89929	32009.6375
976.64461	31992.2375
980.38733	32122.6375
984.12747	32321.0375
987.86502	32613.2375
991.59999	33061.7375
995.33237	33732.8375
999.06217	34946.9375
1002.78939	36541.8375
1006.51404	37779.0375
1010.23611	38615.4375
1013.95561	39058.9375
1017.67255	38965.7375
1021.38692	38425.2375
1025.09872	38046.6375
1028.80796	38527.1375
1032.51465	39873.0375
1036.21877	41068.8375
1039.92035	41214.4375
1043.61937	40388.3375
1047.31584	38960.2375
1051.00976	37509.3375
1054.70114	36573.3375
1058.38998	36283.1375
1062.07627	36300.8375
1065.76003	36503.6375
1069.44126	36914.4375
1073.11995	37582.8375
1076.79611	38124.1375
1080.46974	38541.8375
1084.14085	38859.8375
1087.80943	39180.0375
1091.47549	39136.7375
1095.13903	38470.5375
1098.80005	37441.7375
1102.45857	36532.2375
1106.11456	36136.5375
1109.76805	36168.8375
1113.41903	36553.6375
1117.06751	37172.2375
1120.71348	37907.1375
1124.35696	38707.0375
1127.99793	39511.8375
1131.63641	39634.7375
1135.2724	38838.9375
1138.90589	37929.0375
1142.5369	37345.5375
1146.16542	36843.7375
1149.79145	36676.7375
1153.415	36809.3375
1157.03607	37165.5375
1160.65467	37907.7375
1164.27079	39041.6375
1167.88443	40887.4375
1171.49561	43648.6375
1175.10432	47851.9375
1178.71056	53401.5375
1182.31434	58157.6375
1185.91565	60320.1375
1189.51451	59950.7375
1193.11091	57285.3375
1196.70485	53407.3375
1200.29634	50323.3375
1203.88538	47875.9375
1207.47197	45782.5375
1211.05612	44148.4375
1214.63782	43339.9375
1218.21708	43379.6375
1221.79391	43752.6375
1225.36829	44030.1375
1228.94024	44104.7375
1232.50976	43811.2375
1236.07685	43610.7375
1239.6415	43478.6375
1243.20374	43428.9375
1246.76355	43603.4375
1250.32093	44197.1375
1253.8759	45330.2375
1257.42845	46804.6375
1260.97859	48156.1375
1264.52631	49248.3375
1268.07163	50325.5375
1271.61453	51514.5375
1275.15503	52880.9375
1278.69312	54163.7375
1282.22882	55344.4375
1285.76211	56645.7375
1289.29301	58100.2375
1292.82151	59518.0375
1296.34761	61138.4375
1299.87133	63559.3375
1303.39266	67289.5375
1306.9116	72671.0375
1310.42815	78992.4375
1313.94233	83174.6375
1317.45412	83265.4375
1320.96354	80272.8375
1324.47058	76321.3375
1327.97525	72910.6375
1331.47754	70843.9375
1334.97747	70309.0375
1338.47502	70785.5375
1341.97022	71442.6375
1345.46305	71866.5375
1348.95352	72228.7375
1352.44163	73401.6375
1355.92738	76680.4375
1359.41078	83009.3375
1362.89183	89698.5375
1366.37053	88822.6375
1369.84688	79362.4375
1373.32088	68829.2375
1376.79254	61695.5375
1380.26186	58066.8375
1383.72883	56406.0375
1387.19347	55134.7375
1390.65578	53898.0375
1394.11575	53156.8375
1397.57339	53284.2375
1401.0287	54136.5375
1404.48168	55406.1375
1407.93234	56902.6375
1411.38068	57999.3375
1414.82669	58094.9375
1418.27039	56656.9375
1421.71177	54640.4375
1425.15083	52868.6375
1428.58758	51927.9375
1432.02203	51926.9375
1435.45416	52298.0375
1438.88399	52757.3375
1442.31151	53010.3375
1445.73673	53298.6375
1449.15965	53721.5375
1452.58027	53639.7375
1455.9986	53175.0375
1459.41463	52947.4375
1462.82837	53260.1375
1466.23982	54219.9375
1469.64898	55228.7375
1473.05586	55910.1375
1476.46045	56476.1375
1479.86276	57283.7375
1483.26279	58085.3375
1486.66054	59185.1375
1490.05602	60435.1375
1493.44922	61933.9375
1496.84016	63421.4375
1500.22882	65442.1375
1503.61521	68254.8375
1506.99934	72048.6375
1510.38121	76232.8375
1513.76081	78632.0375
1517.13816	77275.5375
1520.51324	72202.9375
1523.88607	66431.8375
1527.25665	62194.0375
1530.62498	59595.7375
1533.99105	58039.8375
1537.35488	56952.4375
1540.71647	56345.5375
1544.07581	55904.2375
1547.4329	55303.6375
1550.78776	54693.1375
1554.14038	54119.1375
1557.49077	54039.7375
1560.83892	54218.1375
1564.18484	54568.8375
1567.52853	54870.8375
1570.86999	55231.1375
1574.20922	55759.0375
1577.54624	56194.0375
1580.88103	55617.4375
1584.2136	54696.3375
1587.54395	54971.5375
1590.87208	57039.9375
1594.19801	60919.2375
1597.52172	65367.0375
1600.84321	67431.0375
1604.16251	65316.1375
1607.47959	60392.6375
1610.79447	54716.8375
1614.10715	49795.4375
1617.41763	46101.6375
1620.7259	43842.8375
1624.03199	42837.9375
1627.33587	43041.6375
1630.63757	44391.1375
1633.93707	46808.9375
1637.23439	50204.3375
1640.52951	54412.6375
1643.82246	58897.0375
1647.11321	62812.0375
1650.40179	64465.8375
1653.68819	61834.5375
1656.97241	54978.8375
1660.25446	47485.4375
1663.53433	41949.8375
1666.81203	38538.8375
1670.08756	36484.2375
1673.36092	35211.7375
1676.63211	34371.5375
1679.90115	33762.6375
1683.16801	33352.2375
1686.43272	33016.9375
1689.69527	32831.4375
1692.95567	32675.6375
1696.2139	32565.5375
1699.46999	32501.8375
1702.72392	32453.3375
1705.97571	32441.5375
1709.22535	32383.6375
1712.47284	32418.7375
1715.71819	32442.4375
1718.96139	32371.1375
1722.20246	32330.7375
1725.44139	32202.8375
1728.67818	32050.5375
1731.91284	31834.4375
1735.14537	31647.5375
1738.37576	31535.4375
1741.60403	31445.8375
1744.83017	31302.9375
1748.05418	31230.0375
1751.27607	31233.7375
1754.49584	31197.5375
1757.71349	31148.5375
1760.92903	31093.5375
1764.14244	31108.9375
1767.35375	31082.4375
1770.56294	31073.0375
1773.77002	31000.9375
1776.97499	31032.8375
1780.17785	31022.1375
1783.37861	30980.2375
1786.57727	30944.3375
1789.77382	30883.7375
1792.96828	30842.8375
1796.16064	30848.0375
1799.3509	30819.1375
1802.53907	30775.2375
1805.72514	30724.2375
1808.90913	30607.3375
1812.09102	30625.5375
1815.27083	30555.7375
1818.44856	30514.4375
1821.6242	30459.6375
1824.79776	30426.9375
1827.96924	30490.0375
1831.13864	30423.2375
1834.30597	30434.1375
1837.47122	30443.6375
1840.6344	30428.7375
1843.7955	30408.0375
1846.95454	30457.1375
1850.11151	30400.1375
1853.26642	30402.2375
1856.41926	30411.2375
1859.57004	30438.1375
1862.71876	30509.3375
1865.86542	30433.2375
1869.01003	30484.8375
1872.15258	30497.7375
1875.29308	30551.2375
1878.43152	30530.8375
1881.56792	30548.7375
1884.70227	30555.1375
1887.83457	30609.4375
1890.96482	30590.4375
1894.09304	30562.4375
1897.21921	30557.4375
1900.34335	30565.7375
1903.46544	30560.3375
1906.58551	30586.2375
1909.70353	30572.9375
1912.81953	30560.6375
1915.93349	30572.3375
1919.04543	30497.6375
1922.15534	30465.7375
1925.26322	30367.9375
1928.36908	30316.7375
1931.47292	30212.0375
1934.57473	30158.9375
1937.67453	30009.4375
1940.77232	29930.8375
1943.86808	29829.4375
1946.96184	29733.4375
1950.05358	29573.6375
1953.14331	29485.3375
1956.23103	29359.1375
1959.31675	29291.3375
1962.40046	29227.5375
1965.48217	29140.2375
1968.56188	29083.5375
1971.63959	28991.8375
1974.7153	28905.5375
1977.78901	28809.0375
1980.86073	28723.8375
1983.93046	28608.2375
1986.99819	28477.1375
1990.06394	28407.7375
1993.1277	28348.7375
1996.18947	28253.9375
1999.24925	28178.7375
2002.30706	28091.1375
2005.36288	28059.9375
2008.41672	28019.9375
2011.46859	27859.2375
2014.51848	27851.9375
2017.56639	27737.8375
2020.61233	27671.5375
2023.6563	27616.9375
2026.6983	27548.6375
2029.73833	27539.5375
2032.7764	27453.8375
2035.8125	27412.3375
2038.84664	27386.6375
2041.87881	27353.8375
2044.90903	27317.9375
2047.93729	27265.4375
2050.96359	27228.0375
2053.98794	27181.6375
2057.01034	27174.8375
2060.03078	27182.3375
2063.04927	27090.6375
2066.06582	27043.3375
2069.08042	27069.2375
2072.09307	27068.5375
2075.10378	27001.6375
2078.11255	26973.6375
2081.11938	26968.2375
2084.12426	26887.5375
2087.12722	26880.5375
2090.12824	26879.5375
2093.12732	26913.8375
2096.12447	26887.3375
2099.11969	26835.5375
2102.11299	26872.9375
2105.10435	26861.0375
2108.09379	26902.0375
2111.08131	26903.4375
2114.0669	26906.1375
2117.05057	26925.3375
2120.03233	26906.3375
2123.01216	26927.7375
2125.99008	26965.0375
2128.96609	26915.4375
2131.94018	26957.6375
2134.91236	26964.4375
2137.88263	26982.3375
2140.851	27013.2375
2143.81746	27015.2375
2146.78201	26996.3375
2149.74466	27045.0375
2152.7054	27037.6375
2155.66425	27007.8375
2158.6212	27023.8375
2161.57625	26963.3375
2164.52941	27007.9375
2167.48067	26994.5375
2170.43004	26975.6375
2173.37752	26954.5375
2176.32311	26980.2375
2179.26681	26942.3375
2182.20863	27009.9375
2185.14856	27002.3375
2188.08661	26995.5375
2191.02278	26987.7375
2193.95707	26966.2375
2196.88948	27006.1375
2199.82001	27025.7375
2202.74867	27007.7375
2205.67545	27002.7375
2208.60037	26951.1375
2211.52341	26960.3375
2214.44458	26924.7375
2217.36388	26918.1375
2220.28132	26874.6375
2223.1969	26804.2375
2226.11061	26816.6375
2229.02246	26722.4375
2231.93245	26675.2375
2234.84058	26603.6375
2237.74686	26603.6375
2240.65128	26534.4375
2243.55385	26491.4375
2246.45456	26485.6375
2249.35343	26420.2375
2252.25044	26373.2375
2255.14561	26316.7375
2258.03893	26350.3375
2260.93041	26351.7375
2263.82004	26269.5375
2266.70783	26186.0375
2269.59378	26111.3375
2272.4779	26055.9375
2275.36017	26002.2375
2278.24061	25961.2375
2281.11922	25880.1375
2283.996	25812.2375
2286.87094	25808.8375
2289.74405	25757.5375
2292.61534	25710.0375
2295.4848	25687.8375
2298.35243	25697.1375
2301.21824	25769.6375
2304.08223	25770.8375
2306.94439	25768.1375
2309.80474	25777.8375
2312.66327	25788.6375
2315.51999	25785.2375
2318.37489	25827.3375
2321.22797	25791.9375
2324.07925	25762.7375
2326.92871	25773.2375
2329.77637	25746.5375
2332.62222	25700.0375
2335.46626	25712.3375
2338.3085	25715.3375
2341.14893	25772.9375
2343.98756	25818.0375
2346.8244	25822.1375
2349.65943	25738.6375
2352.49267	25743.7375
2355.32411	25761.1375
2358.15376	25716.2375
2360.98161	25691.3375
2363.80768	25662.0375
2366.63195	25634.9375
2369.45444	25583.5375
2372.27514	25513.9375
2375.09405	25427.2375
2377.91118	25396.1375
2380.72652	25324.0375
2383.54009	25283.0375
2386.35187	25265.2375
2389.16188	25200.4375
2391.97011	25199.4375
2394.77657	25124.8375
2397.58125	25071.6375
2400.38416	25040.4375
2403.18529	25000.4375
2405.98466	24844.0375
2408.78226	24840.9375
2411.57809	24792.3375
2414.37216	24721.2375
2417.16446	24719.2375
2419.955	24634.0375
2422.74378	24584.5375
2425.5308	24588.8375
2428.31606	24570.5375
2431.09956	24543.6375
2433.88131	24457.3375
2436.6613	24512.8375
2439.43954	24498.0375
2442.21603	24508.0375
2444.99077	24409.2375
2447.76377	24446.8375
2450.53501	24391.8375
2453.30451	24384.3375
2456.07226	24387.6375
2458.83827	24429.8375
2461.60254	24405.9375
2464.36507	24383.9375
2467.12586	24363.6375
2469.88492	24376.0375
2472.64224	24385.6375
2475.39782	24383.8375
2478.15167	24399.8375
2480.90379	24423.0375
2483.65417	24433.8375
2486.40283	24462.3375
2489.14976	24515.8375
2491.89497	24463.2375
2494.63845	24515.2375
2497.3802	24505.8375
2500.12024	24547.2375
2502.85855	24510.0375
2505.59514	24469.8375
2508.33002	24459.0375
2511.06318	24405.1375
2513.79462	24354.3375
2516.52435	24290.8375
2519.25237	24275.8375
2521.97867	24222.6375
2524.70327	24193.3375
2527.42616	24197.6375
2530.14734	24200.7375
2532.86681	24158.8375
2535.58458	24181.2375
2538.30065	24108.4375
2541.01501	24122.0375
2543.72768	24069.6375
2546.43864	24090.3375
2549.14791	24034.0375
2551.85548	24089.7375
2554.56136	24040.8375
2557.26554	24004.2375
2559.96803	23966.8375
2562.66883	23977.2375
2565.36794	23950.0375
2568.06536	23909.6375
2570.7611	23882.3375
2573.45514	23892.0375
2576.14751	23914.1375
2578.83819	23892.3375
2581.52719	23838.5375
2584.21451	23804.6375
2586.90015	23807.6375
2589.58411	23801.7375
2592.2664	23830.2375
2594.94701	23760.9375
2597.62594	23751.3375
2600.30321	23727.7375
2602.9788	23741.6375
2605.65273	23737.1375
2608.32498	23714.5375
2610.99557	23735.1375
2613.66449	23733.1375
2616.33175	23742.5375
2618.99734	23759.0375
2621.66128	23745.2375
2624.32355	23728.7375
2626.98416	23769.7375
2629.64311	23798.9375
2632.30041	23736.8375
2634.95605	23706.1375
2637.61004	23717.6375
2640.26238	23649.1375
2642.91306	23652.3375
2645.56209	23613.4375
2648.20948	23541.8375
2650.85521	23523.0375
2653.4993	23521.5375
2656.14175	23557.0375
2658.78255	23521.0375
2661.42171	23544.9375
2664.05923	23544.1375
2666.6951	23567.0375
2669.32934	23621.3375
2671.96194	23683.6375
2674.59291	23633.2375
2677.22224	23633.3375
2679.84993	23645.7375
2682.476	23622.4375
2685.10043	23607.2375
2687.72324	23601.2375
2690.34441	23574.3375
2692.96396	23548.3375
2695.58188	23585.7375
2698.19818	23537.8375
2700.81285	23546.1375
2703.4259	23532.4375
2706.03733	23527.2375
2708.64714	23515.5375
2711.25533	23515.2375
2713.86191	23479.0375
2716.46687	23521.5375
2719.07021	23506.2375
2721.67194	23536.8375
2724.27206	23511.2375
2726.87057	23534.8375
2729.46747	23528.8375
2732.06276	23587.1375
2734.65644	23551.9375
2737.24852	23554.3375
2739.83899	23517.8375
2742.42786	23548.7375
2745.01513	23519.6375
2747.60079	23550.8375
2750.18486	23476.6375
2752.76733	23483.4375
2755.3482	23472.4375
2757.92747	23522.2375
2760.50515	23461.4375
2763.08123	23433.5375
2765.65573	23435.7375
2768.22863	23440.6375
2770.79994	23403.5375
2773.36967	23373.0375
2775.9378	23384.6375
2778.50435	23404.4375
2781.06932	23365.3375
2783.6327	23387.6375
2786.1945	23360.9375
2788.75471	23296.1375
2791.31335	23289.0375
2793.87041	23282.3375
2796.42589	23197.5375
2798.97979	23175.0375
2801.53212	23087.6375
2804.08288	23102.0375
2806.63206	23067.4375
2809.17967	23046.0375
2811.72571	23025.4375
2814.27018	23037.5375
2816.81308	22965.4375
2819.35442	23007.4375
2821.89419	22939.1375
2824.43239	22996.6375
2826.96904	22984.3375
2829.50412	23025.1375
2832.03763	22986.5375
2834.56959	22975.7375
2837.1	22953.7375
2839.62884	22992.2375
2842.15613	22914.0375
2844.68186	22959.9375
2847.20604	22976.2375
2849.72867	22971.6375
2852.24974	22951.1375
2854.76927	22968.2375
2857.28724	22947.0375
2859.80367	22879.7375
2862.31855	22844.7375
2864.83189	22844.3375
2867.34368	22804.2375
2869.85393	22780.6375
2872.36264	22783.1375
2874.8698	22724.1375
2877.37543	22803.6375
2879.87952	22800.9375
2882.38207	22762.0375
2884.88308	22766.6375
2887.38256	22766.3375
2889.88051	22763.0375
2892.37692	22783.7375
2894.8718	22753.2375
2897.36515	22752.6375
2899.85698	22763.9375
2902.34727	22845.6375
2904.83604	22808.5375
2907.32328	22818.5375
2909.809	22798.3375
2912.29319	22790.9375
2914.77587	22781.0375
2917.25702	22761.5375
2919.73665	22786.7375
2922.21476	22791.3375
2924.69136	22722.5375
2927.16644	22730.0375
2929.64	22671.0375
2932.11205	22658.4375
2934.58258	22590.1375
2937.05161	22603.2375
2939.51912	22545.5375
2941.98513	22535.1375
2944.44962	22484.0375
2946.91261	22338.6375
2949.37409	22376.7375
2951.83407	22338.7375
2954.29254	22342.5375
2956.74951	22284.3375
2959.20498	22292.1375
2961.65895	22266.8375
2964.11142	22212.6375
2966.56239	22104.0375
2969.01186	22119.2375
2971.45984	21999.5375
2973.90632	21948.1375
2976.35131	21928.1375
2978.7948	21909.0375
2981.23681	21850.5375
2983.67732	21773.4375
2986.11635	21699.3375
2988.55388	21664.1375
2990.98993	21603.4375
2993.4245	21568.0375
2995.85758	21504.6375
2998.28917	21447.8375
3000.71928	21414.2375
3003.14791	21375.9375
3005.57506	21352.0375
3008.00073	21280.5375
3010.42493	21301.5375
3012.84764	21258.0375
3015.26888	21233.7375
3017.68865	21147.0375
3020.10694	21152.1375
3022.52376	21116.3375
3024.9391	21024.9375
3027.35298	20995.9375
3029.76539	20971.6375
3032.17632	20951.5375
3034.5858	20897.0375
3036.9938	20867.5375
3039.40034	20844.5375
3041.80542	20854.9375
3044.20903	20811.4375
3046.61118	20742.1375
3049.01187	20688.2375
3051.4111	20660.3375
3053.80888	20578.1375
3056.20519	20543.0375
3058.60005	20509.8375
3060.99345	20461.5375
3063.3854	20404.2375
3065.7759	20303.2375
3068.16494	20276.8375
3070.55254	20186.5375
3072.93868	20167.9375
3075.32338	20087.4375
3077.70662	20023.7375
3080.08842	19946.1375
3082.46878	19951.6375
3084.84769	19905.0375
3087.22515	19872.6375
3089.60118	19897.5375
3091.97576	19875.6375
3094.3489	19845.1375
3096.72061	19827.1375
3099.09087	19770.1375
3101.4597	19745.0375
3103.82709	19734.9375
3106.19305	19699.1375
3108.55757	19690.4375
3110.92066	19610.0375
3113.28232	19574.2375
3115.64255	19539.8375
3118.00134	19464.6375
3120.35871	19446.8375
3122.71466	19391.5375
3125.06917	19396.6375
3127.42226	19344.6375
3129.77393	19373.4375
3132.12417	19328.1375
3134.47299	19292.7375
3136.82039	19315.9375
3139.16636	19309.5375
3141.51092	19276.0375
3143.85406	19304.2375
3146.19579	19265.9375
3148.53609	19219.6375
3150.87499	19242.7375
3153.21246	19250.7375
3155.54853	19256.5375
3157.88318	19214.4375
3160.21642	19203.3375
3162.54826	19185.6375
3164.87868	19130.3375
3167.2077	19117.9375
3169.5353	19177.5375
3171.86151	19083.9375
3174.18631	19071.8375
3176.5097	19057.2375
3178.83169	19028.3375
3181.15228	19020.6375
3183.47147	18973.6375
3185.78926	18965.4375
3188.10565	18941.1375
3190.42065	18957.2375
3192.73424	18923.2375
3195.04645	18931.1375
3197.35725	18950.4375
3199.66667	18914.6375
3201.97469	18940.9375
3204.28132	18896.2375
3206.58656	18938.6375
3208.8904	18922.6375
3211.19287	18915.2375
3213.49394	18887.0375
3215.79363	18863.1375
3218.09193	18913.3375
3220.38884	18877.0375
3222.68438	18864.8375
3224.97853	18853.7375
3227.2713	18839.5375
3229.56269	18810.2375
3231.8527	18763.4375
3234.14133	18764.0375
3236.42858	18713.2375
3238.71446	18673.2375
3240.99896	18633.7375
3243.28209	18645.0375
3245.56384	18628.9375
3247.84423	18658.3375
3250.12324	18608.5375
3252.40088	18625.4375
3254.67715	18617.2375
3256.95205	18573.3375
3259.22558	18534.2375
3261.49775	18480.5375
3263.76855	18452.0375
3266.03799	18399.4375
3268.30606	18411.1375
3270.57277	18385.4375
3272.83812	18349.0375
3275.10211	18332.6375
3277.36474	18305.6375
3279.62601	18325.7375
3281.88593	18258.1375
3284.14448	18287.3375
3286.40168	18263.4375
3288.65753	18264.0375
3290.91202	18197.9375
3293.16516	18157.0375
3295.41695	18139.3375
3297.66738	18030.6375
3299.91647	17957.5375
3302.16421	17838.7375
3304.4106	17770.9375
3306.65564	17736.9375
3308.89933	17587.0375
3311.14169	17472.1375
3313.38269	17326.3375
3315.62236	17217.0375
3317.86068	17111.1375
3320.09766	16910.3375
3322.3333	16760.7375
3324.5676	16779.9375
3326.80056	16494.2375
3329.03219	16388.6375
3331.26248	4.4375
3333.49143	-0.6625
3335.71905	-0.2625
