Data from AgNP_FTO_APTES_CRN_5uM_R6G_10uM_NaF_0.1M_Addition_RamanShift__28__15-58-37-932.txt Node

Date: Wed Dec 15 15:58:37 GMT 2021
User: TCL
Spectrometer: QEP01345
Trigger mode: 4
Integration Time (sec): 7.000000E0
Scans to average: 10
Electric dark correction enabled: true
Nonlinearity correction enabled: false
Boxcar width: 0
XAxis mode: Raman Shifts
Number of Pixels in Spectrum: 1044
>>>>>Begin Spectral Data<<<<<
46.04893	0.4
50.45542	-1.8
54.85868	-1.9
59.25871	-1.3
63.6555	105.2
68.04907	110.3
72.43941	117.2
76.82654	125
81.21044	125.1
85.59113	132.9
89.96862	139.9
94.34289	133.6
98.71396	141.5
103.08183	150.8
107.4465	155.1
111.80798	155
116.16626	161.4
120.52136	169.3
124.87327	171.9
129.222	176.7
133.56755	187.8
137.90993	199.8
142.24913	220.7
146.58517	244.8
150.91804	278.2
155.24774	327.1
159.57429	409.5
163.89768	516
168.21792	682.9
172.53501	918.5
176.84895	1272.2
181.15975	1781.1
185.46741	2480.5
189.77193	3416.3
194.07331	4572.9
198.37157	5882.3
202.6667	7252.7
206.9587	8614.3
211.24758	9971.4
215.53334	11342.2
219.81599	12806.7
224.09553	14460.2
228.37195	16290.4
232.64527	18365.6
236.91549	20455.4
241.18261	22504
245.44663	24330.8
249.70755	25927.4
253.96539	27326.2
258.22014	28586.6
262.4718	29631.3
266.72039	30466
270.96589	30924.6
275.20832	31071.2
279.44768	30983
283.68397	30723.2
287.91719	30560.6
292.14735	30446.6
296.37445	30660.2
300.59849	31116.3
304.81948	31579.3
309.03742	31848.7
313.25231	31626.8
317.46415	30686.1
321.67296	29386.8
325.87872	28341.9
330.08145	27819.3
334.28114	27851.4
338.47781	28210.2
342.67145	28737.4
346.86207	29475.7
351.04966	30489.4
355.23424	31589.4
359.4158	32558.6
363.59435	33078.7
367.76989	33341.5
371.94243	33460.1
376.11196	33459.5
380.27849	33437.1
384.44203	33375.2
388.60257	33377
392.76012	33518.4
396.91468	33985
401.06626	34683
405.21485	35184.3
409.36047	34967
413.50311	34067.7
417.64277	33280.7
421.77947	32945.4
425.9132	32920.6
430.04396	33077
434.17176	33333.2
438.2966	33721.6
442.41849	34171.1
446.53742	35033.7
450.6534	35975.7
454.76644	36700.6
458.87653	37019.8
462.98368	36936.2
467.08789	36500.1
471.18916	35829.6
475.2875	35068.2
479.38291	34446.9
483.4754	33994.7
487.56496	33631.8
491.6516	33289.9
495.73531	33095.7
499.81612	33143.2
503.89401	33364.6
507.96899	33592.5
512.04106	33708.3
516.11023	33943
520.1765	34090.1
524.23987	34040.7
528.30034	33717.6
532.35792	33223.1
536.41261	32693.4
540.46441	32212.9
544.51333	32127.1
548.55936	32378.5
552.60252	33037
556.64279	33656.6
560.6802	33918.6
564.71473	34110
568.7464	34698.7
572.7752	35396.6
576.80114	35426.7
580.82422	35389.6
584.84444	35459.5
588.86181	35582.7
592.87633	35788.5
596.888	36345.7
600.89682	37282.2
604.9028	39970.9
608.90594	46049
612.90624	52532.5
616.90371	49547.4
620.89834	39555.3
624.89015	35154.5
628.87913	34486.5
632.86528	34413.3
636.84862	34242.4
640.82913	33686.4
644.80683	32748.7
648.78172	32066.7
652.75379	32119
656.72306	32889
660.68952	33768.8
664.65319	33622.4
668.61405	32817.9
672.57211	32448.1
676.52738	32410.5
680.47986	32439.8
684.42955	32275.1
688.37646	32284.1
692.32058	32448.1
696.26192	32707.9
700.20048	33089.4
704.13626	33309.1
708.06928	33222.6
711.99952	32972.7
715.927	32894.1
719.85171	32880.5
723.77365	32746.6
727.69284	32426.5
731.60928	32127.4
735.52295	32116.1
739.43388	32162.9
743.34206	32378.4
747.24749	32619.7
751.15017	32965.1
755.05012	33584.2
758.94733	34740.9
762.8418	37054.1
766.73354	40755.1
770.62254	44356.1
774.50882	45489.2
778.39237	43158.7
782.27321	39178.1
786.15132	35787.1
790.02671	33831.4
793.89938	32942
797.76935	32636.5
801.6366	32482.1
805.50115	32306.9
809.36299	32151.9
813.22213	31989.7
817.07857	31939
820.93231	31939.3
824.78336	31981.2
828.63172	32071.6
832.47738	32209.7
836.32036	32305.3
840.16066	32369.4
843.99827	32438.1
847.8332	32338.4
851.66546	32175.4
855.49504	32094.7
859.32195	32015.7
863.1462	31808.1
866.96777	31668.8
870.78668	31624.6
874.60293	31645.6
878.41652	31648.8
882.22745	31807.8
886.03573	31913.4
889.84136	31848
893.64433	31757.2
897.44466	31624
901.24235	31634.9
905.0374	31627.1
908.8298	31571.9
912.61957	31686.2
916.40671	31951.7
920.19121	32376.2
923.97308	32833.3
927.75233	32994.9
931.52895	32985.3
935.30295	32603.3
939.07433	32021.2
942.84309	31521.2
946.60924	31312.6
950.37278	31184.1
954.13371	30924.7
957.89203	30700.6
961.64774	30601.3
965.40086	30538.6
969.15137	30428
972.89929	30367.3
976.64461	30380.7
980.38733	30399
984.12747	30562.6
987.86502	30817.2
991.59999	31206.7
995.33237	31824.3
999.06217	32914
1002.78939	34178.8
1006.51404	35054.6
1010.23611	35594
1013.95561	35953.4
1017.67255	35881.3
1021.38692	35463.6
1025.09872	35287.2
1028.80796	35839.6
1032.51465	37107.3
1036.21877	38212.4
1039.92035	38261
1043.61937	37594.7
1047.31584	36497.3
1051.00976	35306.6
1054.70114	34679.5
1058.38998	34520.4
1062.07627	34687.1
1065.76003	35003.9
1069.44126	35469.8
1073.11995	36092.7
1076.79611	36685.5
1080.46974	37079.3
1084.14085	37290.5
1087.80943	37351.8
1091.47549	37182
1095.13903	36523.8
1098.80005	35593.7
1102.45857	34848.3
1106.11456	34393.1
1109.76805	34465.7
1113.41903	34787.6
1117.06751	35297.8
1120.71348	35852
1124.35696	36437.9
1127.99793	37057.5
1131.63641	37162.3
1135.2724	36609.1
1138.90589	35958.8
1142.5369	35513.3
1146.16542	35168.9
1149.79145	35024.6
1153.415	35210
1157.03607	35602.6
1160.65467	36233
1164.27079	37317.5
1167.88443	38968.2
1171.49561	41377.7
1175.10432	44954.4
1178.71056	49625.9
1182.31434	53599
1185.91565	55481.8
1189.51451	55143.9
1193.11091	52770.7
1196.70485	49608.9
1200.29634	46890.4
1203.88538	44906.8
1207.47197	43148.4
1211.05612	41755
1214.63782	40982.7
1218.21708	40935.7
1221.79391	41080.6
1225.36829	41369
1228.94024	41405.8
1232.50976	41177.5
1236.07685	40980.1
1239.6415	40903.9
1243.20374	40936.6
1246.76355	41138.9
1250.32093	41728.2
1253.8759	42712.8
1257.42845	44031.4
1260.97859	45152.5
1264.52631	46020.1
1268.07163	47039.2
1271.61453	48127.1
1275.15503	49458.2
1278.69312	50726
1282.22882	51752.8
1285.76211	52567.1
1289.29301	53496.5
1292.82151	54466.7
1296.34761	55779.8
1299.87133	57862.8
1303.39266	61264.4
1306.9116	65866.5
1310.42815	70985.3
1313.94233	74437.1
1317.45412	74484.7
1320.96354	72149.9
1324.47058	69104.8
1327.97525	66444.3
1331.47754	64789.9
1334.97747	64388.8
1338.47502	64937.3
1341.97022	65870.8
1345.46305	66288.8
1348.95352	66526.8
1352.44163	67224.7
1355.92738	69652.6
1359.41078	74794.2
1362.89183	79951.5
1366.37053	78610.6
1369.84688	70569.7
1373.32088	62018
1376.79254	56339.1
1380.26186	53496.4
1383.72883	52122.8
1387.19347	51153.2
1390.65578	50014.4
1394.11575	49333.9
1397.57339	49309.1
1401.0287	49868.3
1404.48168	50890.6
1407.93234	51943.1
1411.38068	52712.9
1414.82669	52594.5
1418.27039	51376.3
1421.71177	49782.8
1425.15083	48231.5
1428.58758	47375.9
1432.02203	47291.5
1435.45416	47599.7
1438.88399	47963.8
1442.31151	48287.9
1445.73673	48788.5
1449.15965	49168.3
1452.58027	49271.5
1455.9986	49097.5
1459.41463	49117.2
1462.82837	49577.5
1466.23982	50447.4
1469.64898	51536.4
1473.05586	52314.1
1476.46045	52816.7
1479.86276	53405.6
1483.26279	53957.5
1486.66054	54523.6
1490.05602	55473.2
1493.44922	56518
1496.84016	57699.4
1500.22882	59523.1
1503.61521	62065.7
1506.99934	65499.3
1510.38121	68975.4
1513.76081	70711.4
1517.13816	69156.4
1520.51324	65141.9
1523.88607	60633.1
1527.25665	57385.7
1530.62498	55300.3
1533.99105	54065.5
1537.35488	53279.5
1540.71647	52782.7
1544.07581	52439.1
1547.4329	51931.1
1550.78776	51441.1
1554.14038	51145.4
1557.49077	51183.2
1560.83892	51406.4
1564.18484	51763
1567.52853	52007.9
1570.86999	52351.2
1574.20922	52963.5
1577.54624	53549.1
1580.88103	53261.3
1584.2136	52649.9
1587.54395	52654.8
1590.87208	53894.1
1594.19801	56566.5
1597.52172	59855.1
1600.84321	61158.7
1604.16251	59098.7
1607.47959	55198.1
1610.79447	51024
1614.10715	47232.8
1617.41763	44221.8
1620.7259	42187.9
1624.03199	41222.9
1627.33587	41313.8
1630.63757	42306.5
1633.93707	44238.7
1637.23439	47130.3
1640.52951	50548.3
1643.82246	54249
1647.11321	57499.3
1650.40179	58954.2
1653.68819	56661.8
1656.97241	51058.2
1660.25446	44893
1663.53433	40221.9
1666.81203	37265
1670.08756	35369.7
1673.36092	34238.9
1676.63211	33468.9
1679.90115	32914.9
1683.16801	32490.6
1686.43272	32173.3
1689.69527	31967.5
1692.95567	31811.2
1696.2139	31719.9
1699.46999	31668.5
1702.72392	31605.5
1705.97571	31538.8
1709.22535	31513.6
1712.47284	31472.1
1715.71819	31508.7
1718.96139	31414.7
1722.20246	31361.9
1725.44139	31294.6
1728.67818	31129.8
1731.91284	30951.1
1735.14537	30841.5
1738.37576	30714.3
1741.60403	30629
1744.83017	30509.6
1748.05418	30486.3
1751.27607	30422.6
1754.49584	30381.6
1757.71349	30393.6
1760.92903	30355.9
1764.14244	30355.4
1767.35375	30348.5
1770.56294	30346.9
1773.77002	30257.1
1776.97499	30299
1780.17785	30225
1783.37861	30187
1786.57727	30160.4
1789.77382	30065.3
1792.96828	30058
1796.16064	30038.2
1799.3509	30021.9
1802.53907	29988.8
1805.72514	29954.8
1808.90913	29888.7
1812.09102	29801.8
1815.27083	29747.7
1818.44856	29753.2
1821.6242	29738.4
1824.79776	29682.2
1827.96924	29687
1831.13864	29641.8
1834.30597	29718.2
1837.47122	29650.1
1840.6344	29716.7
1843.7955	29686.3
1846.95454	29705
1850.11151	29725.8
1853.26642	29703.9
1856.41926	29769.8
1859.57004	29756.5
1862.71876	29730.9
1865.86542	29782.1
1869.01003	29786.5
1872.15258	29818.4
1875.29308	29860.3
1878.43152	29831.5
1881.56792	29814.5
1884.70227	29837.1
1887.83457	29822.8
1890.96482	29817.3
1894.09304	29821
1897.21921	29856
1900.34335	29821.9
1903.46544	29815.2
1906.58551	29827.6
1909.70353	29836.2
1912.81953	29782.6
1915.93349	29756.3
1919.04543	29703.6
1922.15534	29749.1
1925.26322	29640.8
1928.36908	29546.6
1931.47292	29471.5
1934.57473	29378.3
1937.67453	29331.8
1940.77232	29216.8
1943.86808	29095.9
1946.96184	29023.6
1950.05358	28924
1953.14331	28816.6
1956.23103	28735
1959.31675	28664.4
1962.40046	28568.5
1965.48217	28497.1
1968.56188	28404.6
1971.63959	28316.8
1974.7153	28237.7
1977.78901	28147.8
1980.86073	28114
1983.93046	28027.8
1986.99819	27927.3
1990.06394	27858.6
1993.1277	27770.6
1996.18947	27699.1
1999.24925	27644
2002.30706	27520.8
2005.36288	27444.3
2008.41672	27418.8
2011.46859	27341.7
2014.51848	27333.1
2017.56639	27255.6
2020.61233	27188.8
2023.6563	27121
2026.6983	27105.3
2029.73833	27043.5
2032.7764	26977.4
2035.8125	26896.5
2038.84664	26854.5
2041.87881	26902.6
2044.90903	26824.4
2047.93729	26772.4
2050.96359	26743
2053.98794	26702.2
2057.01034	26722
2060.03078	26670.9
2063.04927	26644.8
2066.06582	26645.2
2069.08042	26619.7
2072.09307	26571.5
2075.10378	26556.8
2078.11255	26510.7
2081.11938	26508
2084.12426	26488.9
2087.12722	26497.8
2090.12824	26476.4
2093.12732	26505.6
2096.12447	26507
2099.11969	26419
2102.11299	26474.6
2105.10435	26507.6
2108.09379	26513.1
2111.08131	26558.2
2114.0669	26566.6
2117.05057	26558.8
2120.03233	26563.9
2123.01216	26589.5
2125.99008	26632.5
2128.96609	26597.3
2131.94018	26649.2
2134.91236	26672.2
2137.88263	26712.8
2140.851	26705.7
2143.81746	26735.5
2146.78201	26703.1
2149.74466	26737.7
2152.7054	26753.9
2155.66425	26757.8
2158.6212	26773
2161.57625	26728.9
2164.52941	26753.7
2167.48067	26704.3
2170.43004	26723
2173.37752	26755.6
2176.32311	26720.6
2179.26681	26753.1
2182.20863	26740.4
2185.14856	26743.2
2188.08661	26759.6
2191.02278	26743.4
2193.95707	26718.3
2196.88948	26742.8
2199.82001	26740.8
2202.74867	26713.3
2205.67545	26746.6
2208.60037	26720.4
2211.52341	26747.8
2214.44458	26756.4
2217.36388	26735.6
2220.28132	26707.1
2223.1969	26652.9
2226.11061	26678.8
2229.02246	26577.8
2231.93245	26452
2234.84058	26362.1
2237.74686	26340
2240.65128	26334.8
2243.55385	26279.3
2246.45456	26270
2249.35343	26238.2
2252.25044	26186.6
2255.14561	26163.7
2258.03893	26146.3
2260.93041	26148.5
2263.82004	26102.7
2266.70783	26052.9
2269.59378	25955.1
2272.4779	25888.9
2275.36017	25803
2278.24061	25768.5
2281.11922	25701.3
2283.996	25704.1
2286.87094	25707.6
2289.74405	25652.2
2292.61534	25634.2
2295.4848	25586.8
2298.35243	25616.8
2301.21824	25613.8
2304.08223	25639.3
2306.94439	25638.2
2309.80474	25659.9
2312.66327	25694.7
2315.51999	25701.9
2318.37489	25678.8
2321.22797	25649.4
2324.07925	25665.5
2326.92871	25644.8
2329.77637	25655.2
2332.62222	25626.2
2335.46626	25612.5
2338.3085	25606
2341.14893	25640.8
2343.98756	25690.3
2346.8244	25679.1
2349.65943	25702.1
2352.49267	25701.1
2355.32411	25671.4
2358.15376	25597.8
2360.98161	25634.8
2363.80768	25604.8
2366.63195	25585.9
2369.45444	25565.5
2372.27514	25470.1
2375.09405	25404
2377.91118	25364.7
2380.72652	25303.2
2383.54009	25235.8
2386.35187	25201.4
2389.16188	25154.1
2391.97011	25131.2
2394.77657	25104.3
2397.58125	25060.8
2400.38416	25045.4
2403.18529	24959.3
2405.98466	24915.4
2408.78226	24852.1
2411.57809	24812.7
2414.37216	24758.1
2417.16446	24747.5
2419.955	24695.2
2422.74378	24691.8
2425.5308	24628.8
2428.31606	24626.1
2431.09956	24599.6
2433.88131	24619.4
2436.6613	24611
2439.43954	24585.5
2442.21603	24528.9
2444.99077	24527.4
2447.76377	24565.5
2450.53501	24568.1
2453.30451	24557.8
2456.07226	24498
2458.83827	24521
2461.60254	24516.8
2464.36507	24480.5
2467.12586	24515.3
2469.88492	24489.6
2472.64224	24471.9
2475.39782	24491
2478.15167	24551.9
2480.90379	24536
2483.65417	24587.6
2486.40283	24570.8
2489.14976	24581.3
2491.89497	24599
2494.63845	24630.2
2497.3802	24624.8
2500.12024	24621.5
2502.85855	24646.2
2505.59514	24661
2508.33002	24605.6
2511.06318	24566.8
2513.79462	24502.3
2516.52435	24480.7
2519.25237	24445.6
2521.97867	24404.3
2524.70327	24398.6
2527.42616	24350.9
2530.14734	24344.2
2532.86681	24292.7
2535.58458	24290.3
2538.30065	24302.7
2541.01501	24337.4
2543.72768	24302.1
2546.43864	24302.3
2549.14791	24269.9
2551.85548	24256.2
2554.56136	24242
2557.26554	24198.2
2559.96803	24161.9
2562.66883	24136
2565.36794	24114.4
2568.06536	24105.8
2570.7611	24089.9
2573.45514	24047
2576.14751	24088.8
2578.83819	24060.9
2581.52719	24056.7
2584.21451	24021
2586.90015	24042.2
2589.58411	24026.7
2592.2664	24003.8
2594.94701	23985.4
2597.62594	23972.4
2600.30321	23968.1
2602.9788	23938.3
2605.65273	23937.9
2608.32498	23934.8
2610.99557	23892.7
2613.66449	23926
2616.33175	23927.3
2618.99734	23929.7
2621.66128	23938.5
2624.32355	23994.1
2626.98416	23977.8
2629.64311	23961.5
2632.30041	23944.4
2634.95605	23920.7
2637.61004	23889.7
2640.26238	23846
2642.91306	23801
2645.56209	23761.5
2648.20948	23803.1
2650.85521	23723
2653.4993	23762.2
2656.14175	23728
2658.78255	23737.9
2661.42171	23728.3
2664.05923	23761
2666.6951	23790.8
2669.32934	23810.7
2671.96194	23796.7
2674.59291	23851.6
2677.22224	23812.2
2679.84993	23808.4
2682.476	23763.4
2685.10043	23817.3
2687.72324	23747.5
2690.34441	23791.9
2692.96396	23745.8
2695.58188	23739.8
2698.19818	23725
2700.81285	23707.9
2703.4259	23711
2706.03733	23764.6
2708.64714	23767.6
2711.25533	23768.6
2713.86191	23756
2716.46687	23795.4
2719.07021	23788.1
2721.67194	23792.4
2724.27206	23752.5
2726.87057	23773.1
2729.46747	23772.6
2732.06276	23795.1
2734.65644	23780.6
2737.24852	23799.8
2739.83899	23773.7
2742.42786	23781.7
2745.01513	23745.9
2747.60079	23747.2
2750.18486	23707.8
2752.76733	23721.2
2755.3482	23725.5
2757.92747	23737.9
2760.50515	23725.7
2763.08123	23714
2765.65573	23655.7
2768.22863	23641
2770.79994	23578.2
2773.36967	23593.9
2775.9378	23567.6
2778.50435	23536
2781.06932	23561
2783.6327	23589.6
2786.1945	23563.6
2788.75471	23539.3
2791.31335	23463.1
2793.87041	23451.9
2796.42589	23377.7
2798.97979	23396.5
2801.53212	23329.3
2804.08288	23290.5
2806.63206	23258.6
2809.17967	23212.6
2811.72571	23179.7
2814.27018	23190.7
2816.81308	23176.5
2819.35442	23147.6
2821.89419	23140.8
2824.43239	23164.6
2826.96904	23123.2
2829.50412	23168.6
2832.03763	23089.3
2834.56959	23127.9
2837.1	23030.2
2839.62884	23045.1
2842.15613	23001.1
2844.68186	23030.1
2847.20604	23004
2849.72867	23015.6
2852.24974	23000.8
2854.76927	22975.4
2857.28724	22973.4
2859.80367	22930.9
2862.31855	22919.1
2864.83189	22901.6
2867.34368	22838.5
2869.85393	22873
2872.36264	22828.6
2874.8698	22809.2
2877.37543	22863.7
2879.87952	22885.9
2882.38207	22839.7
2884.88308	22821.6
2887.38256	22881.7
2889.88051	22838.7
2892.37692	22857.6
2894.8718	22852.5
2897.36515	22878.4
2899.85698	22871.8
2902.34727	22944.3
2904.83604	22909.5
2907.32328	22926.3
2909.809	22952.7
2912.29319	23002.4
2914.77587	22993.3
2917.25702	22983.8
2919.73665	22973.6
2922.21476	23001.1
2924.69136	22921.7
2927.16644	22909.1
2929.64	22877.4
2932.11205	22839.2
2934.58258	22699.6
2937.05161	22792.6
2939.51912	22799.2
2941.98513	22843.9
2944.44962	22727
2946.91261	22618.4
2949.37409	22718.6
2951.83407	22688.6
2954.29254	22679.3
2956.74951	22634.3
2959.20498	22621.2
2961.65895	22580.3
2964.11142	22592.9
2966.56239	22517
2969.01186	22512.4
2971.45984	22461.7
2973.90632	22426.3
2976.35131	22383.5
2978.7948	22326.8
2981.23681	22275
2983.67732	22262.9
2986.11635	22183
2988.55388	22130.9
2990.98993	22120.3
2993.4245	22059.2
2995.85758	22043.1
2998.28917	21970.2
3000.71928	21961.8
3003.14791	21918.1
3005.57506	21911.2
3008.00073	21877.2
3010.42493	21862.1
3012.84764	21814.2
3015.26888	21806.9
3017.68865	21738.3
3020.10694	21696.8
3022.52376	21671.9
3024.9391	21643.7
3027.35298	21589.5
3029.76539	21578.4
3032.17632	21580.4
3034.5858	21546.1
3036.9938	21499.3
3039.40034	21501.5
3041.80542	21432.5
3044.20903	21386.1
3046.61118	21391.5
3049.01187	21337.1
3051.4111	21317.7
3053.80888	21258.7
3056.20519	21220.6
3058.60005	21135.2
3060.99345	21124.8
3063.3854	21078.2
3065.7759	20983.8
3068.16494	20922.1
3070.55254	20912.7
3072.93868	20876.1
3075.32338	20817.9
3077.70662	20769.7
3080.08842	20701.8
3082.46878	20720.6
3084.84769	20675.9
3087.22515	20656.2
3089.60118	20628.9
3091.97576	20606.4
3094.3489	20621.5
3096.72061	20591.5
3099.09087	20597.5
3101.4597	20577.3
3103.82709	20548.5
3106.19305	20493
3108.55757	20511
3110.92066	20429.9
3113.28232	20426.4
3115.64255	20323.3
3118.00134	20312.3
3120.35871	20314.5
3122.71466	20276.7
3125.06917	20264.1
3127.42226	20200.6
3129.77393	20231.5
3132.12417	20193.3
3134.47299	20177.3
3136.82039	20178.3
3139.16636	20184.1
3141.51092	20170.6
3143.85406	20137.4
3146.19579	20132.1
3148.53609	20155.9
3150.87499	20179.9
3153.21246	20160.4
3155.54853	20158.3
3157.88318	20166.3
3160.21642	20152
3162.54826	20124
3164.87868	20073.2
3167.2077	20068.8
3169.5353	20069.8
3171.86151	20046.1
3174.18631	20010.5
3176.5097	20011.7
3178.83169	19977.6
3181.15228	19998.6
3183.47147	19936.9
3185.78926	19973
3188.10565	19974.6
3190.42065	19900.3
3192.73424	19872.1
3195.04645	19929.7
3197.35725	19922.7
3199.66667	19903
3201.97469	19945.5
3204.28132	19916.4
3206.58656	19906.4
3208.8904	19899.6
3211.19287	19914.8
3213.49394	19910.8
3215.79363	19923.7
3218.09193	19960.5
3220.38884	19915.5
3222.68438	19947.3
3224.97853	19933.8
3227.2713	19897.2
3229.56269	19864.6
3231.8527	19850.2
3234.14133	19799.9
3236.42858	19752.5
3238.71446	19750.1
3240.99896	19667.9
3243.28209	19698.9
3245.56384	19667.8
3247.84423	19690
3250.12324	19667.6
3252.40088	19641.9
3254.67715	19628.9
3256.95205	19625.8
3259.22558	19582.9
3261.49775	19549.4
3263.76855	19547.5
3266.03799	19499.8
3268.30606	19506.9
3270.57277	19445.6
3272.83812	19404.9
3275.10211	19401.2
3277.36474	19389.7
3279.62601	19422
3281.88593	19389.2
3284.14448	19409.6
3286.40168	19343.7
3288.65753	19339.8
3290.91202	19309.4
3293.16516	19248.2
3295.41695	19215.1
3297.66738	19117.7
3299.91647	19034.3
3302.16421	18952.6
3304.4106	18871.7
3306.65564	18761.3
3308.89933	18654.1
3311.14169	18493.3
3313.38269	18349.2
3315.62236	18302.1
3317.86068	18110.4
3320.09766	17936.6
3322.3333	17787.8
3324.5676	17821.8
3326.80056	17508.6
3329.03219	17445.6
3331.26248	4.6
3333.49143	0.7
3335.71905	0.3
