Data from AgNP_FTO_APTES_CRN_20uM_R6G_10uM_NaF_0.1M_Addition_RamanShift__12__17-14-28-018.txt Node

Date: Wed Dec 15 17:14:28 GMT 2021
User: TCL
Spectrometer: QEP01345
Trigger mode: 4
Integration Time (sec): 7.000000E0
Scans to average: 10
Electric dark correction enabled: true
Nonlinearity correction enabled: false
Boxcar width: 0
XAxis mode: Raman Shifts
Number of Pixels in Spectrum: 1044
>>>>>Begin Spectral Data<<<<<
46.04893	1.0625
50.45542	-2.1375
54.85868	-0.3375
59.25871	0.2625
63.6555	61.0625
68.04907	65.3625
72.43941	68.4625
76.82654	74.9625
81.21044	74.0625
85.59113	80.1625
89.96862	84.9625
94.34289	83.1625
98.71396	89.6625
103.08183	94.2625
107.4465	95.9625
111.80798	94.2625
116.16626	99.7625
120.52136	100.1625
124.87327	98.2625
129.222	106.4625
133.56755	108.7625
137.90993	118.6625
142.24913	129.0625
146.58517	140.1625
150.91804	162.3625
155.24774	189.6625
159.57429	224.1625
163.89768	289.5625
168.21792	377.5625
172.53501	510.0625
176.84895	707.6625
181.15975	990.1625
185.46741	1385.1625
189.77193	1911.7625
194.07331	2550.1625
198.37157	3290.8625
202.6667	4084.6625
206.9587	4872.2625
211.24758	5640.2625
215.53334	6410.2625
219.81599	7186.0625
224.09553	8077.8625
228.37195	9049.4625
232.64527	10116.4625
236.91549	11257.6625
241.18261	12428.6625
245.44663	13522.6625
249.70755	14525.3625
253.96539	15417.1625
258.22014	16149.1625
262.4718	16727.2625
266.72039	17090.9625
270.96589	17301.9625
275.20832	17349.4625
279.44768	17281.3625
283.68397	17154.6625
287.91719	17022.0625
292.14735	16974.5625
296.37445	16938.8625
300.59849	16938.0625
304.81948	16942.3625
309.03742	16904.8625
313.25231	16828.6625
317.46415	16590.6625
321.67296	16257.1625
325.87872	15951.0625
330.08145	15806.0625
334.28114	15840.0625
338.47781	15923.0625
342.67145	16095.8625
346.86207	16319.3625
351.04966	16535.9625
355.23424	16719.2625
359.4158	16921.8625
363.59435	17060.3625
367.76989	17124.7625
371.94243	17169.1625
376.11196	17222.1625
380.27849	17246.0625
384.44203	17274.1625
388.60257	17407.7625
392.76012	17586.2625
396.91468	17821.3625
401.06626	18102.1625
405.21485	18318.0625
409.36047	18290.7625
413.50311	18149.8625
417.64277	18086.6625
421.77947	18075.0625
425.9132	18221.3625
430.04396	18307.5625
434.17176	18403.1625
438.2966	18471.7625
442.41849	18561.2625
446.53742	18830.5625
450.6534	19076.6625
454.76644	19347.0625
458.87653	19469.2625
462.98368	19501.4625
467.08789	19406.2625
471.18916	19282.1625
475.2875	19129.6625
479.38291	18959.7625
483.4754	18855.1625
487.56496	18689.5625
491.6516	18517.7625
495.73531	18407.6625
499.81612	18382.9625
503.89401	18532.0625
507.96899	18598.9625
512.04106	18650.0625
516.11023	18621.0625
520.1765	18502.0625
524.23987	18400.6625
528.30034	18240.3625
532.35792	18109.8625
536.41261	17949.9625
540.46441	17846.6625
544.51333	17869.6625
548.55936	18058.0625
552.60252	18365.9625
556.64279	18640.9625
560.6802	18802.0625
564.71473	18886.0625
568.7464	19048.2625
572.7752	19455.2625
576.80114	19965.5625
580.82422	20559.4625
584.84444	21092.3625
588.86181	21512.3625
592.87633	21676.9625
596.888	21495.6625
600.89682	21093.0625
604.9028	21060.5625
608.90594	21840.4625
612.90624	22703.7625
616.90371	21704.8625
620.89834	19371.6625
624.89015	18327.9625
628.87913	18199.5625
632.86528	18355.4625
636.84862	18445.4625
640.82913	18272.8625
644.80683	17962.3625
648.78172	17704.5625
652.75379	17677.3625
656.72306	17785.6625
660.68952	17932.7625
664.65319	17941.7625
668.61405	17791.3625
672.57211	17814.5625
676.52738	17842.5625
680.47986	17831.9625
684.42955	17728.4625
688.37646	17706.7625
692.32058	17731.4625
696.26192	17914.0625
700.20048	18082.3625
704.13626	18236.9625
708.06928	18324.8625
711.99952	18273.1625
715.927	18262.2625
719.85171	18205.4625
723.77365	18090.4625
727.69284	17888.4625
731.60928	17682.6625
735.52295	17571.7625
739.43388	17558.5625
743.34206	17593.6625
747.24749	17669.0625
751.15017	17779.2625
755.05012	18036.8625
758.94733	18408.3625
762.8418	19101.8625
766.73354	20191.5625
770.62254	21146.1625
774.50882	21204.7625
778.39237	20432.0625
782.27321	19408.9625
786.15132	18559.2625
790.02671	18022.8625
793.89938	17706.5625
797.76935	17565.2625
801.6366	17517.3625
805.50115	17465.2625
809.36299	17390.8625
813.22213	17328.3625
817.07857	17288.1625
820.93231	17250.4625
824.78336	17230.4625
828.63172	17229.8625
832.47738	17197.7625
836.32036	17181.1625
840.16066	17191.2625
843.99827	17182.7625
847.8332	17162.2625
851.66546	17123.1625
855.49504	17158.8625
859.32195	17163.2625
863.1462	17139.7625
866.96777	17116.6625
870.78668	17111.6625
874.60293	17126.3625
878.41652	17145.0625
882.22745	17191.2625
886.03573	17222.9625
889.84136	17248.0625
893.64433	17192.0625
897.44466	17185.7625
901.24235	17120.3625
905.0374	17102.2625
908.8298	17088.6625
912.61957	17143.2625
916.40671	17278.1625
920.19121	17426.5625
923.97308	17542.8625
927.75233	17502.6625
931.52895	17356.7625
935.30295	17177.5625
939.07433	16927.7625
942.84309	16794.1625
946.60924	16667.5625
950.37278	16640.7625
954.13371	16606.3625
957.89203	16570.4625
961.64774	16582.3625
965.40086	16551.0625
969.15137	16509.3625
972.89929	16474.2625
976.64461	16445.5625
980.38733	16405.9625
984.12747	16434.5625
987.86502	16455.0625
991.59999	16517.4625
995.33237	16581.6625
999.06217	16742.1625
1002.78939	16951.5625
1006.51404	17179.9625
1010.23611	17439.7625
1013.95561	17610.7625
1017.67255	17654.0625
1021.38692	17510.8625
1025.09872	17316.2625
1028.80796	17154.4625
1032.51465	17097.1625
1036.21877	17127.4625
1039.92035	17202.5625
1043.61937	17273.3625
1047.31584	17330.6625
1051.00976	17449.2625
1054.70114	17571.5625
1058.38998	17787.8625
1062.07627	18120.6625
1065.76003	18490.2625
1069.44126	18912.4625
1073.11995	19295.2625
1076.79611	19499.4625
1080.46974	19450.8625
1084.14085	19239.0625
1087.80943	19102.8625
1091.47549	19036.6625
1095.13903	18972.2625
1098.80005	18785.6625
1102.45857	18437.4625
1106.11456	18093.5625
1109.76805	17857.3625
1113.41903	17758.2625
1117.06751	17775.6625
1120.71348	17904.4625
1124.35696	18053.1625
1127.99793	18249.9625
1131.63641	18375.0625
1135.2724	18325.8625
1138.90589	18265.3625
1142.5369	18281.5625
1146.16542	18298.0625
1149.79145	18395.8625
1153.415	18479.4625
1157.03607	18637.2625
1160.65467	18923.5625
1164.27079	19448.5625
1167.88443	20112.8625
1171.49561	20965.4625
1175.10432	21971.7625
1178.71056	23180.0625
1182.31434	24357.6625
1185.91565	25097.7625
1189.51451	25311.9625
1193.11091	25170.6625
1196.70485	24591.7625
1200.29634	23734.5625
1203.88538	23025.5625
1207.47197	22542.9625
1211.05612	22166.4625
1214.63782	21806.7625
1218.21708	21346.0625
1221.79391	20841.1625
1225.36829	20496.9625
1228.94024	20295.8625
1232.50976	20208.3625
1236.07685	20135.7625
1239.6415	20135.5625
1243.20374	20124.3625
1246.76355	20202.1625
1250.32093	20398.9625
1253.8759	20703.6625
1257.42845	21117.0625
1260.97859	21629.6625
1264.52631	22062.9625
1268.07163	22529.0625
1271.61453	22930.1625
1275.15503	23328.1625
1278.69312	23711.0625
1282.22882	24112.4625
1285.76211	24601.6625
1289.29301	25181.7625
1292.82151	25893.8625
1296.34761	26658.1625
1299.87133	27620.2625
1303.39266	28597.4625
1306.9116	29528.9625
1310.42815	30293.7625
1313.94233	30776.3625
1317.45412	30754.3625
1320.96354	30536.9625
1324.47058	30435.2625
1327.97525	30488.4625
1331.47754	30580.3625
1334.97747	30811.4625
1338.47502	31039.8625
1341.97022	31346.1625
1345.46305	31590.7625
1348.95352	31671.3625
1352.44163	31606.6625
1355.92738	31534.9625
1359.41078	31708.0625
1362.89183	31907.9625
1366.37053	31256.3625
1369.84688	29577.7625
1373.32088	27410.4625
1376.79254	25735.9625
1380.26186	24909.1625
1383.72883	24631.4625
1387.19347	24509.4625
1390.65578	24238.9625
1394.11575	23990.6625
1397.57339	23849.3625
1401.0287	23923.4625
1404.48168	23949.5625
1407.93234	23842.0625
1411.38068	23590.7625
1414.82669	23068.9625
1418.27039	22355.1625
1421.71177	21707.6625
1425.15083	21223.7625
1428.58758	20939.5625
1432.02203	21079.6625
1435.45416	21380.8625
1438.88399	21780.9625
1442.31151	22097.9625
1445.73673	22322.4625
1449.15965	22470.9625
1452.58027	22677.9625
1455.9986	22769.1625
1459.41463	22931.7625
1462.82837	23347.1625
1466.23982	23739.7625
1469.64898	24111.1625
1473.05586	24358.6625
1476.46045	24488.7625
1479.86276	24504.4625
1483.26279	24434.4625
1486.66054	24448.4625
1490.05602	24640.5625
1493.44922	24953.9625
1496.84016	25396.0625
1500.22882	26119.4625
1503.61521	27014.0625
1506.99934	27833.7625
1510.38121	28363.1625
1513.76081	28281.9625
1517.13816	27719.5625
1520.51324	26977.6625
1523.88607	26467.1625
1527.25665	26147.0625
1530.62498	26012.9625
1533.99105	25826.6625
1537.35488	25544.8625
1540.71647	25042.4625
1544.07581	24491.7625
1547.4329	23897.7625
1550.78776	23407.6625
1554.14038	23060.8625
1557.49077	22913.3625
1560.83892	22907.4625
1564.18484	23027.5625
1567.52853	23166.8625
1570.86999	23504.8625
1574.20922	23969.0625
1577.54624	24400.0625
1580.88103	24599.8625
1584.2136	24627.6625
1587.54395	24599.6625
1590.87208	24663.1625
1594.19801	25200.3625
1597.52172	25900.1625
1600.84321	26087.3625
1604.16251	25402.4625
1607.47959	24254.2625
1610.79447	22986.2625
1614.10715	21657.4625
1617.41763	20476.4625
1620.7259	19568.4625
1624.03199	19004.4625
1627.33587	18846.1625
1630.63757	19070.6625
1633.93707	19775.2625
1637.23439	21069.9625
1640.52951	22944.5625
1643.82246	25231.4625
1647.11321	27154.5625
1650.40179	27865.8625
1653.68819	26771.9625
1656.97241	24366.0625
1660.25446	21787.8625
1663.53433	19653.7625
1666.81203	18159.5625
1670.08756	17225.2625
1673.36092	16551.3625
1676.63211	16197.0625
1679.90115	15871.7625
1683.16801	15659.2625
1686.43272	15530.1625
1689.69527	15372.8625
1692.95567	15303.6625
1696.2139	15264.2625
1699.46999	15225.9625
1702.72392	15192.0625
1705.97571	15132.4625
1709.22535	15088.0625
1712.47284	15040.9625
1715.71819	15025.1625
1718.96139	15015.7625
1722.20246	14936.3625
1725.44139	14890.1625
1728.67818	14836.8625
1731.91284	14764.4625
1735.14537	14660.7625
1738.37576	14636.1625
1741.60403	14554.7625
1744.83017	14543.1625
1748.05418	14514.4625
1751.27607	14465.9625
1754.49584	14446.2625
1757.71349	14435.6625
1760.92903	14418.9625
1764.14244	14425.9625
1767.35375	14425.9625
1770.56294	14402.6625
1773.77002	14398.7625
1776.97499	14369.2625
1780.17785	14283.6625
1783.37861	14268.1625
1786.57727	14232.2625
1789.77382	14218.9625
1792.96828	14186.5625
1796.16064	14148.9625
1799.3509	14151.5625
1802.53907	14094.5625
1805.72514	14046.4625
1808.90913	14041.9625
1812.09102	14008.5625
1815.27083	13980.2625
1818.44856	13949.3625
1821.6242	13944.5625
1824.79776	13929.0625
1827.96924	13916.8625
1831.13864	13917.9625
1834.30597	13939.5625
1837.47122	13915.1625
1840.6344	13895.9625
1843.7955	13915.8625
1846.95454	13885.9625
1850.11151	13859.0625
1853.26642	13869.1625
1856.41926	13850.8625
1859.57004	13841.3625
1862.71876	13830.0625
1865.86542	13833.0625
1869.01003	13799.0625
1872.15258	13751.6625
1875.29308	13765.6625
1878.43152	13705.8625
1881.56792	13703.7625
1884.70227	13657.7625
1887.83457	13634.0625
1890.96482	13634.4625
1894.09304	13596.4625
1897.21921	13590.7625
1900.34335	13585.6625
1903.46544	13561.1625
1906.58551	13538.4625
1909.70353	13507.9625
1912.81953	13501.0625
1915.93349	13478.5625
1919.04543	13429.7625
1922.15534	13401.4625
1925.26322	13397.3625
1928.36908	13344.5625
1931.47292	13343.4625
1934.57473	13301.8625
1937.67453	13261.8625
1940.77232	13229.9625
1943.86808	13198.1625
1946.96184	13171.7625
1950.05358	13174.4625
1953.14331	13114.8625
1956.23103	13080.6625
1959.31675	13061.2625
1962.40046	13023.6625
1965.48217	12987.4625
1968.56188	12961.7625
1971.63959	12893.8625
1974.7153	12850.1625
1977.78901	12817.9625
1980.86073	12774.7625
1983.93046	12710.7625
1986.99819	12703.3625
1990.06394	12679.8625
1993.1277	12622.7625
1996.18947	12583.4625
1999.24925	12534.5625
2002.30706	12511.5625
2005.36288	12423.2625
2008.41672	12426.1625
2011.46859	12386.3625
2014.51848	12351.4625
2017.56639	12295.9625
2020.61233	12286.0625
2023.6563	12250.8625
2026.6983	12230.2625
2029.73833	12236.3625
2032.7764	12195.6625
2035.8125	12140.1625
2038.84664	12115.6625
2041.87881	12086.5625
2044.90903	12061.2625
2047.93729	12036.6625
2050.96359	12043.0625
2053.98794	12041.6625
2057.01034	12009.2625
2060.03078	11985.8625
2063.04927	11981.2625
2066.06582	11952.2625
2069.08042	11949.2625
2072.09307	11941.4625
2075.10378	11935.0625
2078.11255	11910.3625
2081.11938	11932.9625
2084.12426	11924.7625
2087.12722	11914.3625
2090.12824	11931.4625
2093.12732	11939.1625
2096.12447	11930.4625
2099.11969	11920.4625
2102.11299	11908.0625
2105.10435	11930.1625
2108.09379	11922.8625
2111.08131	11951.0625
2114.0669	11939.6625
2117.05057	11937.2625
2120.03233	11962.8625
2123.01216	11968.3625
2125.99008	11955.1625
2128.96609	11971.3625
2131.94018	12010.0625
2134.91236	12004.5625
2137.88263	12013.5625
2140.851	11992.2625
2143.81746	11995.8625
2146.78201	12009.9625
2149.74466	12001.5625
2152.7054	12001.8625
2155.66425	12002.9625
2158.6212	12010.6625
2161.57625	12013.4625
2164.52941	12001.3625
2167.48067	11998.3625
2170.43004	11977.8625
2173.37752	11972.0625
2176.32311	11940.7625
2179.26681	11943.7625
2182.20863	11942.6625
2185.14856	11963.8625
2188.08661	11937.7625
2191.02278	11965.0625
2193.95707	11927.6625
2196.88948	11927.7625
2199.82001	11892.0625
2202.74867	11892.6625
2205.67545	11881.5625
2208.60037	11888.6625
2211.52341	11836.0625
2214.44458	11821.2625
2217.36388	11809.8625
2220.28132	11771.9625
2223.1969	11730.1625
2226.11061	11746.9625
2229.02246	11726.8625
2231.93245	11721.2625
2234.84058	11690.5625
2237.74686	11656.6625
2240.65128	11659.9625
2243.55385	11636.5625
2246.45456	11629.0625
2249.35343	11586.9625
2252.25044	11579.9625
2255.14561	11549.4625
2258.03893	11537.1625
2260.93041	11525.0625
2263.82004	11510.9625
2266.70783	11474.9625
2269.59378	11440.9625
2272.4779	11408.5625
2275.36017	11387.0625
2278.24061	11344.0625
2281.11922	11327.7625
2283.996	11297.7625
2286.87094	11300.3625
2289.74405	11257.7625
2292.61534	11260.7625
2295.4848	11251.4625
2298.35243	11253.5625
2301.21824	11222.1625
2304.08223	11199.8625
2306.94439	11192.4625
2309.80474	11187.4625
2312.66327	11186.3625
2315.51999	11183.8625
2318.37489	11148.3625
2321.22797	11150.8625
2324.07925	11118.4625
2326.92871	11109.4625
2329.77637	11113.1625
2332.62222	11079.9625
2335.46626	11062.5625
2338.3085	11036.6625
2341.14893	11050.7625
2343.98756	11026.3625
2346.8244	11037.8625
2349.65943	11026.9625
2352.49267	11021.0625
2355.32411	11019.1625
2358.15376	10987.0625
2360.98161	10999.7625
2363.80768	10984.4625
2366.63195	11001.5625
2369.45444	10961.0625
2372.27514	10960.5625
2375.09405	10962.0625
2377.91118	10928.7625
2380.72652	10893.0625
2383.54009	10880.5625
2386.35187	10859.5625
2389.16188	10811.4625
2391.97011	10828.5625
2394.77657	10803.8625
2397.58125	10782.2625
2400.38416	10773.5625
2403.18529	10761.3625
2405.98466	10727.1625
2408.78226	10723.6625
2411.57809	10692.2625
2414.37216	10697.2625
2417.16446	10684.8625
2419.955	10675.8625
2422.74378	10634.7625
2425.5308	10642.9625
2428.31606	10616.9625
2431.09956	10607.4625
2433.88131	10622.4625
2436.6613	10598.5625
2439.43954	10588.3625
2442.21603	10575.6625
2444.99077	10553.6625
2447.76377	10546.8625
2450.53501	10570.3625
2453.30451	10539.7625
2456.07226	10514.6625
2458.83827	10517.3625
2461.60254	10495.0625
2464.36507	10504.5625
2467.12586	10512.7625
2469.88492	10493.8625
2472.64224	10481.0625
2475.39782	10476.9625
2478.15167	10493.3625
2480.90379	10458.9625
2483.65417	10479.7625
2486.40283	10454.0625
2489.14976	10454.0625
2491.89497	10455.0625
2494.63845	10433.7625
2497.3802	10443.2625
2500.12024	10408.2625
2502.85855	10422.3625
2505.59514	10415.0625
2508.33002	10400.5625
2511.06318	10398.9625
2513.79462	10387.2625
2516.52435	10355.5625
2519.25237	10349.6625
2521.97867	10351.6625
2524.70327	10343.4625
2527.42616	10308.2625
2530.14734	10314.0625
2532.86681	10279.1625
2535.58458	10257.7625
2538.30065	10235.6625
2541.01501	10240.5625
2543.72768	10257.2625
2546.43864	10231.6625
2549.14791	10220.6625
2551.85548	10200.3625
2554.56136	10179.0625
2557.26554	10146.5625
2559.96803	10130.4625
2562.66883	10133.7625
2565.36794	10124.7625
2568.06536	10124.0625
2570.7611	10118.6625
2573.45514	10100.6625
2576.14751	10077.7625
2578.83819	10034.6625
2581.52719	10026.2625
2584.21451	10007.2625
2586.90015	10024.3625
2589.58411	9979.1625
2592.2664	9972.6625
2594.94701	9957.5625
2597.62594	9930.2625
2600.30321	9927.0625
2602.9788	9905.9625
2605.65273	9900.6625
2608.32498	9877.7625
2610.99557	9854.2625
2613.66449	9868.9625
2616.33175	9863.7625
2618.99734	9851.5625
2621.66128	9835.3625
2624.32355	9807.0625
2626.98416	9806.9625
2629.64311	9806.8625
2632.30041	9790.1625
2634.95605	9793.4625
2637.61004	9779.6625
2640.26238	9759.3625
2642.91306	9757.9625
2645.56209	9786.8625
2648.20948	9749.9625
2650.85521	9742.3625
2653.4993	9728.0625
2656.14175	9705.2625
2658.78255	9751.1625
2661.42171	9730.9625
2664.05923	9718.8625
2666.6951	9731.2625
2669.32934	9713.5625
2671.96194	9737.2625
2674.59291	9699.4625
2677.22224	9730.4625
2679.84993	9734.4625
2682.476	9730.0625
2685.10043	9716.3625
2687.72324	9708.2625
2690.34441	9721.9625
2692.96396	9727.3625
2695.58188	9717.4625
2698.19818	9712.3625
2700.81285	9715.2625
2703.4259	9715.8625
2706.03733	9780.1625
2708.64714	9781.0625
2711.25533	9744.9625
2713.86191	9759.9625
2716.46687	9760.8625
2719.07021	9748.6625
2721.67194	9741.0625
2724.27206	9705.7625
2726.87057	9728.4625
2729.46747	9705.9625
2732.06276	9727.1625
2734.65644	9715.0625
2737.24852	9715.5625
2739.83899	9710.6625
2742.42786	9704.7625
2745.01513	9664.0625
2747.60079	9668.9625
2750.18486	9672.3625
2752.76733	9679.5625
2755.3482	9657.9625
2757.92747	9648.8625
2760.50515	9627.9625
2763.08123	9627.4625
2765.65573	9614.7625
2768.22863	9598.3625
2770.79994	9596.1625
2773.36967	9591.7625
2775.9378	9560.0625
2778.50435	9563.6625
2781.06932	9540.2625
2783.6327	9526.3625
2786.1945	9522.3625
2788.75471	9522.6625
2791.31335	9477.7625
2793.87041	9461.6625
2796.42589	9447.4625
2798.97979	9431.9625
2801.53212	9434.0625
2804.08288	9409.2625
2806.63206	9384.7625
2809.17967	9372.0625
2811.72571	9328.1625
2814.27018	9336.6625
2816.81308	9339.6625
2819.35442	9313.6625
2821.89419	9288.2625
2824.43239	9269.2625
2826.96904	9245.5625
2829.50412	9264.7625
2832.03763	9247.2625
2834.56959	9240.5625
2837.1	9221.2625
2839.62884	9212.3625
2842.15613	9219.5625
2844.68186	9222.1625
2847.20604	9193.4625
2849.72867	9235.2625
2852.24974	9205.3625
2854.76927	9177.3625
2857.28724	9195.9625
2859.80367	9179.1625
2862.31855	9158.0625
2864.83189	9165.7625
2867.34368	9129.3625
2869.85393	9146.4625
2872.36264	9127.0625
2874.8698	9106.2625
2877.37543	9108.1625
2879.87952	9111.2625
2882.38207	9116.9625
2884.88308	9092.7625
2887.38256	9111.9625
2889.88051	9093.0625
2892.37692	9104.4625
2894.8718	9085.6625
2897.36515	9096.8625
2899.85698	9086.6625
2902.34727	9108.2625
2904.83604	9110.1625
2907.32328	9125.1625
2909.809	9108.6625
2912.29319	9109.7625
2914.77587	9096.9625
2917.25702	9087.6625
2919.73665	9079.9625
2922.21476	9092.1625
2924.69136	9081.4625
2927.16644	9102.0625
2929.64	9068.3625
2932.11205	9075.0625
2934.58258	9046.3625
2937.05161	9066.1625
2939.51912	9068.6625
2941.98513	9031.0625
2944.44962	9003.9625
2946.91261	8985.2625
2949.37409	8995.5625
2951.83407	8985.4625
2954.29254	8972.0625
2956.74951	8982.8625
2959.20498	8959.2625
2961.65895	8953.3625
2964.11142	8957.1625
2966.56239	8946.5625
2969.01186	8919.2625
2971.45984	8879.0625
2973.90632	8894.2625
2976.35131	8854.1625
2978.7948	8844.5625
2981.23681	8821.5625
2983.67732	8805.2625
2986.11635	8808.5625
2988.55388	8779.7625
2990.98993	8752.8625
2993.4245	8759.2625
2995.85758	8729.4625
2998.28917	8706.4625
3000.71928	8710.6625
3003.14791	8667.8625
3005.57506	8678.2625
3008.00073	8655.3625
3010.42493	8641.7625
3012.84764	8625.0625
3015.26888	8596.5625
3017.68865	8575.1625
3020.10694	8599.9625
3022.52376	8575.4625
3024.9391	8564.7625
3027.35298	8549.9625
3029.76539	8536.8625
3032.17632	8528.8625
3034.5858	8513.2625
3036.9938	8511.4625
3039.40034	8528.2625
3041.80542	8487.6625
3044.20903	8476.7625
3046.61118	8460.9625
3049.01187	8457.8625
3051.4111	8434.7625
3053.80888	8435.3625
3056.20519	8426.0625
3058.60005	8417.8625
3060.99345	8396.9625
3063.3854	8364.1625
3065.7759	8340.2625
3068.16494	8330.3625
3070.55254	8306.3625
3072.93868	8312.2625
3075.32338	8286.5625
3077.70662	8257.8625
3080.08842	8227.4625
3082.46878	8217.6625
3084.84769	8222.0625
3087.22515	8220.3625
3089.60118	8213.3625
3091.97576	8209.3625
3094.3489	8203.1625
3096.72061	8193.3625
3099.09087	8193.5625
3101.4597	8181.5625
3103.82709	8168.9625
3106.19305	8164.1625
3108.55757	8160.4625
3110.92066	8136.8625
3113.28232	8121.1625
3115.64255	8108.2625
3118.00134	8099.4625
3120.35871	8088.3625
3122.71466	8072.8625
3125.06917	8047.7625
3127.42226	8038.0625
3129.77393	8066.0625
3132.12417	8060.8625
3134.47299	8054.8625
3136.82039	8073.3625
3139.16636	8052.6625
3141.51092	8037.0625
3143.85406	8061.3625
3146.19579	8048.1625
3148.53609	8060.3625
3150.87499	8065.3625
3153.21246	8075.4625
3155.54853	8058.3625
3157.88318	8067.3625
3160.21642	8078.7625
3162.54826	8068.5625
3164.87868	8050.4625
3167.2077	8040.5625
3169.5353	8050.3625
3171.86151	8035.9625
3174.18631	8017.4625
3176.5097	8009.2625
3178.83169	7985.5625
3181.15228	8018.7625
3183.47147	8009.7625
3185.78926	8022.3625
3188.10565	7978.6625
3190.42065	7980.3625
3192.73424	7973.8625
3195.04645	7977.6625
3197.35725	7988.8625
3199.66667	7979.7625
3201.97469	8011.2625
3204.28132	7965.3625
3206.58656	7998.4625
3208.8904	7999.5625
3211.19287	7988.0625
3213.49394	7976.8625
3215.79363	7975.5625
3218.09193	7983.6625
3220.38884	7992.9625
3222.68438	7982.9625
3224.97853	7955.1625
3227.2713	7966.7625
3229.56269	7935.6625
3231.8527	7948.4625
3234.14133	7907.4625
3236.42858	7916.1625
3238.71446	7901.5625
3240.99896	7875.0625
3243.28209	7870.5625
3245.56384	7856.1625
3247.84423	7867.7625
3250.12324	7860.4625
3252.40088	7849.3625
3254.67715	7841.8625
3256.95205	7827.5625
3259.22558	7831.6625
3261.49775	7820.1625
3263.76855	7813.7625
3266.03799	7797.3625
3268.30606	7766.4625
3270.57277	7759.5625
3272.83812	7744.5625
3275.10211	7726.3625
3277.36474	7725.6625
3279.62601	7709.9625
3281.88593	7697.2625
3284.14448	7723.0625
3286.40168	7699.9625
3288.65753	7680.2625
3290.91202	7676.9625
3293.16516	7644.0625
3295.41695	7657.5625
3297.66738	7600.9625
3299.91647	7565.8625
3302.16421	7515.7625
3304.4106	7476.6625
3306.65564	7441.3625
3308.89933	7399.1625
3311.14169	7338.4625
3313.38269	7291.4625
3315.62236	7240.7625
3317.86068	7187.9625
3320.09766	7110.0625
3322.3333	7059.5625
3324.5676	7066.3625
3326.80056	6967.4625
3329.03219	6916.2625
3331.26248	3.0625
3333.49143	-1.6375
3335.71905	-0.2375
