Data from AgNP_FTO_APTES_CRN_0uM_R6G_10uM_NaF_0.1M_Addition_RamanShift__41__12-17-32-947.txt Node

Date: Wed Dec 15 12:17:32 GMT 2021
User: TCL
Spectrometer: QEP01345
Trigger mode: 4
Integration Time (sec): 7.000000E0
Scans to average: 10
Electric dark correction enabled: true
Nonlinearity correction enabled: false
Boxcar width: 0
XAxis mode: Raman Shifts
Number of Pixels in Spectrum: 1044
>>>>>Begin Spectral Data<<<<<
46.04893	0.9
50.45542	-3.4
54.85868	-1.3
59.25871	-1.2
63.6555	152.2
68.04907	158.2
72.43941	164.8
76.82654	183
81.21044	184.8
85.59113	191.7
89.96862	198.4
94.34289	206.6
98.71396	218.3
103.08183	220.2
107.4465	229
111.80798	228.6
116.16626	234.3
120.52136	246.1
124.87327	249.6
129.222	255.6
133.56755	267.4
137.90993	291.1
142.24913	309.4
146.58517	342.4
150.91804	383.1
155.24774	450.5
159.57429	555.1
163.89768	690.4
168.21792	901
172.53501	1221.9
176.84895	1673.4
181.15975	2336.1
185.46741	3249.5
189.77193	4474.6
194.07331	5975.8
198.37157	7663.4
202.6667	9464.3
206.9587	11229.5
211.24758	13015.4
215.53334	14808.9
219.81599	16705.9
224.09553	18833.6
228.37195	21070.3
232.64527	23667
236.91549	26276.8
241.18261	28884.7
245.44663	31228.8
249.70755	33417.9
253.96539	35308.7
258.22014	36798.1
262.4718	38070
266.72039	38927.8
270.96589	39275.5
275.20832	39191.9
279.44768	38831.3
283.68397	38308.6
287.91719	37946.1
292.14735	37622.7
296.37445	37485.7
300.59849	37573.3
304.81948	37764.9
309.03742	37990.1
313.25231	38094.4
317.46415	37983.8
321.67296	37724.9
325.87872	37484.3
330.08145	37332
334.28114	37449.3
338.47781	37702
342.67145	38086.8
346.86207	38690.1
351.04966	39346.7
355.23424	40047.5
359.4158	40631
363.59435	41094.8
367.76989	41409.1
371.94243	41511.3
376.11196	41692.8
380.27849	41844.5
384.44203	42091.7
388.60257	42452.3
392.76012	42744.1
396.91468	43191.9
401.06626	43771.5
405.21485	44322.8
409.36047	44499.9
413.50311	44381.6
417.64277	44585
421.77947	44928.5
425.9132	45181.7
430.04396	45447.5
434.17176	45706.8
438.2966	46057.4
442.41849	46926
446.53742	48538.5
450.6534	50306.9
454.76644	51140.8
458.87653	51019.1
462.98368	50203.4
467.08789	48976
471.18916	47646.4
475.2875	46173.4
479.38291	45123.4
483.4754	44502.2
487.56496	44155
491.6516	43981
495.73531	44026.4
499.81612	44207.1
503.89401	44755.5
507.96899	44971.9
512.04106	44890.4
516.11023	44576.6
520.1765	44393.2
524.23987	44323.6
528.30034	44316.5
532.35792	44149.6
536.41261	43605.7
540.46441	42877.1
544.51333	42533.8
548.55936	42646.4
552.60252	43415.9
556.64279	44479.4
560.6802	45356.2
564.71473	45622.3
568.7464	45843.4
572.7752	46703.3
576.80114	48040.4
580.82422	50044
584.84444	53027.6
588.86181	56915.3
592.87633	60298
596.888	60499.3
600.89682	56910
604.9028	54678.1
608.90594	56659.3
612.90624	59188.3
616.90371	55973
620.89834	48804.5
624.89015	45399.1
628.87913	44774.8
632.86528	44480.9
636.84862	43950.9
640.82913	42962.9
644.80683	42006.6
648.78172	41722.5
652.75379	41949.1
656.72306	42637.1
660.68952	43183
664.65319	42856.3
668.61405	42187.4
672.57211	42227.4
676.52738	42525.9
680.47986	42461.2
684.42955	42021.9
688.37646	41901.6
692.32058	42332.6
696.26192	43212.3
700.20048	44017.2
704.13626	44406.6
708.06928	44218.5
711.99952	44004.5
715.927	44227.5
719.85171	44703
723.77365	44550.3
727.69284	43769
731.60928	43053.9
735.52295	42830.7
739.43388	42928.8
743.34206	43107.8
747.24749	43385.5
751.15017	43696.7
755.05012	44348.5
758.94733	45219.3
762.8418	46928.8
766.73354	49350.3
770.62254	51387.8
774.50882	51453.7
778.39237	49577
782.27321	47193.4
786.15132	45123.5
790.02671	43977.7
793.89938	43328.2
797.76935	43111
801.6366	43207.5
805.50115	43246.3
809.36299	43015.2
813.22213	42588.5
817.07857	42247.2
820.93231	41938.6
824.78336	41809.3
828.63172	41747.8
832.47738	41755.6
836.32036	41930.6
840.16066	42094.2
843.99827	42273.9
847.8332	42139.9
851.66546	42045.8
855.49504	42090.9
859.32195	42044.3
863.1462	41967.4
866.96777	41806.8
870.78668	41758.3
874.60293	41879.5
878.41652	41959.1
882.22745	42212.6
886.03573	42372.2
889.84136	42338.5
893.64433	42218.9
897.44466	41967.6
901.24235	41876.5
905.0374	41824.5
908.8298	41882
912.61957	41934.2
916.40671	42312.8
920.19121	42802.9
923.97308	43385.9
927.75233	43793.9
931.52895	43530.6
935.30295	42852.4
939.07433	42127.8
942.84309	41685.1
946.60924	41457.3
950.37278	41475.4
954.13371	41440
957.89203	41227
961.64774	41162.3
965.40086	41072.1
969.15137	41042.6
972.89929	40946.3
976.64461	40961.3
980.38733	41130.9
984.12747	41339.6
987.86502	41614
991.59999	42048.4
995.33237	42607.5
999.06217	43700.7
1002.78939	45069.1
1006.51404	46243.7
1010.23611	47187.2
1013.95561	47703.7
1017.67255	47662.1
1021.38692	46922.7
1025.09872	46054.6
1028.80796	45928.2
1032.51465	46788.2
1036.21877	47842.6
1039.92035	48095.8
1043.61937	47709.1
1047.31584	46812.3
1051.00976	45967.9
1054.70114	45487.2
1058.38998	45449.6
1062.07627	45608.5
1065.76003	46037.8
1069.44126	46644.5
1073.11995	47765.5
1076.79611	48766.8
1080.46974	49065.2
1084.14085	49115.9
1087.80943	49159.5
1091.47549	49072.8
1095.13903	48697.4
1098.80005	47814.2
1102.45857	46684.3
1106.11456	46027
1109.76805	45806.8
1113.41903	45807.9
1117.06751	45938.4
1120.71348	46166.4
1124.35696	46369
1127.99793	46644.9
1131.63641	46888.9
1135.2724	46873.8
1138.90589	46817.8
1142.5369	46975.4
1146.16542	47145.2
1149.79145	47396.7
1153.415	47648.1
1157.03607	48175.5
1160.65467	49639.9
1164.27079	52068.5
1167.88443	54878.7
1171.49561	57770.1
1175.10432	61226.5
1178.71056	65873.2
1182.31434	70234.2
1185.91565	71866.1
1189.51451	70433.1
1193.11091	67743.3
1196.70485	65105.4
1200.29634	62866.4
1203.88538	61322.6
1207.47197	60502.6
1211.05612	59797.5
1214.63782	58815.8
1218.21708	57836.6
1221.79391	57159.1
1225.36829	56879.6
1228.94024	56411.6
1232.50976	55367.8
1236.07685	53962.6
1239.6415	53081.7
1243.20374	52839.6
1246.76355	53170.4
1250.32093	54103.9
1253.8759	55363.2
1257.42845	56944.2
1260.97859	58590.3
1264.52631	60298.5
1268.07163	62289.7
1271.61453	64259.4
1275.15503	66244.6
1278.69312	68255.7
1282.22882	70393.2
1285.76211	72780.8
1289.29301	75485.1
1292.82151	78481.5
1296.34761	82175.3
1299.87133	87037.2
1303.39266	92625.5
1306.9116	97713.8
1310.42815	101673.9
1313.94233	103641
1317.45412	102654.4
1320.96354	99628.5
1324.47058	96440.9
1327.97525	94167.8
1331.47754	92694.6
1334.97747	91648
1338.47502	89864
1341.97022	86943.2
1345.46305	83965.4
1348.95352	82536.6
1352.44163	84028.6
1355.92738	88933.1
1359.41078	95646.9
1362.89183	100713
1366.37053	100761.7
1369.84688	93956.5
1373.32088	82927
1376.79254	74544.5
1380.26186	71349.7
1383.72883	71453.2
1387.19347	71292.1
1390.65578	69772.2
1394.11575	68802.7
1397.57339	69261.8
1401.0287	70650.4
1404.48168	72197
1407.93234	72932
1411.38068	72608.2
1414.82669	71437.6
1418.27039	69381.7
1421.71177	66886.8
1425.15083	64582.3
1428.58758	63665.1
1432.02203	64643.9
1435.45416	66858.8
1438.88399	69221.1
1442.31151	70601.2
1445.73673	70882.3
1449.15965	70569.5
1452.58027	69545.1
1455.9986	67933.2
1459.41463	67153.2
1462.82837	67790
1466.23982	69706.5
1469.64898	71892.1
1473.05586	73621.3
1476.46045	74701.7
1479.86276	75049.9
1483.26279	74699.6
1486.66054	74654
1490.05602	75044.2
1493.44922	75238.2
1496.84016	74653.4
1500.22882	73929.6
1503.61521	73690.4
1506.99934	74027.8
1510.38121	74341
1513.76081	74137.8
1517.13816	72970.5
1520.51324	71355.6
1523.88607	70306.2
1527.25665	70477.1
1530.62498	71146.3
1533.99105	71310
1537.35488	70630.1
1540.71647	69348.6
1544.07581	67742.7
1547.4329	66015.1
1550.78776	64445.8
1554.14038	63019.9
1557.49077	62097.8
1560.83892	61353.5
1564.18484	60988.9
1567.52853	61050.3
1570.86999	61557.9
1574.20922	62857.2
1577.54624	64351.4
1580.88103	65516.5
1584.2136	66969.2
1587.54395	69750.2
1590.87208	74550.2
1594.19801	80632.9
1597.52172	86267.8
1600.84321	88005
1604.16251	83887.2
1607.47959	75669
1610.79447	66977.8
1614.10715	59959.3
1617.41763	55171.3
1620.7259	52500.4
1624.03199	51479.9
1627.33587	51990.2
1630.63757	53774.1
1633.93707	57320
1637.23439	63334.1
1640.52951	72449.8
1643.82246	83636.6
1647.11321	91940.3
1650.40179	91769.9
1653.68819	82612.6
1656.97241	69793.2
1660.25446	59068.3
1663.53433	52032.8
1666.81203	48020.3
1670.08756	45587.2
1673.36092	44148.5
1676.63211	43128.1
1679.90115	42464.3
1683.16801	41862.4
1686.43272	41496.8
1689.69527	41267.8
1692.95567	41117.4
1696.2139	40939.2
1699.46999	40832.6
1702.72392	40754.2
1705.97571	40669
1709.22535	40613
1712.47284	40573
1715.71819	40580.9
1718.96139	40490.5
1722.20246	40389.3
1725.44139	40226.8
1728.67818	40065.7
1731.91284	39844.8
1735.14537	39645.9
1738.37576	39491.8
1741.60403	39326.5
1744.83017	39246.3
1748.05418	39190.9
1751.27607	39107.7
1754.49584	39055.3
1757.71349	39068.7
1760.92903	38986.7
1764.14244	38954.1
1767.35375	38997.3
1770.56294	38949.6
1773.77002	38908.3
1776.97499	38911.1
1780.17785	38847
1783.37861	38840.1
1786.57727	38779.7
1789.77382	38697.6
1792.96828	38618.1
1796.16064	38549.7
1799.3509	38514.6
1802.53907	38496.9
1805.72514	38415.2
1808.90913	38371.9
1812.09102	38258.6
1815.27083	38192.2
1818.44856	38151.4
1821.6242	38159.2
1824.79776	38147.3
1827.96924	38150.5
1831.13864	38142.8
1834.30597	38146.2
1837.47122	38141.4
1840.6344	38102.6
1843.7955	38101.1
1846.95454	38106.3
1850.11151	38102.6
1853.26642	38049.4
1856.41926	38037.6
1859.57004	38015.9
1862.71876	37998.9
1865.86542	38005.3
1869.01003	38005.1
1872.15258	38048
1875.29308	38002.4
1878.43152	37886.4
1881.56792	37931.5
1884.70227	37889.8
1887.83457	37906.9
1890.96482	37859.4
1894.09304	37844.3
1897.21921	37839.7
1900.34335	37812.2
1903.46544	37812.6
1906.58551	37767.1
1909.70353	37722.4
1912.81953	37674.1
1915.93349	37581.3
1919.04543	37458.8
1922.15534	37485
1925.26322	37367.6
1928.36908	37300.1
1931.47292	37197.3
1934.57473	37111.8
1937.67453	37021.1
1940.77232	37046.4
1943.86808	36889
1946.96184	36811.3
1950.05358	36743
1953.14331	36669.5
1956.23103	36583.3
1959.31675	36489.2
1962.40046	36448.4
1965.48217	36355
1968.56188	36236.6
1971.63959	36142.4
1974.7153	36037.1
1977.78901	35945
1980.86073	35865.8
1983.93046	35792.5
1986.99819	35620.2
1990.06394	35563.2
1993.1277	35513.7
1996.18947	35402.8
1999.24925	35363.7
2002.30706	35239.6
2005.36288	35182.6
2008.41672	35119.6
2011.46859	34979.9
2014.51848	34908.1
2017.56639	34897.5
2020.61233	34813
2023.6563	34735.5
2026.6983	34701.1
2029.73833	34640.4
2032.7764	34512.9
2035.8125	34498.8
2038.84664	34493.1
2041.87881	34473.8
2044.90903	34396.8
2047.93729	34330
2050.96359	34301.9
2053.98794	34267.7
2057.01034	34240.5
2060.03078	34256.5
2063.04927	34162.9
2066.06582	34185.3
2069.08042	34170.7
2072.09307	34179.8
2075.10378	34134.5
2078.11255	34065.3
2081.11938	34136.4
2084.12426	34148.2
2087.12722	34110.4
2090.12824	34074.5
2093.12732	34104.8
2096.12447	34125.9
2099.11969	34102.9
2102.11299	34106.2
2105.10435	34111
2108.09379	34178
2111.08131	34149.1
2114.0669	34219.4
2117.05057	34181.3
2120.03233	34159.2
2123.01216	34195.1
2125.99008	34219.3
2128.96609	34276.2
2131.94018	34311.5
2134.91236	34351
2137.88263	34373.3
2140.851	34422.6
2143.81746	34480.6
2146.78201	34442
2149.74466	34506
2152.7054	34498.9
2155.66425	34460.1
2158.6212	34519.3
2161.57625	34501.4
2164.52941	34557.8
2167.48067	34546.2
2170.43004	34510.9
2173.37752	34479.3
2176.32311	34450.3
2179.26681	34439.9
2182.20863	34475.4
2185.14856	34571.9
2188.08661	34547
2191.02278	34544.8
2193.95707	34593.7
2196.88948	34563.8
2199.82001	34604.9
2202.74867	34550.5
2205.67545	34522.4
2208.60037	34505.4
2211.52341	34449
2214.44458	34413.7
2217.36388	34356.3
2220.28132	34367.9
2223.1969	34289.8
2226.11061	34280.7
2229.02246	34210.9
2231.93245	34148.5
2234.84058	34101.6
2237.74686	34117.5
2240.65128	34109.4
2243.55385	34034
2246.45456	33993.8
2249.35343	33909.1
2252.25044	33855
2255.14561	33781.4
2258.03893	33783.1
2260.93041	33774.2
2263.82004	33634.8
2266.70783	33563.7
2269.59378	33521.9
2272.4779	33471.8
2275.36017	33411.5
2278.24061	33327.7
2281.11922	33296.5
2283.996	33258.5
2286.87094	33214.8
2289.74405	33152.5
2292.61534	33106.9
2295.4848	33151.7
2298.35243	33150.8
2301.21824	33179.4
2304.08223	33194
2306.94439	33251.9
2309.80474	33236.7
2312.66327	33194.5
2315.51999	33185.9
2318.37489	33184.3
2321.22797	33136.8
2324.07925	33139.3
2326.92871	33092.9
2329.77637	33085.2
2332.62222	33046.8
2335.46626	33049.8
2338.3085	33048.1
2341.14893	33077.8
2343.98756	33099
2346.8244	32994.1
2349.65943	32999.1
2352.49267	32926.2
2355.32411	32916.3
2358.15376	32859.5
2360.98161	32817.7
2363.80768	32847.9
2366.63195	32790.9
2369.45444	32800.5
2372.27514	32738.5
2375.09405	32691.8
2377.91118	32634.3
2380.72652	32593.3
2383.54009	32503.1
2386.35187	32502
2389.16188	32494
2391.97011	32517.2
2394.77657	32486.4
2397.58125	32404.1
2400.38416	32334.3
2403.18529	32271.7
2405.98466	32202.2
2408.78226	32191.2
2411.57809	32192.6
2414.37216	32123.7
2417.16446	32104.4
2419.955	32030.1
2422.74378	32041.7
2425.5308	31981.2
2428.31606	31987.7
2431.09956	31923.7
2433.88131	31886.2
2436.6613	31873.2
2439.43954	31921.4
2442.21603	31897
2444.99077	31851.2
2447.76377	31847.4
2450.53501	31815.8
2453.30451	31781.1
2456.07226	31839.3
2458.83827	31863.2
2461.60254	31789.3
2464.36507	31849
2467.12586	31846.3
2469.88492	31816.8
2472.64224	31848.7
2475.39782	31864.3
2478.15167	31869
2480.90379	31830.8
2483.65417	31832.9
2486.40283	31863.7
2489.14976	31883.4
2491.89497	31794.7
2494.63845	31860.5
2497.3802	31868.9
2500.12024	31912.9
2502.85855	31869.4
2505.59514	31869.8
2508.33002	31877.8
2511.06318	31756.4
2513.79462	31760.6
2516.52435	31727.2
2519.25237	31706.5
2521.97867	31662
2524.70327	31712.7
2527.42616	31689.8
2530.14734	31708.6
2532.86681	31721.5
2535.58458	31621
2538.30065	31572.8
2541.01501	31560.9
2543.72768	31557
2546.43864	31573.2
2549.14791	31541.1
2551.85548	31533.4
2554.56136	31472.6
2557.26554	31448.1
2559.96803	31431.1
2562.66883	31386.7
2565.36794	31408.1
2568.06536	31411.4
2570.7611	31399.6
2573.45514	31372
2576.14751	31383.1
2578.83819	31344.1
2581.52719	31327.2
2584.21451	31286.9
2586.90015	31277.1
2589.58411	31224.3
2592.2664	31252.2
2594.94701	31161.5
2597.62594	31136.4
2600.30321	31137.8
2602.9788	31099
2605.65273	31071.3
2608.32498	31087
2610.99557	31060.1
2613.66449	31093.3
2616.33175	31071
2618.99734	31041.4
2621.66128	31016.8
2624.32355	31009.7
2626.98416	30985.2
2629.64311	30953.7
2632.30041	30946.7
2634.95605	30904.6
2637.61004	30875.2
2640.26238	30862.6
2642.91306	30886.4
2645.56209	30804.9
2648.20948	30811.9
2650.85521	30767.8
2653.4993	30844.7
2656.14175	30831
2658.78255	30887.2
2661.42171	30887.3
2664.05923	30946.2
2666.6951	30925.8
2669.32934	30985.7
2671.96194	30994.6
2674.59291	30914.7
2677.22224	30922.5
2679.84993	30916.3
2682.476	30936.7
2685.10043	30883.9
2687.72324	30867.3
2690.34441	30870.7
2692.96396	30906.4
2695.58188	30958.4
2698.19818	30859.9
2700.81285	30918
2703.4259	30920.7
2706.03733	30956.7
2708.64714	30915.4
2711.25533	30928.6
2713.86191	30965.8
2716.46687	31024.9
2719.07021	30989.7
2721.67194	31009.7
2724.27206	30964.6
2726.87057	31020.7
2729.46747	31014.5
2732.06276	31096.6
2734.65644	31114.4
2737.24852	31081.5
2739.83899	31100.6
2742.42786	31069.8
2745.01513	31044
2747.60079	31047.1
2750.18486	30985.9
2752.76733	31021.6
2755.3482	31069.1
2757.92747	31092.8
2760.50515	31029.1
2763.08123	31013.3
2765.65573	31020.1
2768.22863	31019.4
2770.79994	31010.1
2773.36967	30971
2775.9378	30919.5
2778.50435	30952.7
2781.06932	30881.6
2783.6327	30875.4
2786.1945	30867.1
2788.75471	30833.2
2791.31335	30780.6
2793.87041	30813.6
2796.42589	30654.8
2798.97979	30692.2
2801.53212	30602.4
2804.08288	30562.3
2806.63206	30490
2809.17967	30446.9
2811.72571	30419.3
2814.27018	30402
2816.81308	30337.4
2819.35442	30271.9
2821.89419	30245.1
2824.43239	30249.2
2826.96904	30263.4
2829.50412	30243.7
2832.03763	30231
2834.56959	30238
2837.1	30199.1
2839.62884	30148.2
2842.15613	30115.7
2844.68186	30120.9
2847.20604	30073.8
2849.72867	30095
2852.24974	30042.6
2854.76927	30074.4
2857.28724	30055.9
2859.80367	30023
2862.31855	29969.9
2864.83189	29970.8
2867.34368	30001.9
2869.85393	30008.6
2872.36264	29945.8
2874.8698	29922.1
2877.37543	29989.8
2879.87952	30021.3
2882.38207	29995
2884.88308	30026.8
2887.38256	30034.5
2889.88051	30105
2892.37692	30150.6
2894.8718	30156
2897.36515	30162
2899.85698	30135.8
2902.34727	30235.5
2904.83604	30229.7
2907.32328	30252.5
2909.809	30255.3
2912.29319	30270.4
2914.77587	30203.6
2917.25702	30221.3
2919.73665	30213.3
2922.21476	30224.4
2924.69136	30159.3
2927.16644	30162.8
2929.64	30097.2
2932.11205	30091.7
2934.58258	30008.6
2937.05161	30082
2939.51912	30104.7
2941.98513	30114.9
2944.44962	29993.7
2946.91261	29881.9
2949.37409	29961.2
2951.83407	29953.9
2954.29254	29906.2
2956.74951	29930.8
2959.20498	29930.4
2961.65895	29859.2
2964.11142	29830.8
2966.56239	29737
2969.01186	29741
2971.45984	29600
2973.90632	29551.9
2976.35131	29520
2978.7948	29511.4
2981.23681	29414.5
2983.67732	29370.5
2986.11635	29246.9
2988.55388	29190.1
2990.98993	29168.1
2993.4245	29153.2
2995.85758	29075.8
2998.28917	28980.1
3000.71928	28978.9
3003.14791	28828.4
3005.57506	28819.7
3008.00073	28785.6
3010.42493	28785.1
3012.84764	28737.8
3015.26888	28792.3
3017.68865	28691.4
3020.10694	28693.6
3022.52376	28595.6
3024.9391	28574
3027.35298	28530.4
3029.76539	28483.6
3032.17632	28458.8
3034.5858	28441.1
3036.9938	28381.5
3039.40034	28355.1
3041.80542	28331.1
3044.20903	28253.2
3046.61118	28252.3
3049.01187	28195.2
3051.4111	28191.9
3053.80888	28108.5
3056.20519	28076.1
3058.60005	28034.5
3060.99345	28000.3
3063.3854	27920.2
3065.7759	27866.2
3068.16494	27860.7
3070.55254	27732.1
3072.93868	27707.5
3075.32338	27602.9
3077.70662	27540.7
3080.08842	27508.3
3082.46878	27500.8
3084.84769	27471
3087.22515	27478.1
3089.60118	27513.4
3091.97576	27505.1
3094.3489	27441.3
3096.72061	27385.3
3099.09087	27413.1
3101.4597	27338.8
3103.82709	27349.7
3106.19305	27284.6
3108.55757	27258.8
3110.92066	27238.5
3113.28232	27167.1
3115.64255	27080.6
3118.00134	27034
3120.35871	26993.9
3122.71466	26981
3125.06917	26876.6
3127.42226	26862.2
3129.77393	26904
3132.12417	26864.4
3134.47299	26878.9
3136.82039	26868
3139.16636	26910.6
3141.51092	26887.5
3143.85406	26887
3146.19579	26864.4
3148.53609	26803.5
3150.87499	26769.4
3153.21246	26798.1
3155.54853	26836
3157.88318	26814.7
3160.21642	26786.1
3162.54826	26776
3164.87868	26710.8
3167.2077	26686.5
3169.5353	26710.6
3171.86151	26688.3
3174.18631	26666.7
3176.5097	26621
3178.83169	26663.4
3181.15228	26588.9
3183.47147	26527.8
3185.78926	26565.7
3188.10565	26535.9
3190.42065	26521.2
3192.73424	26522
3195.04645	26528.4
3197.35725	26515.8
3199.66667	26489.1
3201.97469	26499.9
3204.28132	26453.6
3206.58656	26449.6
3208.8904	26462.1
3211.19287	26422.3
3213.49394	26417.8
3215.79363	26445.8
3218.09193	26453.2
3220.38884	26390.5
3222.68438	26458.1
3224.97853	26407.8
3227.2713	26418.3
3229.56269	26367.8
3231.8527	26317
3234.14133	26270.3
3236.42858	26210.4
3238.71446	26207.8
3240.99896	26170.5
3243.28209	26161.5
3245.56384	26148.2
3247.84423	26191.6
3250.12324	26158.4
3252.40088	26138.5
3254.67715	26132
3256.95205	26010.2
3259.22558	26018.8
3261.49775	25986
3263.76855	25946.1
3266.03799	25856.4
3268.30606	25823.5
3270.57277	25844.4
3272.83812	25769.8
3275.10211	25746.6
3277.36474	25708.1
3279.62601	25802.6
3281.88593	25725.2
3284.14448	25784.4
3286.40168	25732.3
3288.65753	25702.7
3290.91202	25702.3
3293.16516	25619.6
3295.41695	25562.3
3297.66738	25429.9
3299.91647	25281.5
3302.16421	25119.7
3304.4106	25066.5
3306.65564	24944.8
3308.89933	24783.6
3311.14169	24633.5
3313.38269	24449.2
3315.62236	24325.6
3317.86068	24113.9
3320.09766	23866.7
3322.3333	23667.3
3324.5676	23654.2
3326.80056	23312.7
3329.03219	23141.6
3331.26248	5.5
3333.49143	0.5
3335.71905	-1.4
