Data from AgNP_FTO_APTES_UA_10uM_CRN_2uM_R6G_10uM_NaF_0.1M_Addition_RamanShift__0__13-56-50-574.txt Node

Date: Thu Feb 10 13:56:50 GMT 2022
User: TCL
Spectrometer: QEP01345
Trigger mode: 4
Integration Time (sec): 7.000000E0
Scans to average: 10
Electric dark correction enabled: true
Nonlinearity correction enabled: false
Boxcar width: 0
XAxis mode: Raman Shifts
Number of Pixels in Spectrum: 1044
>>>>>Begin Spectral Data<<<<<
46.04893	-0.3375
50.45542	-0.3375
54.85868	-1.7375
59.25871	-0.9375
63.6555	66.5625
68.04907	70.1625
72.43941	72.2625
76.82654	69.3625
81.21044	79.7625
85.59113	77.3625
89.96862	82.9625
94.34289	88.9625
98.71396	86.1625
103.08183	92.9625
107.4465	95.0625
111.80798	96.7625
116.16626	102.9625
120.52136	103.2625
124.87327	107.6625
129.222	109.9625
133.56755	120.8625
137.90993	125.2625
142.24913	137.2625
146.58517	157.6625
150.91804	181.2625
155.24774	215.3625
159.57429	271.7625
163.89768	345.9625
168.21792	467.9625
172.53501	621.6625
176.84895	873.5625
181.15975	1231.9625
185.46741	1727.1625
189.77193	2401.2625
194.07331	3225.6625
198.37157	4154.5625
202.6667	5157.0625
206.9587	6132.4625
211.24758	7132.7625
215.53334	8100.1625
219.81599	9172.1625
224.09553	10309.9625
228.37195	11613.9625
232.64527	13003.5625
236.91549	14451.6625
241.18261	15843.5625
245.44663	17119.7625
249.70755	18281.7625
253.96539	19198.8625
258.22014	20042.0625
262.4718	20722.4625
266.72039	21157.5625
270.96589	21414.8625
275.20832	21414.6625
279.44768	21253.2625
283.68397	21009.4625
287.91719	20801.9625
292.14735	20738.2625
296.37445	20828.9625
300.59849	21036.6625
304.81948	21364.0625
309.03742	21528.0625
313.25231	21469.0625
317.46415	20935.2625
321.67296	20177.4625
325.87872	19528.1625
330.08145	19219.0625
334.28114	19191.1625
338.47781	19355.9625
342.67145	19631.4625
346.86207	20041.0625
351.04966	20555.7625
355.23424	21135.4625
359.4158	21544.0625
363.59435	21816.6625
367.76989	21980.4625
371.94243	22016.1625
376.11196	22018.6625
380.27849	22006.2625
384.44203	22014.8625
388.60257	22057.4625
392.76012	22217.9625
396.91468	22535.7625
401.06626	22893.4625
405.21485	23174.2625
409.36047	22968.4625
413.50311	22389.8625
417.64277	21874.6625
421.77947	21682.4625
425.9132	21670.4625
430.04396	21710.2625
434.17176	21791.6625
438.2966	21916.9625
442.41849	22172.1625
446.53742	22547.0625
450.6534	23025.7625
454.76644	23327.0625
458.87653	23452.1625
462.98368	23394.7625
467.08789	23312.4625
471.18916	23087.9625
475.2875	22758.3625
479.38291	22506.0625
483.4754	22293.8625
487.56496	22108.9625
491.6516	21911.7625
495.73531	21684.8625
499.81612	21606.9625
503.89401	21720.1625
507.96899	21804.4625
512.04106	21936.1625
516.11023	21976.1625
520.1765	21919.0625
524.23987	21775.3625
528.30034	21615.4625
532.35792	21372.4625
536.41261	21134.8625
540.46441	20856.3625
544.51333	20800.8625
548.55936	20995.0625
552.60252	21396.9625
556.64279	21889.3625
560.6802	22132.4625
564.71473	22261.2625
568.7464	22695.6625
572.7752	23284.4625
576.80114	23629.9625
580.82422	24039.3625
584.84444	24497.4625
588.86181	24864.9625
592.87633	25118.2625
596.888	25057.8625
600.89682	24793.9625
604.9028	25527.4625
608.90594	28339.6625
612.90624	31901.4625
616.90371	30300.9625
620.89834	24556.3625
624.89015	21861.1625
628.87913	21429.5625
632.86528	21677.5625
636.84862	21861.6625
640.82913	21582.7625
644.80683	20996.4625
648.78172	20563.5625
652.75379	20551.3625
656.72306	20860.1625
660.68952	21338.7625
664.65319	21237.6625
668.61405	20709.9625
672.57211	20552.4625
676.52738	20643.4625
680.47986	20610.7625
684.42955	20466.3625
688.37646	20356.7625
692.32058	20422.2625
696.26192	20678.1625
700.20048	20947.4625
704.13626	21114.7625
708.06928	21149.7625
711.99952	21047.4625
715.927	20975.1625
719.85171	20983.2625
723.77365	20888.1625
727.69284	20633.5625
731.60928	20355.5625
735.52295	20248.1625
739.43388	20235.1625
743.34206	20264.3625
747.24749	20365.6625
751.15017	20510.1625
755.05012	20839.0625
758.94733	21437.2625
762.8418	22773.0625
766.73354	24885.4625
770.62254	26939.2625
774.50882	27525.6625
778.39237	26426.4625
782.27321	24383.4625
786.15132	22490.8625
790.02671	21320.6625
793.89938	20680.4625
797.76935	20413.2625
801.6366	20245.9625
805.50115	20169.8625
809.36299	20057.9625
813.22213	19944.5625
817.07857	19848.6625
820.93231	19842.0625
824.78336	19827.5625
828.63172	19787.0625
832.47738	19747.4625
836.32036	19742.8625
840.16066	19694.4625
843.99827	19694.5625
847.8332	19684.8625
851.66546	19684.8625
855.49504	19717.4625
859.32195	19749.5625
863.1462	19693.5625
866.96777	19642.8625
870.78668	19600.5625
874.60293	19617.7625
878.41652	19665.2625
882.22745	19713.8625
886.03573	19801.6625
889.84136	19790.3625
893.64433	19790.6625
897.44466	19721.3625
901.24235	19709.4625
905.0374	19674.3625
908.8298	19640.4625
912.61957	19574.4625
916.40671	19697.9625
920.19121	19852.9625
923.97308	20067.0625
927.75233	20141.5625
931.52895	20053.7625
935.30295	19823.1625
939.07433	19472.3625
942.84309	19162.0625
946.60924	19001.9625
950.37278	18898.2625
954.13371	18825.9625
957.89203	18826.7625
961.64774	18821.9625
965.40086	18789.4625
969.15137	18795.5625
972.89929	18729.1625
976.64461	18706.6625
980.38733	18728.2625
984.12747	18736.0625
987.86502	18795.7625
991.59999	18922.9625
995.33237	19055.2625
999.06217	19259.0625
1002.78939	19522.0625
1006.51404	19834.8625
1010.23611	20170.4625
1013.95561	20388.9625
1017.67255	20401.7625
1021.38692	20309.0625
1025.09872	20023.0625
1028.80796	19814.8625
1032.51465	19738.5625
1036.21877	19854.8625
1039.92035	19887.4625
1043.61937	19979.6625
1047.31584	20023.6625
1051.00976	20015.7625
1054.70114	20089.0625
1058.38998	20169.6625
1062.07627	20294.8625
1065.76003	20512.1625
1069.44126	20769.2625
1073.11995	21115.3625
1076.79611	21460.8625
1080.46974	21658.5625
1084.14085	21910.0625
1087.80943	22213.3625
1091.47549	22413.9625
1095.13903	22354.1625
1098.80005	21996.8625
1102.45857	21540.4625
1106.11456	21161.0625
1109.76805	20939.6625
1113.41903	20940.2625
1117.06751	21119.5625
1120.71348	21462.8625
1124.35696	21802.9625
1127.99793	22237.9625
1131.63641	22377.6625
1135.2724	22045.2625
1138.90589	21735.2625
1142.5369	21538.0625
1146.16542	21462.1625
1149.79145	21449.7625
1153.415	21569.4625
1157.03607	21741.6625
1160.65467	22136.1625
1164.27079	22915.6625
1167.88443	23956.2625
1171.49561	25284.1625
1175.10432	27057.9625
1178.71056	29309.7625
1182.31434	31433.1625
1185.91565	32502.7625
1189.51451	32560.6625
1193.11091	31863.5625
1196.70485	30594.2625
1200.29634	29249.6625
1203.88538	28087.5625
1207.47197	27132.1625
1211.05612	26396.8625
1214.63782	25680.5625
1218.21708	25130.8625
1221.79391	24544.5625
1225.36829	24223.9625
1228.94024	24025.3625
1232.50976	23984.3625
1236.07685	23838.7625
1239.6415	23763.5625
1243.20374	23767.2625
1246.76355	23856.1625
1250.32093	24086.8625
1253.8759	24466.3625
1257.42845	25050.7625
1260.97859	25813.2625
1264.52631	26539.2625
1268.07163	27242.1625
1271.61453	27861.7625
1275.15503	28470.1625
1278.69312	28952.5625
1282.22882	29405.2625
1285.76211	30100.0625
1289.29301	30945.0625
1292.82151	32026.8625
1296.34761	33190.3625
1299.87133	34697.4625
1303.39266	36498.7625
1306.9116	38580.2625
1310.42815	40629.6625
1313.94233	41776.4625
1317.45412	41320.1625
1320.96354	40152.2625
1324.47058	39077.3625
1327.97525	38208.5625
1331.47754	37676.1625
1334.97747	37422.4625
1338.47502	37485.9625
1341.97022	37773.6625
1345.46305	38295.1625
1348.95352	39010.7625
1352.44163	39823.3625
1355.92738	40846.4625
1359.41078	42719.4625
1362.89183	44634.6625
1366.37053	43753.0625
1369.84688	39511.9625
1373.32088	34718.6625
1376.79254	31672.0625
1380.26186	30251.2625
1383.72883	29600.2625
1387.19347	29182.7625
1390.65578	28679.1625
1394.11575	28230.5625
1397.57339	28055.3625
1401.0287	27990.7625
1404.48168	28053.3625
1407.93234	27975.9625
1411.38068	27696.8625
1414.82669	27218.0625
1418.27039	26617.7625
1421.71177	25971.9625
1425.15083	25455.3625
1428.58758	25186.5625
1432.02203	25347.5625
1435.45416	25767.1625
1438.88399	26230.4625
1442.31151	26515.9625
1445.73673	26738.2625
1449.15965	26962.5625
1452.58027	27097.1625
1455.9986	27149.5625
1459.41463	27337.7625
1462.82837	27717.2625
1466.23982	28097.5625
1469.64898	28508.6625
1473.05586	28836.6625
1476.46045	29010.5625
1479.86276	29053.3625
1483.26279	29203.2625
1486.66054	29402.0625
1490.05602	29915.1625
1493.44922	30821.3625
1496.84016	32083.6625
1500.22882	34039.6625
1503.61521	36632.9625
1506.99934	39313.9625
1510.38121	41310.2625
1513.76081	41398.5625
1517.13816	39383.4625
1520.51324	36479.0625
1523.88607	33882.4625
1527.25665	32279.2625
1530.62498	31426.9625
1533.99105	30832.9625
1537.35488	30283.9625
1540.71647	29576.8625
1544.07581	28877.6625
1547.4329	28235.6625
1550.78776	27746.3625
1554.14038	27524.4625
1557.49077	27411.0625
1560.83892	27571.9625
1564.18484	27850.5625
1567.52853	28273.0625
1570.86999	28694.4625
1574.20922	29077.0625
1577.54624	29226.6625
1580.88103	28769.5625
1584.2136	28125.3625
1587.54395	27947.1625
1590.87208	28465.4625
1594.19801	29617.1625
1597.52172	30946.9625
1600.84321	31344.1625
1604.16251	30490.1625
1607.47959	28980.5625
1610.79447	27327.6625
1614.10715	25446.8625
1617.41763	23811.2625
1620.7259	22602.8625
1624.03199	21951.7625
1627.33587	21825.7625
1630.63757	22289.9625
1633.93707	23320.1625
1637.23439	25223.3625
1640.52951	28094.1625
1643.82246	31643.6625
1647.11321	34994.4625
1650.40179	36524.9625
1653.68819	34921.8625
1656.97241	30810.6625
1660.25446	26366.8625
1663.53433	23119.5625
1666.81203	20962.2625
1670.08756	19660.8625
1673.36092	18893.7625
1676.63211	18372.6625
1679.90115	18014.3625
1683.16801	17681.1625
1686.43272	17549.2625
1689.69527	17368.7625
1692.95567	17246.2625
1696.2139	17199.5625
1699.46999	17161.9625
1702.72392	17079.4625
1705.97571	17028.3625
1709.22535	17008.6625
1712.47284	17002.7625
1715.71819	16957.8625
1718.96139	16930.9625
1722.20246	16870.0625
1725.44139	16788.8625
1728.67818	16654.5625
1731.91284	16550.0625
1735.14537	16466.4625
1738.37576	16401.9625
1741.60403	16324.0625
1744.83017	16262.1625
1748.05418	16214.9625
1751.27607	16237.8625
1754.49584	16194.5625
1757.71349	16177.1625
1760.92903	16135.3625
1764.14244	16128.7625
1767.35375	16111.5625
1770.56294	16034.3625
1773.77002	16043.7625
1776.97499	15981.4625
1780.17785	15921.7625
1783.37861	15903.3625
1786.57727	15866.8625
1789.77382	15838.6625
1792.96828	15821.5625
1796.16064	15773.9625
1799.3509	15766.7625
1802.53907	15760.2625
1805.72514	15643.7625
1808.90913	15627.3625
1812.09102	15577.2625
1815.27083	15556.1625
1818.44856	15514.8625
1821.6242	15506.4625
1824.79776	15489.2625
1827.96924	15459.9625
1831.13864	15465.9625
1834.30597	15475.2625
1837.47122	15469.6625
1840.6344	15468.7625
1843.7955	15457.2625
1846.95454	15415.7625
1850.11151	15415.4625
1853.26642	15369.2625
1856.41926	15397.4625
1859.57004	15398.4625
1862.71876	15337.2625
1865.86542	15300.4625
1869.01003	15312.2625
1872.15258	15301.8625
1875.29308	15271.2625
1878.43152	15228.5625
1881.56792	15197.5625
1884.70227	15192.0625
1887.83457	15195.3625
1890.96482	15137.8625
1894.09304	15126.4625
1897.21921	15094.9625
1900.34335	15077.3625
1903.46544	15044.1625
1906.58551	15015.6625
1909.70353	15021.3625
1912.81953	14996.3625
1915.93349	14972.6625
1919.04543	14928.7625
1922.15534	14892.7625
1925.26322	14858.9625
1928.36908	14824.9625
1931.47292	14809.3625
1934.57473	14748.5625
1937.67453	14734.0625
1940.77232	14677.9625
1943.86808	14664.1625
1946.96184	14617.4625
1950.05358	14572.1625
1953.14331	14542.9625
1956.23103	14492.7625
1959.31675	14440.4625
1962.40046	14418.3625
1965.48217	14390.5625
1968.56188	14321.6625
1971.63959	14286.7625
1974.7153	14234.6625
1977.78901	14207.4625
1980.86073	14175.1625
1983.93046	14115.5625
1986.99819	14074.9625
1990.06394	14035.5625
1993.1277	13974.7625
1996.18947	13950.9625
1999.24925	13890.9625
2002.30706	13833.1625
2005.36288	13784.6625
2008.41672	13756.8625
2011.46859	13738.8625
2014.51848	13711.5625
2017.56639	13637.6625
2020.61233	13611.1625
2023.6563	13589.8625
2026.6983	13564.3625
2029.73833	13500.7625
2032.7764	13437.1625
2035.8125	13421.0625
2038.84664	13401.2625
2041.87881	13384.7625
2044.90903	13334.0625
2047.93729	13340.0625
2050.96359	13320.8625
2053.98794	13274.2625
2057.01034	13268.9625
2060.03078	13271.4625
2063.04927	13258.2625
2066.06582	13261.3625
2069.08042	13238.0625
2072.09307	13234.8625
2075.10378	13217.6625
2078.11255	13213.1625
2081.11938	13196.3625
2084.12426	13192.2625
2087.12722	13222.3625
2090.12824	13201.2625
2093.12732	13162.8625
2096.12447	13163.6625
2099.11969	13151.0625
2102.11299	13202.4625
2105.10435	13203.9625
2108.09379	13182.1625
2111.08131	13210.9625
2114.0669	13226.1625
2117.05057	13229.1625
2120.03233	13237.6625
2123.01216	13240.6625
2125.99008	13238.0625
2128.96609	13249.6625
2131.94018	13306.5625
2134.91236	13288.9625
2137.88263	13275.4625
2140.851	13303.0625
2143.81746	13313.2625
2146.78201	13272.7625
2149.74466	13278.5625
2152.7054	13280.3625
2155.66425	13266.8625
2158.6212	13234.3625
2161.57625	13243.2625
2164.52941	13242.2625
2167.48067	13230.5625
2170.43004	13209.9625
2173.37752	13235.0625
2176.32311	13242.8625
2179.26681	13239.8625
2182.20863	13252.0625
2185.14856	13247.2625
2188.08661	13206.2625
2191.02278	13219.2625
2193.95707	13231.4625
2196.88948	13194.1625
2199.82001	13177.1625
2202.74867	13173.1625
2205.67545	13152.9625
2208.60037	13101.8625
2211.52341	13127.1625
2214.44458	13113.2625
2217.36388	13056.1625
2220.28132	13021.2625
2223.1969	12992.6625
2226.11061	12973.0625
2229.02246	12954.6625
2231.93245	12953.3625
2234.84058	12920.6625
2237.74686	12887.1625
2240.65128	12878.7625
2243.55385	12854.2625
2246.45456	12842.1625
2249.35343	12845.0625
2252.25044	12818.7625
2255.14561	12812.0625
2258.03893	12809.5625
2260.93041	12761.6625
2263.82004	12720.6625
2266.70783	12719.2625
2269.59378	12683.3625
2272.4779	12635.8625
2275.36017	12624.3625
2278.24061	12576.2625
2281.11922	12567.2625
2283.996	12548.6625
2286.87094	12546.9625
2289.74405	12524.6625
2292.61534	12472.6625
2295.4848	12488.5625
2298.35243	12447.4625
2301.21824	12469.7625
2304.08223	12428.0625
2306.94439	12434.7625
2309.80474	12434.5625
2312.66327	12428.0625
2315.51999	12434.1625
2318.37489	12412.8625
2321.22797	12378.0625
2324.07925	12384.2625
2326.92871	12346.5625
2329.77637	12353.3625
2332.62222	12354.9625
2335.46626	12296.4625
2338.3085	12295.9625
2341.14893	12238.9625
2343.98756	12306.7625
2346.8244	12299.9625
2349.65943	12288.9625
2352.49267	12278.5625
2355.32411	12298.8625
2358.15376	12288.7625
2360.98161	12308.7625
2363.80768	12299.4625
2366.63195	12258.3625
2369.45444	12256.3625
2372.27514	12272.8625
2375.09405	12238.7625
2377.91118	12202.7625
2380.72652	12169.5625
2383.54009	12173.2625
2386.35187	12119.8625
2389.16188	12075.3625
2391.97011	12049.8625
2394.77657	12008.1625
2397.58125	11981.9625
2400.38416	11975.7625
2403.18529	11953.5625
2405.98466	11927.8625
2408.78226	11899.5625
2411.57809	11907.7625
2414.37216	11896.9625
2417.16446	11892.2625
2419.955	11859.8625
2422.74378	11876.2625
2425.5308	11860.8625
2428.31606	11884.0625
2431.09956	11862.7625
2433.88131	11837.9625
2436.6613	11861.2625
2439.43954	11825.1625
2442.21603	11815.0625
2444.99077	11797.4625
2447.76377	11799.1625
2450.53501	11784.3625
2453.30451	11814.5625
2456.07226	11792.4625
2458.83827	11792.8625
2461.60254	11802.5625
2464.36507	11794.3625
2467.12586	11748.5625
2469.88492	11757.7625
2472.64224	11753.2625
2475.39782	11775.9625
2478.15167	11783.4625
2480.90379	11791.1625
2483.65417	11772.3625
2486.40283	11785.8625
2489.14976	11773.7625
2491.89497	11737.3625
2494.63845	11760.5625
2497.3802	11728.1625
2500.12024	11740.1625
2502.85855	11708.0625
2505.59514	11683.2625
2508.33002	11650.8625
2511.06318	11657.9625
2513.79462	11638.1625
2516.52435	11616.3625
2519.25237	11596.5625
2521.97867	11566.1625
2524.70327	11608.0625
2527.42616	11579.3625
2530.14734	11570.6625
2532.86681	11558.2625
2535.58458	11577.6625
2538.30065	11559.3625
2541.01501	11542.3625
2543.72768	11514.0625
2546.43864	11485.3625
2549.14791	11476.7625
2551.85548	11480.0625
2554.56136	11491.0625
2557.26554	11447.6625
2559.96803	11434.7625
2562.66883	11396.6625
2565.36794	11360.3625
2568.06536	11351.9625
2570.7611	11365.6625
2573.45514	11340.3625
2576.14751	11339.2625
2578.83819	11306.7625
2581.52719	11293.0625
2584.21451	11267.8625
2586.90015	11277.6625
2589.58411	11236.8625
2592.2664	11221.5625
2594.94701	11217.5625
2597.62594	11228.1625
2600.30321	11190.0625
2602.9788	11187.0625
2605.65273	11167.2625
2608.32498	11166.2625
2610.99557	11172.5625
2613.66449	11179.8625
2616.33175	11168.8625
2618.99734	11135.3625
2621.66128	11111.9625
2624.32355	11113.4625
2626.98416	11076.9625
2629.64311	11057.3625
2632.30041	11072.8625
2634.95605	11046.8625
2637.61004	11046.7625
2640.26238	11013.7625
2642.91306	11008.6625
2645.56209	11000.8625
2648.20948	11014.5625
2650.85521	11013.9625
2653.4993	11001.0625
2656.14175	11024.3625
2658.78255	11005.9625
2661.42171	11022.1625
2664.05923	11043.5625
2666.6951	11027.6625
2669.32934	11060.2625
2671.96194	11024.5625
2674.59291	11034.0625
2677.22224	11001.4625
2679.84993	11030.7625
2682.476	10998.8625
2685.10043	11009.4625
2687.72324	10997.2625
2690.34441	11019.6625
2692.96396	11021.8625
2695.58188	10982.8625
2698.19818	10957.6625
2700.81285	10994.4625
2703.4259	10996.0625
2706.03733	11000.7625
2708.64714	11018.0625
2711.25533	11028.4625
2713.86191	11033.1625
2716.46687	11047.9625
2719.07021	11022.9625
2721.67194	11053.9625
2724.27206	11055.9625
2726.87057	11023.1625
2729.46747	11057.4625
2732.06276	11063.7625
2734.65644	11062.6625
2737.24852	11034.5625
2739.83899	10992.7625
2742.42786	11004.9625
2745.01513	10969.5625
2747.60079	10971.0625
2750.18486	10970.7625
2752.76733	10950.2625
2755.3482	10928.3625
2757.92747	10929.1625
2760.50515	10905.6625
2763.08123	10881.6625
2765.65573	10859.5625
2768.22863	10892.3625
2770.79994	10866.1625
2773.36967	10845.5625
2775.9378	10825.2625
2778.50435	10836.2625
2781.06932	10800.7625
2783.6327	10837.9625
2786.1945	10818.9625
2788.75471	10809.3625
2791.31335	10789.5625
2793.87041	10778.1625
2796.42589	10749.7625
2798.97979	10739.5625
2801.53212	10721.5625
2804.08288	10730.6625
2806.63206	10699.2625
2809.17967	10687.9625
2811.72571	10652.8625
2814.27018	10621.5625
2816.81308	10603.6625
2819.35442	10587.4625
2821.89419	10586.3625
2824.43239	10581.0625
2826.96904	10569.9625
2829.50412	10541.0625
2832.03763	10506.1625
2834.56959	10511.9625
2837.1	10531.2625
2839.62884	10525.9625
2842.15613	10547.2625
2844.68186	10546.2625
2847.20604	10566.5625
2849.72867	10535.1625
2852.24974	10558.8625
2854.76927	10566.3625
2857.28724	10521.3625
2859.80367	10520.7625
2862.31855	10507.2625
2864.83189	10510.0625
2867.34368	10470.9625
2869.85393	10503.6625
2872.36264	10472.8625
2874.8698	10471.2625
2877.37543	10458.7625
2879.87952	10445.9625
2882.38207	10432.6625
2884.88308	10425.2625
2887.38256	10429.6625
2889.88051	10406.0625
2892.37692	10406.2625
2894.8718	10397.2625
2897.36515	10413.3625
2899.85698	10391.0625
2902.34727	10452.4625
2904.83604	10444.5625
2907.32328	10476.7625
2909.809	10457.0625
2912.29319	10477.7625
2914.77587	10470.8625
2917.25702	10453.6625
2919.73665	10447.1625
2922.21476	10444.0625
2924.69136	10426.3625
2927.16644	10405.5625
2929.64	10398.6625
2932.11205	10383.8625
2934.58258	10362.6625
2937.05161	10347.9625
2939.51912	10353.1625
2941.98513	10338.6625
2944.44962	10297.3625
2946.91261	10288.6625
2949.37409	10276.7625
2951.83407	10274.3625
2954.29254	10264.8625
2956.74951	10255.7625
2959.20498	10253.3625
2961.65895	10246.4625
2964.11142	10245.5625
2966.56239	10223.1625
2969.01186	10237.8625
2971.45984	10190.6625
2973.90632	10170.5625
2976.35131	10181.2625
2978.7948	10155.1625
2981.23681	10164.5625
2983.67732	10129.3625
2986.11635	10118.3625
2988.55388	10116.1625
2990.98993	10087.3625
2993.4245	10068.0625
2995.85758	10026.5625
2998.28917	10006.2625
3000.71928	10009.8625
3003.14791	9948.2625
3005.57506	9924.8625
3008.00073	9919.4625
3010.42493	9800.0625
3012.84764	9889.4625
3015.26888	9872.0625
3017.68865	9825.3625
3020.10694	9827.5625
3022.52376	9839.2625
3024.9391	9793.7625
3027.35298	9792.6625
3029.76539	9784.5625
3032.17632	9772.5625
3034.5858	9753.1625
3036.9938	9753.2625
3039.40034	9728.4625
3041.80542	9724.7625
3044.20903	9732.4625
3046.61118	9684.3625
3049.01187	9653.3625
3051.4111	9676.1625
3053.80888	9649.0625
3056.20519	9627.4625
3058.60005	9601.2625
3060.99345	9612.8625
3063.3854	9564.1625
3065.7759	9568.6625
3068.16494	9522.3625
3070.55254	9499.6625
3072.93868	9524.6625
3075.32338	9459.0625
3077.70662	9462.9625
3080.08842	9429.2625
3082.46878	9386.0625
3084.84769	9388.1625
3087.22515	9408.3625
3089.60118	9388.5625
3091.97576	9372.4625
3094.3489	9394.4625
3096.72061	9365.9625
3099.09087	9386.4625
3101.4597	9368.2625
3103.82709	9353.1625
3106.19305	9373.9625
3108.55757	9351.2625
3110.92066	9344.3625
3113.28232	9304.0625
3115.64255	9325.1625
3118.00134	9278.2625
3120.35871	9246.5625
3122.71466	9257.7625
3125.06917	9242.1625
3127.42226	9215.1625
3129.77393	9215.0625
3132.12417	9178.1625
3134.47299	9182.3625
3136.82039	9180.3625
3139.16636	9177.4625
3141.51092	9194.0625
3143.85406	9156.4625
3146.19579	9139.3625
3148.53609	9161.3625
3150.87499	9166.8625
3153.21246	9182.5625
3155.54853	9197.6625
3157.88318	9201.2625
3160.21642	9189.6625
3162.54826	9195.2625
3164.87868	9212.8625
3167.2077	9216.5625
3169.5353	9225.4625
3171.86151	9217.2625
3174.18631	9194.3625
3176.5097	9201.5625
3178.83169	9160.2625
3181.15228	9159.8625
3183.47147	9161.8625
3185.78926	9133.9625
3188.10565	9109.6625
3190.42065	9126.6625
3192.73424	9080.2625
3195.04645	9069.4625
3197.35725	9076.0625
3199.66667	9054.7625
3201.97469	9064.1625
3204.28132	9073.2625
3206.58656	9100.5625
3208.8904	9098.6625
3211.19287	9094.9625
3213.49394	9083.0625
3215.79363	9120.5625
3218.09193	9113.5625
3220.38884	9102.3625
3222.68438	9109.5625
3224.97853	9073.7625
3227.2713	9101.3625
3229.56269	9081.9625
3231.8527	9063.7625
3234.14133	9048.1625
3236.42858	9041.4625
3238.71446	9016.4625
3240.99896	8986.5625
3243.28209	8986.8625
3245.56384	8939.2625
3247.84423	8952.9625
3250.12324	8938.2625
3252.40088	8927.5625
3254.67715	8916.7625
3256.95205	8935.4625
3259.22558	8944.0625
3261.49775	8903.4625
3263.76855	8898.2625
3266.03799	8894.2625
3268.30606	8853.3625
3270.57277	8840.1625
3272.83812	8822.9625
3275.10211	8820.2625
3277.36474	8803.4625
3279.62601	8786.2625
3281.88593	8788.0625
3284.14448	8820.0625
3286.40168	8814.6625
3288.65753	8806.3625
3290.91202	8777.6625
3293.16516	8767.4625
3295.41695	8740.9625
3297.66738	8713.3625
3299.91647	8638.8625
3302.16421	8604.1625
3304.4106	8567.1625
3306.65564	8492.2625
3308.89933	8435.1625
3311.14169	8364.2625
3313.38269	8303.6625
3315.62236	8248.6625
3317.86068	8179.6625
3320.09766	8103.4625
3322.3333	8085.3625
3324.5676	8040.6625
3326.80056	7915.3625
3329.03219	7865.2625
3331.26248	3.6625
3333.49143	-0.2375
3335.71905	0.0625
