Data from AgNP_FTO_APTES_UA_10uM_CRN_50uM_R6G_10uM_NaF_0.1M_Addition_RamanShift__24__17-10-30-813.txt Node

Date: Thu Feb 10 17:10:30 GMT 2022
User: TCL
Spectrometer: QEP01345
Trigger mode: 4
Integration Time (sec): 7.000000E0
Scans to average: 10
Electric dark correction enabled: true
Nonlinearity correction enabled: false
Boxcar width: 0
XAxis mode: Raman Shifts
Number of Pixels in Spectrum: 1044
>>>>>Begin Spectral Data<<<<<
46.04893	0.5625
50.45542	-0.4375
54.85868	-1.5375
59.25871	-1.5375
63.6555	68.0625
68.04907	67.4625
72.43941	72.8625
76.82654	73.0625
81.21044	80.4625
85.59113	79.3625
89.96862	83.8625
94.34289	89.9625
98.71396	87.6625
103.08183	89.2625
107.4465	98.0625
111.80798	96.3625
116.16626	99.8625
120.52136	99.9625
124.87327	109.0625
129.222	114.1625
133.56755	117.6625
137.90993	127.5625
142.24913	134.2625
146.58517	153.3625
150.91804	177.4625
155.24774	213.2625
159.57429	259.0625
163.89768	327.5625
168.21792	436.4625
172.53501	590.4625
176.84895	814.7625
181.15975	1157.9625
185.46741	1619.6625
189.77193	2243.0625
194.07331	2999.0625
198.37157	3880.5625
202.6667	4782.0625
206.9587	5693.5625
211.24758	6564.7625
215.53334	7477.2625
219.81599	8358.4625
224.09553	9414.9625
228.37195	10541.6625
232.64527	11763.4625
236.91549	13147.6625
241.18261	14503.1625
245.44663	15786.4625
249.70755	16955.4625
253.96539	17950.6625
258.22014	18890.6625
262.4718	19645.9625
266.72039	20175.4625
270.96589	20522.5625
275.20832	20639.6625
279.44768	20590.7625
283.68397	20462.5625
287.91719	20314.4625
292.14735	20263.0625
296.37445	20255.0625
300.59849	20323.8625
304.81948	20353.8625
309.03742	20209.5625
313.25231	19928.4625
317.46415	19451.2625
321.67296	18881.0625
325.87872	18510.1625
330.08145	18328.0625
334.28114	18371.9625
338.47781	18549.5625
342.67145	18824.1625
346.86207	19118.4625
351.04966	19504.9625
355.23424	19898.7625
359.4158	20300.7625
363.59435	20546.3625
367.76989	20747.0625
371.94243	20835.0625
376.11196	20986.1625
380.27849	21126.6625
384.44203	21204.0625
388.60257	21354.7625
392.76012	21442.9625
396.91468	21654.3625
401.06626	21967.0625
405.21485	22244.0625
409.36047	22165.1625
413.50311	21915.4625
417.64277	21670.6625
421.77947	21594.1625
425.9132	21630.0625
430.04396	21792.3625
434.17176	21902.7625
438.2966	22154.9625
442.41849	22471.1625
446.53742	22932.3625
450.6534	23466.4625
454.76644	23893.5625
458.87653	24121.0625
462.98368	24082.8625
467.08789	23911.8625
471.18916	23648.5625
475.2875	23482.7625
479.38291	23354.5625
483.4754	23194.9625
487.56496	22913.8625
491.6516	22576.1625
495.73531	22330.6625
499.81612	22176.4625
503.89401	22257.0625
507.96899	22307.6625
512.04106	22291.0625
516.11023	22346.8625
520.1765	22218.4625
524.23987	22109.9625
528.30034	21961.7625
532.35792	21828.6625
536.41261	21651.1625
540.46441	21533.2625
544.51333	21588.6625
548.55936	21776.8625
552.60252	22112.2625
556.64279	22457.7625
560.6802	22681.5625
564.71473	22716.2625
568.7464	22941.4625
572.7752	23270.5625
576.80114	23427.8625
580.82422	23486.2625
584.84444	23578.0625
588.86181	23690.1625
592.87633	23912.3625
596.888	24130.7625
600.89682	24434.8625
604.9028	25245.9625
608.90594	27285.0625
612.90624	29523.8625
616.90371	28144.1625
620.89834	24279.0625
624.89015	22692.4625
628.87913	22472.8625
632.86528	22488.4625
636.84862	22414.5625
640.82913	22174.1625
644.80683	21749.0625
648.78172	21406.5625
652.75379	21338.9625
656.72306	21567.7625
660.68952	21916.4625
664.65319	21856.1625
668.61405	21611.8625
672.57211	21484.0625
676.52738	21498.1625
680.47986	21505.4625
684.42955	21488.3625
688.37646	21482.7625
692.32058	21543.0625
696.26192	21699.8625
700.20048	21861.3625
704.13626	21984.5625
708.06928	21919.0625
711.99952	21800.6625
715.927	21758.7625
719.85171	21769.3625
723.77365	21691.7625
727.69284	21618.2625
731.60928	21481.3625
735.52295	21444.3625
739.43388	21453.6625
743.34206	21513.8625
747.24749	21653.0625
751.15017	21776.9625
755.05012	22029.8625
758.94733	22560.5625
762.8418	23459.6625
766.73354	24915.0625
770.62254	26237.2625
774.50882	26647.3625
778.39237	25700.6625
782.27321	24025.9625
786.15132	22671.5625
790.02671	21959.3625
793.89938	21546.7625
797.76935	21402.2625
801.6366	21387.6625
805.50115	21309.1625
809.36299	21231.1625
813.22213	21143.3625
817.07857	21169.2625
820.93231	21145.6625
824.78336	21166.5625
828.63172	21145.9625
832.47738	21167.9625
836.32036	21178.0625
840.16066	21222.4625
843.99827	21281.5625
847.8332	21251.2625
851.66546	21188.7625
855.49504	21148.2625
859.32195	21167.5625
863.1462	21119.6625
866.96777	21077.6625
870.78668	20978.1625
874.60293	21037.0625
878.41652	21018.5625
882.22745	21075.7625
886.03573	21102.7625
889.84136	21082.2625
893.64433	20984.4625
897.44466	20917.3625
901.24235	20900.4625
905.0374	20837.9625
908.8298	20858.1625
912.61957	20933.3625
916.40671	21057.1625
920.19121	21253.8625
923.97308	21351.5625
927.75233	21381.9625
931.52895	21351.0625
935.30295	21208.4625
939.07433	20953.0625
942.84309	20735.4625
946.60924	20610.0625
950.37278	20566.5625
954.13371	20468.0625
957.89203	20394.3625
961.64774	20312.7625
965.40086	20258.3625
969.15137	20215.5625
972.89929	20107.8625
976.64461	20087.6625
980.38733	20077.3625
984.12747	20187.4625
987.86502	20325.5625
991.59999	20522.9625
995.33237	20818.3625
999.06217	21290.4625
1002.78939	21797.5625
1006.51404	22077.2625
1010.23611	22204.3625
1013.95561	22345.5625
1017.67255	22419.7625
1021.38692	22274.4625
1025.09872	22168.6625
1028.80796	22373.2625
1032.51465	22917.8625
1036.21877	23365.5625
1039.92035	23441.6625
1043.61937	23142.1625
1047.31584	22625.5625
1051.00976	22176.1625
1054.70114	21948.9625
1058.38998	21932.7625
1062.07627	22001.7625
1065.76003	22050.7625
1069.44126	22119.6625
1073.11995	22212.4625
1076.79611	22333.7625
1080.46974	22396.2625
1084.14085	22553.1625
1087.80943	22778.3625
1091.47549	22846.2625
1095.13903	22773.6625
1098.80005	22535.0625
1102.45857	22239.1625
1106.11456	22104.7625
1109.76805	22104.4625
1113.41903	22233.2625
1117.06751	22440.1625
1120.71348	22693.2625
1124.35696	22856.0625
1127.99793	23068.1625
1131.63641	23124.6625
1135.2724	22946.3625
1138.90589	22684.4625
1142.5369	22559.9625
1146.16542	22478.6625
1149.79145	22490.5625
1153.415	22590.6625
1157.03607	22854.2625
1160.65467	23231.4625
1164.27079	23836.0625
1167.88443	24704.2625
1171.49561	25864.1625
1175.10432	27377.5625
1178.71056	29252.8625
1182.31434	31020.3625
1185.91565	32016.4625
1189.51451	32031.9625
1193.11091	31290.5625
1196.70485	30126.8625
1200.29634	29003.0625
1203.88538	28124.7625
1207.47197	27435.8625
1211.05612	26792.2625
1214.63782	26330.0625
1218.21708	26091.5625
1221.79391	26017.5625
1225.36829	25912.6625
1228.94024	25779.1625
1232.50976	25503.4625
1236.07685	25314.0625
1239.6415	25299.7625
1243.20374	25412.0625
1246.76355	25540.8625
1250.32093	25847.5625
1253.8759	26367.7625
1257.42845	26986.0625
1260.97859	27412.0625
1264.52631	27844.4625
1268.07163	28310.2625
1271.61453	28858.6625
1275.15503	29484.9625
1278.69312	30118.1625
1282.22882	30653.2625
1285.76211	31100.8625
1289.29301	31620.0625
1292.82151	32371.6625
1296.34761	33375.1625
1299.87133	34708.6625
1303.39266	36432.7625
1306.9116	38422.8625
1310.42815	40487.0625
1313.94233	41780.1625
1317.45412	41786.2625
1320.96354	41113.3625
1324.47058	40216.2625
1327.97525	39365.4625
1331.47754	38883.2625
1334.97747	38783.4625
1338.47502	39182.9625
1341.97022	39621.6625
1345.46305	39650.4625
1348.95352	39275.5625
1352.44163	38853.7625
1355.92738	39059.8625
1359.41078	40364.0625
1362.89183	41722.6625
1366.37053	40830.5625
1369.84688	37587.3625
1373.32088	34164.7625
1376.79254	31908.7625
1380.26186	30922.1625
1383.72883	30620.2625
1387.19347	30493.8625
1390.65578	30349.1625
1394.11575	30387.0625
1397.57339	30615.3625
1401.0287	31146.6625
1404.48168	31709.1625
1407.93234	32095.9625
1411.38068	32103.9625
1414.82669	31641.1625
1418.27039	30716.1625
1421.71177	29666.8625
1425.15083	28728.8625
1428.58758	28161.7625
1432.02203	28069.8625
1435.45416	28282.6625
1438.88399	28647.7625
1442.31151	29053.9625
1445.73673	29398.0625
1449.15965	29772.5625
1452.58027	30048.1625
1455.9986	30149.7625
1459.41463	30413.5625
1462.82837	30795.2625
1466.23982	31279.8625
1469.64898	31798.5625
1473.05586	32068.0625
1476.46045	32146.1625
1479.86276	32130.7625
1483.26279	32035.5625
1486.66054	32013.8625
1490.05602	32130.8625
1493.44922	32313.2625
1496.84016	32591.5625
1500.22882	32959.5625
1503.61521	33792.7625
1506.99934	34895.0625
1510.38121	36095.6625
1513.76081	36628.6625
1517.13816	36070.7625
1520.51324	34680.7625
1523.88607	33252.6625
1527.25665	32277.8625
1530.62498	31768.1625
1533.99105	31488.0625
1537.35488	31324.5625
1540.71647	31150.6625
1544.07581	30906.0625
1547.4329	30592.4625
1550.78776	30244.1625
1554.14038	30024.1625
1557.49077	29973.4625
1560.83892	29978.9625
1564.18484	30011.1625
1567.52853	30027.4625
1570.86999	30055.3625
1574.20922	30142.9625
1577.54624	30308.1625
1580.88103	30228.7625
1584.2136	30233.6625
1587.54395	30665.7625
1590.87208	31704.9625
1594.19801	33318.7625
1597.52172	34858.8625
1600.84321	35470.1625
1604.16251	34502.2625
1607.47959	32507.7625
1610.79447	30461.0625
1614.10715	28391.1625
1617.41763	26765.7625
1620.7259	25612.8625
1624.03199	24979.0625
1627.33587	24917.9625
1630.63757	25423.2625
1633.93707	26456.0625
1637.23439	27984.3625
1640.52951	29981.1625
1643.82246	32109.3625
1647.11321	33842.6625
1650.40179	34249.9625
1653.68819	32838.4625
1656.97241	29876.4625
1660.25446	26788.0625
1663.53433	24397.2625
1666.81203	22844.1625
1670.08756	21806.6625
1673.36092	21176.3625
1676.63211	20672.9625
1679.90115	20365.2625
1683.16801	20173.9625
1686.43272	19987.8625
1689.69527	19889.0625
1692.95567	19781.3625
1696.2139	19668.2625
1699.46999	19651.0625
1702.72392	19643.0625
1705.97571	19561.7625
1709.22535	19538.7625
1712.47284	19493.7625
1715.71819	19464.1625
1718.96139	19440.9625
1722.20246	19419.6625
1725.44139	19375.5625
1728.67818	19246.2625
1731.91284	19150.4625
1735.14537	19096.8625
1738.37576	19039.3625
1741.60403	19009.2625
1744.83017	18958.2625
1748.05418	18958.5625
1751.27607	18912.8625
1754.49584	18862.6625
1757.71349	18930.8625
1760.92903	18884.5625
1764.14244	18843.9625
1767.35375	18876.8625
1770.56294	18825.8625
1773.77002	18822.5625
1776.97499	18786.4625
1780.17785	18774.8625
1783.37861	18703.9625
1786.57727	18700.4625
1789.77382	18668.2625
1792.96828	18647.4625
1796.16064	18629.9625
1799.3509	18590.8625
1802.53907	18552.1625
1805.72514	18544.2625
1808.90913	18493.5625
1812.09102	18454.9625
1815.27083	18412.5625
1818.44856	18392.5625
1821.6242	18421.8625
1824.79776	18353.8625
1827.96924	18374.7625
1831.13864	18325.6625
1834.30597	18381.9625
1837.47122	18369.1625
1840.6344	18333.9625
1843.7955	18319.3625
1846.95454	18302.1625
1850.11151	18338.3625
1853.26642	18313.6625
1856.41926	18333.4625
1859.57004	18329.6625
1862.71876	18320.9625
1865.86542	18289.4625
1869.01003	18302.8625
1872.15258	18316.1625
1875.29308	18307.0625
1878.43152	18292.5625
1881.56792	18268.4625
1884.70227	18277.2625
1887.83457	18242.1625
1890.96482	18251.8625
1894.09304	18200.7625
1897.21921	18198.9625
1900.34335	18173.6625
1903.46544	18185.8625
1906.58551	18187.8625
1909.70353	18140.5625
1912.81953	18134.9625
1915.93349	18142.4625
1919.04543	18111.4625
1922.15534	18070.6625
1925.26322	18038.2625
1928.36908	18025.5625
1931.47292	17998.2625
1934.57473	17983.7625
1937.67453	17939.8625
1940.77232	17914.0625
1943.86808	17802.4625
1946.96184	17742.8625
1950.05358	17688.8625
1953.14331	17641.9625
1956.23103	17638.0625
1959.31675	17583.8625
1962.40046	17516.1625
1965.48217	17452.8625
1968.56188	17381.0625
1971.63959	17356.8625
1974.7153	17304.9625
1977.78901	17246.7625
1980.86073	17194.2625
1983.93046	17176.1625
1986.99819	17124.8625
1990.06394	17079.2625
1993.1277	17046.8625
1996.18947	17001.3625
1999.24925	16950.4625
2002.30706	16878.6625
2005.36288	16876.5625
2008.41672	16810.7625
2011.46859	16728.2625
2014.51848	16737.0625
2017.56639	16736.2625
2020.61233	16666.6625
2023.6563	16601.1625
2026.6983	16583.4625
2029.73833	16548.6625
2032.7764	16509.3625
2035.8125	16484.6625
2038.84664	16447.7625
2041.87881	16437.0625
2044.90903	16362.0625
2047.93729	16357.1625
2050.96359	16353.2625
2053.98794	16306.1625
2057.01034	16340.4625
2060.03078	16313.3625
2063.04927	16309.6625
2066.06582	16313.6625
2069.08042	16318.7625
2072.09307	16287.6625
2075.10378	16244.8625
2078.11255	16248.2625
2081.11938	16253.6625
2084.12426	16244.4625
2087.12722	16211.5625
2090.12824	16183.2625
2093.12732	16199.1625
2096.12447	16192.4625
2099.11969	16185.2625
2102.11299	16179.9625
2105.10435	16207.9625
2108.09379	16215.7625
2111.08131	16233.7625
2114.0669	16236.8625
2117.05057	16250.2625
2120.03233	16248.7625
2123.01216	16299.3625
2125.99008	16270.5625
2128.96609	16306.2625
2131.94018	16308.2625
2134.91236	16350.4625
2137.88263	16356.0625
2140.851	16374.9625
2143.81746	16401.8625
2146.78201	16359.3625
2149.74466	16401.3625
2152.7054	16389.4625
2155.66425	16393.2625
2158.6212	16406.9625
2161.57625	16404.9625
2164.52941	16370.2625
2167.48067	16361.5625
2170.43004	16398.0625
2173.37752	16343.5625
2176.32311	16376.5625
2179.26681	16358.5625
2182.20863	16319.7625
2185.14856	16337.1625
2188.08661	16330.1625
2191.02278	16398.3625
2193.95707	16397.2625
2196.88948	16383.9625
2199.82001	16399.5625
2202.74867	16359.9625
2205.67545	16379.8625
2208.60037	16333.0625
2211.52341	16337.8625
2214.44458	16338.2625
2217.36388	16299.5625
2220.28132	16297.2625
2223.1969	16245.5625
2226.11061	16221.1625
2229.02246	16176.4625
2231.93245	16110.9625
2234.84058	16111.8625
2237.74686	16092.4625
2240.65128	16103.5625
2243.55385	16068.7625
2246.45456	16043.2625
2249.35343	15996.4625
2252.25044	15993.6625
2255.14561	15976.5625
2258.03893	15954.7625
2260.93041	15929.3625
2263.82004	15901.4625
2266.70783	15853.6625
2269.59378	15802.7625
2272.4779	15771.9625
2275.36017	15705.3625
2278.24061	15691.4625
2281.11922	15645.0625
2283.996	15659.3625
2286.87094	15663.1625
2289.74405	15621.9625
2292.61534	15649.9625
2295.4848	15608.1625
2298.35243	15595.4625
2301.21824	15585.7625
2304.08223	15623.1625
2306.94439	15631.7625
2309.80474	15635.5625
2312.66327	15640.8625
2315.51999	15649.2625
2318.37489	15653.9625
2321.22797	15636.2625
2324.07925	15606.8625
2326.92871	15572.8625
2329.77637	15570.8625
2332.62222	15551.0625
2335.46626	15526.0625
2338.3085	15520.2625
2341.14893	15542.1625
2343.98756	15557.4625
2346.8244	15567.3625
2349.65943	15544.1625
2352.49267	15528.0625
2355.32411	15571.1625
2358.15376	15520.6625
2360.98161	15526.0625
2363.80768	15499.5625
2366.63195	15491.7625
2369.45444	15465.2625
2372.27514	15428.0625
2375.09405	15420.4625
2377.91118	15365.2625
2380.72652	15329.1625
2383.54009	15276.0625
2386.35187	15272.1625
2389.16188	15183.9625
2391.97011	15212.6625
2394.77657	15150.2625
2397.58125	15140.7625
2400.38416	15130.0625
2403.18529	15119.5625
2405.98466	15114.8625
2408.78226	15078.0625
2411.57809	15045.8625
2414.37216	15021.9625
2417.16446	15030.3625
2419.955	14974.9625
2422.74378	14996.3625
2425.5308	14997.0625
2428.31606	14989.1625
2431.09956	14982.6625
2433.88131	14938.3625
2436.6613	14961.0625
2439.43954	14950.0625
2442.21603	14908.4625
2444.99077	14912.2625
2447.76377	14887.6625
2450.53501	14893.5625
2453.30451	14901.7625
2456.07226	14865.0625
2458.83827	14843.4625
2461.60254	14890.8625
2464.36507	14851.8625
2467.12586	14855.6625
2469.88492	14821.7625
2472.64224	14828.9625
2475.39782	14845.9625
2478.15167	14881.2625
2480.90379	14858.5625
2483.65417	14918.2625
2486.40283	14877.0625
2489.14976	14876.5625
2491.89497	14885.3625
2494.63845	14904.2625
2497.3802	14929.0625
2500.12024	14906.8625
2502.85855	14873.4625
2505.59514	14862.4625
2508.33002	14836.8625
2511.06318	14863.1625
2513.79462	14843.3625
2516.52435	14808.2625
2519.25237	14798.2625
2521.97867	14773.2625
2524.70327	14808.6625
2527.42616	14776.8625
2530.14734	14764.3625
2532.86681	14734.0625
2535.58458	14745.3625
2538.30065	14752.4625
2541.01501	14740.6625
2543.72768	14744.3625
2546.43864	14722.9625
2549.14791	14725.7625
2551.85548	14692.9625
2554.56136	14651.8625
2557.26554	14618.9625
2559.96803	14604.3625
2562.66883	14582.5625
2565.36794	14581.2625
2568.06536	14561.7625
2570.7611	14539.2625
2573.45514	14565.7625
2576.14751	14507.3625
2578.83819	14513.1625
2581.52719	14490.8625
2584.21451	14467.7625
2586.90015	14500.7625
2589.58411	14447.5625
2592.2664	14488.5625
2594.94701	14464.7625
2597.62594	14442.2625
2600.30321	14447.0625
2602.9788	14417.4625
2605.65273	14361.1625
2608.32498	14394.0625
2610.99557	14384.8625
2613.66449	14374.0625
2616.33175	14378.4625
2618.99734	14391.6625
2621.66128	14387.4625
2624.32355	14398.4625
2626.98416	14364.9625
2629.64311	14390.4625
2632.30041	14360.5625
2634.95605	14357.0625
2637.61004	14316.1625
2640.26238	14305.2625
2642.91306	14291.5625
2645.56209	14257.4625
2648.20948	14249.8625
2650.85521	14249.0625
2653.4993	14271.6625
2656.14175	14251.2625
2658.78255	14249.8625
2661.42171	14296.0625
2664.05923	14285.2625
2666.6951	14285.1625
2669.32934	14324.1625
2671.96194	14299.2625
2674.59291	14348.0625
2677.22224	14331.1625
2679.84993	14323.7625
2682.476	14296.1625
2685.10043	14293.9625
2687.72324	14249.4625
2690.34441	14281.8625
2692.96396	14260.2625
2695.58188	14272.7625
2698.19818	14220.2625
2700.81285	14273.4625
2703.4259	14270.7625
2706.03733	14272.9625
2708.64714	14250.5625
2711.25533	14280.7625
2713.86191	14271.8625
2716.46687	14263.0625
2719.07021	14286.1625
2721.67194	14285.4625
2724.27206	14304.2625
2726.87057	14321.0625
2729.46747	14343.5625
2732.06276	14311.4625
2734.65644	14323.1625
2737.24852	14307.7625
2739.83899	14301.9625
2742.42786	14281.1625
2745.01513	14280.9625
2747.60079	14274.8625
2750.18486	14236.0625
2752.76733	14236.4625
2755.3482	14206.3625
2757.92747	14224.5625
2760.50515	14209.4625
2763.08123	14181.5625
2765.65573	14178.2625
2768.22863	14164.7625
2770.79994	14188.6625
2773.36967	14167.9625
2775.9378	14180.9625
2778.50435	14208.4625
2781.06932	14190.8625
2783.6327	14205.5625
2786.1945	14172.8625
2788.75471	14159.4625
2791.31335	14166.9625
2793.87041	14114.5625
2796.42589	14086.4625
2798.97979	14081.6625
2801.53212	14040.9625
2804.08288	14040.0625
2806.63206	14005.7625
2809.17967	13964.3625
2811.72571	13933.8625
2814.27018	13960.0625
2816.81308	13896.1625
2819.35442	13878.0625
2821.89419	13871.8625
2824.43239	13868.5625
2826.96904	13859.3625
2829.50412	13861.8625
2832.03763	13856.6625
2834.56959	13828.5625
2837.1	13817.8625
2839.62884	13797.8625
2842.15613	13796.8625
2844.68186	13833.8625
2847.20604	13787.2625
2849.72867	13825.9625
2852.24974	13815.6625
2854.76927	13787.4625
2857.28724	13770.4625
2859.80367	13738.4625
2862.31855	13724.6625
2864.83189	13733.2625
2867.34368	13685.8625
2869.85393	13672.6625
2872.36264	13669.6625
2874.8698	13678.1625
2877.37543	13677.9625
2879.87952	13696.3625
2882.38207	13700.7625
2884.88308	13680.6625
2887.38256	13697.7625
2889.88051	13676.3625
2892.37692	13683.8625
2894.8718	13678.8625
2897.36515	13676.4625
2899.85698	13713.6625
2902.34727	13731.4625
2904.83604	13755.4625
2907.32328	13764.6625
2909.809	13781.0625
2912.29319	13766.5625
2914.77587	13768.5625
2917.25702	13769.5625
2919.73665	13764.1625
2922.21476	13757.0625
2924.69136	13719.9625
2927.16644	13730.3625
2929.64	13697.8625
2932.11205	13720.5625
2934.58258	13674.1625
2937.05161	13688.5625
2939.51912	13697.2625
2941.98513	13695.8625
2944.44962	13652.5625
2946.91261	13591.9625
2949.37409	13639.8625
2951.83407	13609.7625
2954.29254	13605.5625
2956.74951	13597.0625
2959.20498	13592.7625
2961.65895	13594.6625
2964.11142	13566.0625
2966.56239	13570.5625
2969.01186	13553.2625
2971.45984	13558.4625
2973.90632	13525.1625
2976.35131	13529.5625
2978.7948	13511.6625
2981.23681	13466.3625
2983.67732	13427.8625
2986.11635	13413.7625
2988.55388	13411.7625
2990.98993	13367.3625
2993.4245	13331.8625
2995.85758	13315.2625
2998.28917	13293.4625
3000.71928	13268.6625
3003.14791	13242.1625
3005.57506	13232.3625
3008.00073	13204.7625
3010.42493	13174.0625
3012.84764	13144.1625
3015.26888	13121.2625
3017.68865	13094.7625
3020.10694	13089.7625
3022.52376	13068.2625
3024.9391	13051.2625
3027.35298	13039.1625
3029.76539	13030.1625
3032.17632	13043.1625
3034.5858	13025.7625
3036.9938	13029.6625
3039.40034	12991.8625
3041.80542	12983.6625
3044.20903	12976.2625
3046.61118	12950.4625
3049.01187	12941.4625
3051.4111	12941.7625
3053.80888	12901.2625
3056.20519	12866.8625
3058.60005	12847.6625
3060.99345	12814.6625
3063.3854	12796.9625
3065.7759	12789.1625
3068.16494	12741.1625
3070.55254	12712.4625
3072.93868	12720.4625
3075.32338	12672.1625
3077.70662	12652.1625
3080.08842	12611.4625
3082.46878	12585.4625
3084.84769	12603.0625
3087.22515	12573.5625
3089.60118	12584.6625
3091.97576	12574.3625
3094.3489	12572.7625
3096.72061	12550.6625
3099.09087	12567.4625
3101.4597	12581.4625
3103.82709	12537.9625
3106.19305	12532.6625
3108.55757	12541.4625
3110.92066	12500.7625
3113.28232	12510.2625
3115.64255	12475.3625
3118.00134	12449.3625
3120.35871	12442.6625
3122.71466	12391.5625
3125.06917	12391.3625
3127.42226	12369.0625
3129.77393	12368.4625
3132.12417	12334.2625
3134.47299	12342.9625
3136.82039	12352.7625
3139.16636	12345.3625
3141.51092	12319.6625
3143.85406	12355.7625
3146.19579	12332.7625
3148.53609	12308.9625
3150.87499	12337.5625
3153.21246	12341.7625
3155.54853	12360.0625
3157.88318	12323.2625
3160.21642	12350.8625
3162.54826	12330.5625
3164.87868	12371.5625
3167.2077	12404.0625
3169.5353	12422.9625
3171.86151	12383.9625
3174.18631	12362.4625
3176.5097	12349.4625
3178.83169	12347.2625
3181.15228	12310.0625
3183.47147	12329.3625
3185.78926	12312.2625
3188.10565	12282.7625
3190.42065	12264.2625
3192.73424	12253.7625
3195.04645	12217.9625
3197.35725	12249.4625
3199.66667	12246.9625
3201.97469	12258.8625
3204.28132	12252.3625
3206.58656	12247.8625
3208.8904	12274.1625
3211.19287	12265.1625
3213.49394	12288.5625
3215.79363	12281.2625
3218.09193	12298.5625
3220.38884	12284.3625
3222.68438	12322.4625
3224.97853	12317.8625
3227.2713	12280.2625
3229.56269	12267.3625
3231.8527	12264.2625
3234.14133	12245.3625
3236.42858	12249.9625
3238.71446	12204.9625
3240.99896	12153.0625
3243.28209	12170.7625
3245.56384	12152.8625
3247.84423	12150.5625
3250.12324	12148.9625
3252.40088	12149.8625
3254.67715	12106.3625
3256.95205	12117.1625
3259.22558	12132.1625
3261.49775	12105.2625
3263.76855	12106.6625
3266.03799	12074.7625
3268.30606	12082.9625
3270.57277	12057.3625
3272.83812	12027.4625
3275.10211	11994.4625
3277.36474	11978.7625
3279.62601	12009.8625
3281.88593	11929.0625
3284.14448	11939.9625
3286.40168	11976.4625
3288.65753	11969.8625
3290.91202	11963.0625
3293.16516	11912.1625
3295.41695	11904.0625
3297.66738	11858.7625
3299.91647	11806.2625
3302.16421	11715.0625
3304.4106	11682.2625
3306.65564	11604.4625
3308.89933	11517.8625
3311.14169	11442.6625
3313.38269	11364.3625
3315.62236	11274.9625
3317.86068	11160.1625
3320.09766	11108.7625
3322.3333	11035.3625
3324.5676	10980.0625
3326.80056	10815.6625
3329.03219	10754.6625
3331.26248	4.8625
3333.49143	-1.1375
3335.71905	-1.7375
