Data from AgNP_FTO_APTES_UA_10uM_CRN_1000uM_R6G_10uM_NaF_0.1M_Addition_RamanShift__25__19-50-21-010.txt Node

Date: Thu Feb 10 19:50:21 GMT 2022
User: TCL
Spectrometer: QEP01345
Trigger mode: 4
Integration Time (sec): 7.000000E0
Scans to average: 10
Electric dark correction enabled: true
Nonlinearity correction enabled: false
Boxcar width: 0
XAxis mode: Raman Shifts
Number of Pixels in Spectrum: 1044
>>>>>Begin Spectral Data<<<<<
46.04893	1
50.45542	-0.9
54.85868	-2.6
59.25871	-0.9
63.6555	69.6
68.04907	71.4
72.43941	77.3
76.82654	76.9
81.21044	82.7
85.59113	84.1
89.96862	83.8
94.34289	89
98.71396	90.4
103.08183	94.2
107.4465	97.8
111.80798	95.5
116.16626	102
120.52136	105.2
124.87327	114.2
129.222	115.4
133.56755	124.4
137.90993	134.3
142.24913	145.9
146.58517	166.9
150.91804	198.4
155.24774	231.9
159.57429	296.6
163.89768	376.3
168.21792	502.7
172.53501	689
176.84895	962.9
181.15975	1351.1
185.46741	1916
189.77193	2648.8
194.07331	3535.8
198.37157	4595.7
202.6667	5696.7
206.9587	6761.2
211.24758	7853.4
215.53334	8956.8
219.81599	10111.4
224.09553	11410.6
228.37195	12849.6
232.64527	14389.9
236.91549	16034.5
241.18261	17627.7
245.44663	19079
249.70755	20332.3
253.96539	21439.7
258.22014	22396.4
262.4718	23248.2
266.72039	23841.6
270.96589	24195.5
275.20832	24290.3
279.44768	24120.1
283.68397	23833.5
287.91719	23593.2
292.14735	23454.6
296.37445	23613.6
300.59849	23985.5
304.81948	24409.8
309.03742	24605.9
313.25231	24391.8
317.46415	23594.4
321.67296	22497.8
325.87872	21563.1
330.08145	21209.2
334.28114	21192.4
338.47781	21435.1
342.67145	21790
346.86207	22402.2
351.04966	23175.4
355.23424	24113.6
359.4158	24826.9
363.59435	25229.8
367.76989	25480.7
371.94243	25609.7
376.11196	25710.3
380.27849	25802.7
384.44203	25777.4
388.60257	25702.2
392.76012	25617.5
396.91468	25761.5
401.06626	26229.2
405.21485	26558.2
409.36047	26368.3
413.50311	25610.7
417.64277	24943.9
421.77947	24601.2
425.9132	24541.9
430.04396	24724.9
434.17176	24921.1
438.2966	25268.6
442.41849	25787.4
446.53742	26537.2
450.6534	27274.1
454.76644	27783.7
458.87653	27895.4
462.98368	27691.8
467.08789	27322.7
471.18916	26942.5
475.2875	26623.8
479.38291	26422.3
483.4754	26199
487.56496	25808.7
491.6516	25410.7
495.73531	25048.6
499.81612	24888.1
503.89401	24959.5
507.96899	25078
512.04106	25175.2
516.11023	25360.1
520.1765	25410.4
524.23987	25333.7
528.30034	25083.3
532.35792	24810.2
536.41261	24532.9
540.46441	24244.1
544.51333	24199.4
548.55936	24347.9
552.60252	24776.6
556.64279	25335.5
560.6802	25695
564.71473	26061.9
568.7464	26766
572.7752	27364.8
576.80114	27117.3
580.82422	26450.7
584.84444	26096.6
588.86181	26157.7
592.87633	26495.8
596.888	26790.7
600.89682	26944.7
604.9028	28257.5
608.90594	32458.7
612.90624	38222.3
616.90371	37070.1
620.89834	29151
624.89015	25409.5
628.87913	24680.9
632.86528	24678.4
636.84862	24836.8
640.82913	24607
644.80683	23942.4
648.78172	23465.3
652.75379	23418.1
656.72306	23906.7
660.68952	24563.3
664.65319	24489.1
668.61405	23876.1
672.57211	23567.2
676.52738	23578.6
680.47986	23637.4
684.42955	23510.4
688.37646	23462.9
692.32058	23476.6
696.26192	23667
700.20048	23904.6
704.13626	24036.2
708.06928	23988.9
711.99952	23833.9
715.927	23743.6
719.85171	23748.4
723.77365	23739.9
727.69284	23592.8
731.60928	23448
735.52295	23428.8
739.43388	23409.5
743.34206	23473.4
747.24749	23638.2
751.15017	23692
755.05012	24014.4
758.94733	24651
762.8418	26166
766.73354	28670.9
770.62254	31362.2
774.50882	32723.7
778.39237	31573
782.27321	28601.7
786.15132	25899
790.02671	24265.5
793.89938	23609.9
797.76935	23273.2
801.6366	23167.3
805.50115	23075.4
809.36299	23047.7
813.22213	22956.5
817.07857	22916.7
820.93231	22944.7
824.78336	22911.5
828.63172	22980.2
832.47738	22961.1
836.32036	22914.9
840.16066	22892.4
843.99827	22841.8
847.8332	22884.3
851.66546	22787.1
855.49504	22761.5
859.32195	22768.8
863.1462	22694.9
866.96777	22640.9
870.78668	22602
874.60293	22618
878.41652	22612.5
882.22745	22708.6
886.03573	22799
889.84136	22758.3
893.64433	22634.3
897.44466	22617.5
901.24235	22556.3
905.0374	22466.4
908.8298	22407
912.61957	22350.7
916.40671	22440.6
920.19121	22583
923.97308	22707.6
927.75233	22820.1
931.52895	22909.5
935.30295	22762.2
939.07433	22369.3
942.84309	22016.4
946.60924	21788.5
950.37278	21636.3
954.13371	21564.8
957.89203	21486.5
961.64774	21481.6
965.40086	21375.8
969.15137	21283.4
972.89929	21235.3
976.64461	21185.9
980.38733	21122.5
984.12747	21180.7
987.86502	21311
991.59999	21480
995.33237	21741.5
999.06217	22154
1002.78939	22718.3
1006.51404	23097
1010.23611	23350.9
1013.95561	23550.9
1017.67255	23533.2
1021.38692	23274.8
1025.09872	23030.9
1028.80796	22926.4
1032.51465	23126.4
1036.21877	23377.7
1039.92035	23459.2
1043.61937	23310.3
1047.31584	23063
1051.00976	22809.3
1054.70114	22661.4
1058.38998	22667.7
1062.07627	22725.7
1065.76003	22801.1
1069.44126	22832.8
1073.11995	22893.7
1076.79611	23080.8
1080.46974	23255.6
1084.14085	23610.7
1087.80943	23939
1091.47549	24188.6
1095.13903	23988.2
1098.80005	23606.6
1102.45857	23227.7
1106.11456	23021.5
1109.76805	23073.9
1113.41903	23387.7
1117.06751	23797.7
1120.71348	24286.6
1124.35696	24807.8
1127.99793	25293.7
1131.63641	25339.4
1135.2724	24767.8
1138.90589	24093.2
1142.5369	23741.3
1146.16542	23595.8
1149.79145	23543.1
1153.415	23535.9
1157.03607	23718.7
1160.65467	24133.3
1164.27079	24821.6
1167.88443	25854.3
1171.49561	27354.3
1175.10432	29640.8
1178.71056	32619.1
1182.31434	35077.6
1185.91565	36103.2
1189.51451	35776.2
1193.11091	34445.8
1196.70485	32794.1
1200.29634	31347.9
1203.88538	30279
1207.47197	29196.8
1211.05612	28194.3
1214.63782	27562.4
1218.21708	27367.5
1221.79391	27316.5
1225.36829	27149.5
1228.94024	26804
1232.50976	26463.3
1236.07685	26237.9
1239.6415	26218.6
1243.20374	26346.8
1246.76355	26538.7
1250.32093	26833.2
1253.8759	27314.2
1257.42845	27983
1260.97859	28630.8
1264.52631	29226.5
1268.07163	29852.4
1271.61453	30404.7
1275.15503	30955.8
1278.69312	31379.7
1282.22882	31654.7
1285.76211	32110.2
1289.29301	32832.8
1292.82151	33809.3
1296.34761	35069.3
1299.87133	36778.9
1303.39266	39091.8
1306.9116	42225.4
1310.42815	45599.7
1313.94233	47891.3
1317.45412	47791.6
1320.96354	46094.8
1324.47058	44034.4
1327.97525	42196.1
1331.47754	40961.1
1334.97747	40621
1338.47502	40993.5
1341.97022	41624.9
1345.46305	41942.8
1348.95352	42176.2
1352.44163	42775.4
1355.92738	44356
1359.41078	47587.5
1362.89183	51066.4
1366.37053	50046.4
1369.84688	44297.5
1373.32088	38423.4
1376.79254	34750.4
1380.26186	33072.2
1383.72883	32545.8
1387.19347	32320.1
1390.65578	32041.9
1394.11575	31989
1397.57339	32292.5
1401.0287	32972.4
1404.48168	33699
1407.93234	34299.2
1411.38068	34402
1414.82669	33918
1418.27039	32882.9
1421.71177	31634.7
1425.15083	30402.5
1428.58758	29742.5
1432.02203	29603.9
1435.45416	29866.9
1438.88399	30197.6
1442.31151	30567.7
1445.73673	30952
1449.15965	31343.5
1452.58027	31719.7
1455.9986	31830.5
1459.41463	32013.4
1462.82837	32386.6
1466.23982	32962.8
1469.64898	33507.7
1473.05586	33791.9
1476.46045	33729.9
1479.86276	33736.8
1483.26279	33690.6
1486.66054	33823.4
1490.05602	34148.8
1493.44922	34467.8
1496.84016	35103
1500.22882	36153.9
1503.61521	38042.1
1506.99934	40685.7
1510.38121	43404.2
1513.76081	44879
1517.13816	43557.2
1520.51324	40254.4
1523.88607	36797.2
1527.25665	34465.8
1530.62498	33296.1
1533.99105	32736.5
1537.35488	32477
1540.71647	32321.3
1544.07581	32151.1
1547.4329	32011.3
1550.78776	31705.8
1554.14038	31552.2
1557.49077	31578.6
1560.83892	31790.1
1564.18484	32056.2
1567.52853	32264
1570.86999	32549.6
1574.20922	32751.2
1577.54624	32715
1580.88103	32249.9
1584.2136	31564.9
1587.54395	31571.6
1590.87208	32548.1
1594.19801	34289.6
1597.52172	36458.1
1600.84321	37513.3
1604.16251	36625.8
1607.47959	34362.4
1610.79447	31608.8
1614.10715	29015.6
1617.41763	27007.2
1620.7259	25558
1624.03199	24831.3
1627.33587	24690.4
1630.63757	25171.4
1633.93707	26271
1637.23439	28028.7
1640.52951	30550.4
1643.82246	33668.1
1647.11321	36670.2
1650.40179	38305
1653.68819	36989.9
1656.97241	32859.6
1660.25446	28316.9
1663.53433	25042.3
1666.81203	22997.5
1670.08756	21755.2
1673.36092	20995.2
1676.63211	20503.8
1679.90115	20144
1683.16801	19881
1686.43272	19676
1689.69527	19545.4
1692.95567	19456.8
1696.2139	19381.8
1699.46999	19331.5
1702.72392	19284.2
1705.97571	19228.6
1709.22535	19148.7
1712.47284	19149.3
1715.71819	19091.3
1718.96139	19104.5
1722.20246	19053.5
1725.44139	18933.7
1728.67818	18879.9
1731.91284	18779.7
1735.14537	18680.5
1738.37576	18590.5
1741.60403	18549
1744.83017	18520.1
1748.05418	18478.1
1751.27607	18423.4
1754.49584	18409
1757.71349	18388.7
1760.92903	18368.3
1764.14244	18339.1
1767.35375	18304.3
1770.56294	18300
1773.77002	18262.1
1776.97499	18233
1780.17785	18198.9
1783.37861	18173.2
1786.57727	18088.4
1789.77382	18066.5
1792.96828	18049.9
1796.16064	18042.8
1799.3509	18000.8
1802.53907	17951.3
1805.72514	17925.6
1808.90913	17875.2
1812.09102	17847.3
1815.27083	17767.8
1818.44856	17731.3
1821.6242	17722.3
1824.79776	17667.3
1827.96924	17662.4
1831.13864	17667.4
1834.30597	17620.2
1837.47122	17614.4
1840.6344	17552.1
1843.7955	17545.5
1846.95454	17558.3
1850.11151	17525.3
1853.26642	17554.2
1856.41926	17529.8
1859.57004	17540.9
1862.71876	17504.5
1865.86542	17491.1
1869.01003	17511.1
1872.15258	17493.3
1875.29308	17501.9
1878.43152	17472.5
1881.56792	17465.1
1884.70227	17449.2
1887.83457	17425.4
1890.96482	17406.1
1894.09304	17342.2
1897.21921	17364.4
1900.34335	17390.4
1903.46544	17410.8
1906.58551	17374.9
1909.70353	17343.1
1912.81953	17317.2
1915.93349	17331.1
1919.04543	17300.5
1922.15534	17217.6
1925.26322	17180.4
1928.36908	17154.4
1931.47292	17140.1
1934.57473	17133.2
1937.67453	17068.3
1940.77232	17018
1943.86808	16965
1946.96184	16903.5
1950.05358	16810.5
1953.14331	16791.9
1956.23103	16722.4
1959.31675	16695.2
1962.40046	16643.5
1965.48217	16589.4
1968.56188	16562.6
1971.63959	16488.8
1974.7153	16443.5
1977.78901	16391.5
1980.86073	16339.9
1983.93046	16321
1986.99819	16253.2
1990.06394	16206
1993.1277	16158.9
1996.18947	16058.6
1999.24925	16048.4
2002.30706	15956.6
2005.36288	15945.5
2008.41672	15898.8
2011.46859	15853.5
2014.51848	15845.4
2017.56639	15768.4
2020.61233	15769.3
2023.6563	15731.1
2026.6983	15671.4
2029.73833	15614.5
2032.7764	15590.6
2035.8125	15545
2038.84664	15526.5
2041.87881	15476.9
2044.90903	15410.9
2047.93729	15412.8
2050.96359	15432.1
2053.98794	15366.5
2057.01034	15342.6
2060.03078	15333.3
2063.04927	15331.4
2066.06582	15323
2069.08042	15319.1
2072.09307	15307.9
2075.10378	15301.2
2078.11255	15278.8
2081.11938	15275.9
2084.12426	15236.7
2087.12722	15239.1
2090.12824	15208.6
2093.12732	15216.7
2096.12447	15216.9
2099.11969	15163.3
2102.11299	15187.2
2105.10435	15180.1
2108.09379	15204.8
2111.08131	15200.5
2114.0669	15189
2117.05057	15213.7
2120.03233	15209.1
2123.01216	15223.7
2125.99008	15239
2128.96609	15258.2
2131.94018	15316.8
2134.91236	15269.6
2137.88263	15265.2
2140.851	15271.8
2143.81746	15274.3
2146.78201	15277.3
2149.74466	15314.9
2152.7054	15280.4
2155.66425	15266.1
2158.6212	15274.8
2161.57625	15245.4
2164.52941	15234.2
2167.48067	15216.4
2170.43004	15231.8
2173.37752	15209.2
2176.32311	15236.6
2179.26681	15214.4
2182.20863	15200.1
2185.14856	15191
2188.08661	15177.4
2191.02278	15201.7
2193.95707	15183
2196.88948	15201.2
2199.82001	15168.7
2202.74867	15134.4
2205.67545	15131
2208.60037	15132.4
2211.52341	15133.4
2214.44458	15104.8
2217.36388	15088.1
2220.28132	15026.3
2223.1969	14990.5
2226.11061	14952.4
2229.02246	14923.6
2231.93245	14875.5
2234.84058	14869.7
2237.74686	14834.9
2240.65128	14813.2
2243.55385	14765
2246.45456	14766.2
2249.35343	14739.8
2252.25044	14740
2255.14561	14730.1
2258.03893	14683.7
2260.93041	14680.3
2263.82004	14613.3
2266.70783	14596.7
2269.59378	14547.6
2272.4779	14478.5
2275.36017	14481.9
2278.24061	14438.4
2281.11922	14410.2
2283.996	14387.1
2286.87094	14385
2289.74405	14367.8
2292.61534	14334.3
2295.4848	14329.8
2298.35243	14335.8
2301.21824	14272.8
2304.08223	14308.1
2306.94439	14298.9
2309.80474	14286
2312.66327	14295.3
2315.51999	14273.4
2318.37489	14293.3
2321.22797	14252.3
2324.07925	14225.4
2326.92871	14206.9
2329.77637	14201.5
2332.62222	14147.1
2335.46626	14164.4
2338.3085	14132.7
2341.14893	14141
2343.98756	14146.5
2346.8244	14146.3
2349.65943	14129.4
2352.49267	14103.9
2355.32411	14109.8
2358.15376	14132.3
2360.98161	14136.2
2363.80768	14125.6
2366.63195	14118.4
2369.45444	14070.8
2372.27514	14051.3
2375.09405	14020
2377.91118	14018.3
2380.72652	13972.5
2383.54009	13893.6
2386.35187	13874.6
2389.16188	13828.9
2391.97011	13802.8
2394.77657	13777.6
2397.58125	13751
2400.38416	13752.8
2403.18529	13710.8
2405.98466	13678.8
2408.78226	13642
2411.57809	13629.6
2414.37216	13586.7
2417.16446	13585.7
2419.955	13572.9
2422.74378	13540.8
2425.5308	13535.4
2428.31606	13547.5
2431.09956	13520.9
2433.88131	13495.3
2436.6613	13485.9
2439.43954	13489.1
2442.21603	13466.2
2444.99077	13461.5
2447.76377	13458.7
2450.53501	13452.4
2453.30451	13444.3
2456.07226	13411.7
2458.83827	13424.2
2461.60254	13419.5
2464.36507	13392.4
2467.12586	13342.6
2469.88492	13360.6
2472.64224	13350.3
2475.39782	13362.4
2478.15167	13405.1
2480.90379	13381.3
2483.65417	13423.4
2486.40283	13396.5
2489.14976	13414.9
2491.89497	13415
2494.63845	13445.7
2497.3802	13360.5
2500.12024	13404.7
2502.85855	13378
2505.59514	13377.8
2508.33002	13329.7
2511.06318	13307.4
2513.79462	13305.5
2516.52435	13254.1
2519.25237	13224.9
2521.97867	13219.2
2524.70327	13218.1
2527.42616	13195.1
2530.14734	13187.6
2532.86681	13186.2
2535.58458	13182.7
2538.30065	13163.2
2541.01501	13160.5
2543.72768	13145
2546.43864	13148.1
2549.14791	13113.1
2551.85548	13096
2554.56136	13063.8
2557.26554	13026.2
2559.96803	13019.3
2562.66883	12993.8
2565.36794	12963.2
2568.06536	12928.1
2570.7611	12907.7
2573.45514	12922.6
2576.14751	12920.3
2578.83819	12863
2581.52719	12866
2584.21451	12851.4
2586.90015	12862.4
2589.58411	12852.1
2592.2664	12826.9
2594.94701	12793.9
2597.62594	12799.3
2600.30321	12770.8
2602.9788	12734.5
2605.65273	12755.8
2608.32498	12724.6
2610.99557	12714.8
2613.66449	12732.8
2616.33175	12759.5
2618.99734	12739.5
2621.66128	12718.9
2624.32355	12704.4
2626.98416	12720.2
2629.64311	12685.8
2632.30041	12689.6
2634.95605	12658.2
2637.61004	12622.1
2640.26238	12584.4
2642.91306	12599.1
2645.56209	12604
2648.20948	12560.9
2650.85521	12562.2
2653.4993	12563.1
2656.14175	12574.8
2658.78255	12560.8
2661.42171	12565.9
2664.05923	12589.6
2666.6951	12599.9
2669.32934	12614.6
2671.96194	12619.6
2674.59291	12616.5
2677.22224	12587.8
2679.84993	12601.4
2682.476	12573.2
2685.10043	12587.7
2687.72324	12553.1
2690.34441	12561.2
2692.96396	12533.7
2695.58188	12542.8
2698.19818	12540.6
2700.81285	12524.6
2703.4259	12545.9
2706.03733	12573.6
2708.64714	12557.4
2711.25533	12560.2
2713.86191	12539.8
2716.46687	12595.1
2719.07021	12562.3
2721.67194	12589
2724.27206	12558.1
2726.87057	12566.5
2729.46747	12573.9
2732.06276	12592.2
2734.65644	12561.7
2737.24852	12568.9
2739.83899	12539.6
2742.42786	12564
2745.01513	12529.3
2747.60079	12514.2
2750.18486	12477.1
2752.76733	12489
2755.3482	12481.9
2757.92747	12472
2760.50515	12457.3
2763.08123	12440.7
2765.65573	12422.5
2768.22863	12430.3
2770.79994	12370.1
2773.36967	12404.6
2775.9378	12372.8
2778.50435	12364.3
2781.06932	12374.4
2783.6327	12373.8
2786.1945	12381.2
2788.75471	12377.9
2791.31335	12362.2
2793.87041	12332.1
2796.42589	12315.6
2798.97979	12304.7
2801.53212	12267.9
2804.08288	12259.3
2806.63206	12235.8
2809.17967	12197.1
2811.72571	12182.4
2814.27018	12159
2816.81308	12133.2
2819.35442	12131.7
2821.89419	12115.5
2824.43239	12092.2
2826.96904	12082.1
2829.50412	12066.7
2832.03763	12072.4
2834.56959	12070
2837.1	12036
2839.62884	12078.5
2842.15613	12061.7
2844.68186	12080.4
2847.20604	12104.7
2849.72867	12125.5
2852.24974	12127.4
2854.76927	12114.1
2857.28724	12062.1
2859.80367	12042.4
2862.31855	12010.4
2864.83189	12022.3
2867.34368	11997.6
2869.85393	11997.9
2872.36264	11986.7
2874.8698	11972.3
2877.37543	11977.1
2879.87952	11978.6
2882.38207	11977.6
2884.88308	11970.5
2887.38256	11956.4
2889.88051	11950.1
2892.37692	11944.2
2894.8718	11967.5
2897.36515	12013.9
2899.85698	11972.8
2902.34727	12002.7
2904.83604	12009.9
2907.32328	11995.9
2909.809	11992.9
2912.29319	12014.2
2914.77587	12007.6
2917.25702	11974.6
2919.73665	11982.8
2922.21476	11978.4
2924.69136	11932.7
2927.16644	11975
2929.64	11930.9
2932.11205	11930.6
2934.58258	11897.9
2937.05161	11913.3
2939.51912	11910.3
2941.98513	11889.7
2944.44962	11864.4
2946.91261	11788
2949.37409	11803.9
2951.83407	11804.7
2954.29254	11773.4
2956.74951	11742.7
2959.20498	11744.6
2961.65895	11721.6
2964.11142	11718.6
2966.56239	11702.9
2969.01186	11693
2971.45984	11652.7
2973.90632	11619.7
2976.35131	11607.6
2978.7948	11569.1
2981.23681	11556.2
2983.67732	11508
2986.11635	11477.1
2988.55388	11468.4
2990.98993	11428.9
2993.4245	11407.3
2995.85758	11353.5
2998.28917	11322.7
3000.71928	11309.5
3003.14791	11312.2
3005.57506	11287
3008.00073	11248.1
3010.42493	11257.2
3012.84764	11203.1
3015.26888	11182.9
3017.68865	11163.3
3020.10694	11187.5
3022.52376	11142
3024.9391	11131
3027.35298	11106
3029.76539	11083.8
3032.17632	11074
3034.5858	11075.2
3036.9938	11112.1
3039.40034	11078.4
3041.80542	11059.8
3044.20903	11010
3046.61118	11027.3
3049.01187	11018
3051.4111	10983.2
3053.80888	10950.5
3056.20519	10930.6
3058.60005	10878.8
3060.99345	10867.3
3063.3854	10816.7
3065.7759	10810.8
3068.16494	10770.7
3070.55254	10749.1
3072.93868	10740.2
3075.32338	10701.9
3077.70662	10678.1
3080.08842	10655.7
3082.46878	10621.2
3084.84769	10612.3
3087.22515	10607.3
3089.60118	10621.3
3091.97576	10600.8
3094.3489	10602.3
3096.72061	10576.5
3099.09087	10582.1
3101.4597	10559.8
3103.82709	10548
3106.19305	10545.6
3108.55757	10534.4
3110.92066	10503.4
3113.28232	10488.9
3115.64255	10459.1
3118.00134	10455.7
3120.35871	10442.8
3122.71466	10404.4
3125.06917	10391.7
3127.42226	10353.4
3129.77393	10361.5
3132.12417	10341.8
3134.47299	10309.7
3136.82039	10325.4
3139.16636	10320.2
3141.51092	10326.4
3143.85406	10305.9
3146.19579	10317.1
3148.53609	10300
3150.87499	10318.9
3153.21246	10287.2
3155.54853	10329.5
3157.88318	10313.3
3160.21642	10341.1
3162.54826	10291.4
3164.87868	10293.6
3167.2077	10278.9
3169.5353	10316.9
3171.86151	10310.9
3174.18631	10297.4
3176.5097	10272.6
3178.83169	10273
3181.15228	10253.1
3183.47147	10240.7
3185.78926	10255.9
3188.10565	10239
3190.42065	10221.6
3192.73424	10195.9
3195.04645	10208
3197.35725	10187.5
3199.66667	10186
3201.97469	10197.4
3204.28132	10213.2
3206.58656	10202
3208.8904	10207.1
3211.19287	10196.1
3213.49394	10187.5
3215.79363	10195
3218.09193	10192.9
3220.38884	10216.5
3222.68438	10193.7
3224.97853	10198.7
3227.2713	10187.6
3229.56269	10148.6
3231.8527	10146.6
3234.14133	10129.3
3236.42858	10126.2
3238.71446	10090
3240.99896	10091.5
3243.28209	10065.2
3245.56384	10062.8
3247.84423	10070.8
3250.12324	10056
3252.40088	10031.3
3254.67715	10000.8
3256.95205	9979.2
3259.22558	9994.9
3261.49775	9980.7
3263.76855	9975.9
3266.03799	9956.8
3268.30606	9942.2
3270.57277	9905.2
3272.83812	9894.4
3275.10211	9870.9
3277.36474	9859.1
3279.62601	9858.2
3281.88593	9822.4
3284.14448	9824.5
3286.40168	9856.2
3288.65753	9840.9
3290.91202	9825.5
3293.16516	9817.1
3295.41695	9791.6
3297.66738	9729.7
3299.91647	9671.1
3302.16421	9611
3304.4106	9560.6
3306.65564	9493.2
3308.89933	9426.3
3311.14169	9345.5
3313.38269	9272.3
3315.62236	9218.9
3317.86068	9143.3
3320.09766	9053.6
3322.3333	8992
3324.5676	8954.8
3326.80056	8809.5
3329.03219	8758.7
3331.26248	4.3
3333.49143	-0.2
3335.71905	-0.9
