Data from AgNP_FTO_APTES_UA_10uM_CRN_200uM_R6G_10uM_NaF_0.1M_Addition_RamanShift__18__18-21-40-902.txt Node

Date: Thu Feb 10 18:21:40 GMT 2022
User: TCL
Spectrometer: QEP01345
Trigger mode: 4
Integration Time (sec): 7.000000E0
Scans to average: 10
Electric dark correction enabled: true
Nonlinearity correction enabled: false
Boxcar width: 0
XAxis mode: Raman Shifts
Number of Pixels in Spectrum: 1044
>>>>>Begin Spectral Data<<<<<
46.04893	-0.4375
50.45542	-0.2375
54.85868	-1.6375
59.25871	-0.4375
63.6555	58.8625
68.04907	59.4625
72.43941	66.2625
76.82654	66.5625
81.21044	67.2625
85.59113	67.9625
89.96862	76.3625
94.34289	77.5625
98.71396	81.6625
103.08183	85.7625
107.4465	86.4625
111.80798	82.2625
116.16626	87.8625
120.52136	91.0625
124.87327	93.6625
129.222	96.4625
133.56755	105.2625
137.90993	108.6625
142.24913	114.4625
146.58517	132.2625
150.91804	151.5625
155.24774	179.0625
159.57429	218.7625
163.89768	280.1625
168.21792	365.4625
172.53501	504.8625
176.84895	697.4625
181.15975	979.8625
185.46741	1371.8625
189.77193	1911.6625
194.07331	2545.1625
198.37157	3290.8625
202.6667	4082.7625
206.9587	4844.3625
211.24758	5595.5625
215.53334	6345.2625
219.81599	7134.3625
224.09553	7988.7625
228.37195	8915.7625
232.64527	9975.6625
236.91549	11093.9625
241.18261	12221.0625
245.44663	13312.1625
249.70755	14337.3625
253.96539	15211.5625
258.22014	15950.5625
262.4718	16565.3625
266.72039	17006.7625
270.96589	17287.4625
275.20832	17348.3625
279.44768	17298.3625
283.68397	17142.7625
287.91719	16965.1625
292.14735	16876.3625
296.37445	16845.1625
300.59849	16856.1625
304.81948	16851.3625
309.03742	16736.4625
313.25231	16535.3625
317.46415	16218.7625
321.67296	15886.5625
325.87872	15593.3625
330.08145	15497.8625
334.28114	15511.4625
338.47781	15615.4625
342.67145	15776.3625
346.86207	15978.2625
351.04966	16232.0625
355.23424	16517.0625
359.4158	16765.5625
363.59435	16976.8625
367.76989	17159.2625
371.94243	17252.5625
376.11196	17391.7625
380.27849	17531.6625
384.44203	17649.9625
388.60257	17774.0625
392.76012	17908.8625
396.91468	18056.0625
401.06626	18255.6625
405.21485	18397.2625
409.36047	18382.0625
413.50311	18248.1625
417.64277	18073.2625
421.77947	18074.1625
425.9132	18147.3625
430.04396	18254.4625
434.17176	18344.2625
438.2966	18519.0625
442.41849	18730.5625
446.53742	19106.6625
450.6534	19543.2625
454.76644	19851.9625
458.87653	19980.3625
462.98368	19965.9625
467.08789	19824.3625
471.18916	19707.0625
475.2875	19650.1625
479.38291	19602.5625
483.4754	19579.1625
487.56496	19347.8625
491.6516	19094.2625
495.73531	18835.1625
499.81612	18721.4625
503.89401	18733.7625
507.96899	18769.9625
512.04106	18771.4625
516.11023	18744.4625
520.1765	18645.7625
524.23987	18529.8625
528.30034	18378.4625
532.35792	18281.2625
536.41261	18174.2625
540.46441	18095.3625
544.51333	18105.4625
548.55936	18301.8625
552.60252	18544.5625
556.64279	18849.7625
560.6802	19071.2625
564.71473	19244.6625
568.7464	19416.1625
572.7752	19726.7625
576.80114	19942.5625
580.82422	20097.5625
584.84444	20261.9625
588.86181	20468.0625
592.87633	20633.5625
596.888	20676.5625
600.89682	20573.3625
604.9028	20885.4625
608.90594	21992.6625
612.90624	23236.6625
616.90371	22261.1625
620.89834	19730.1625
624.89015	18694.7625
628.87913	18634.3625
632.86528	18671.6625
636.84862	18647.3625
640.82913	18469.2625
644.80683	18213.8625
648.78172	17971.2625
652.75379	17920.8625
656.72306	18043.8625
660.68952	18267.4625
664.65319	18198.4625
668.61405	18004.8625
672.57211	17926.4625
676.52738	17980.3625
680.47986	18015.5625
684.42955	18016.2625
688.37646	17962.7625
692.32058	17983.7625
696.26192	18079.9625
700.20048	18234.3625
704.13626	18284.0625
708.06928	18318.9625
711.99952	18247.0625
715.927	18197.8625
719.85171	18186.6625
723.77365	18189.4625
727.69284	18059.5625
731.60928	18005.5625
735.52295	17953.3625
739.43388	17942.7625
743.34206	17949.1625
747.24749	17970.2625
751.15017	18092.9625
755.05012	18261.4625
758.94733	18588.6625
762.8418	19184.2625
766.73354	20138.9625
770.62254	21026.7625
774.50882	21317.7625
778.39237	20651.1625
782.27321	19607.3625
786.15132	18713.7625
790.02671	18205.2625
793.89938	17938.6625
797.76935	17798.1625
801.6366	17803.7625
805.50115	17808.1625
809.36299	17725.7625
813.22213	17671.1625
817.07857	17601.1625
820.93231	17552.9625
824.78336	17513.3625
828.63172	17462.6625
832.47738	17489.6625
836.32036	17495.2625
840.16066	17479.4625
843.99827	17559.0625
847.8332	17545.2625
851.66546	17511.5625
855.49504	17492.1625
859.32195	17513.0625
863.1462	17516.7625
866.96777	17474.0625
870.78668	17435.7625
874.60293	17440.6625
878.41652	17425.5625
882.22745	17402.8625
886.03573	17484.2625
889.84136	17479.2625
893.64433	17449.5625
897.44466	17403.9625
901.24235	17345.9625
905.0374	17304.2625
908.8298	17238.0625
912.61957	17251.9625
916.40671	17308.4625
920.19121	17498.3625
923.97308	17596.3625
927.75233	17603.7625
931.52895	17567.3625
935.30295	17425.1625
939.07433	17188.8625
942.84309	17032.6625
946.60924	16907.0625
950.37278	16829.2625
954.13371	16833.9625
957.89203	16800.8625
961.64774	16780.5625
965.40086	16724.8625
969.15137	16682.6625
972.89929	16614.0625
976.64461	16548.9625
980.38733	16548.4625
984.12747	16575.8625
987.86502	16712.2625
991.59999	16841.5625
995.33237	17003.9625
999.06217	17272.8625
1002.78939	17555.0625
1006.51404	17720.3625
1010.23611	17802.8625
1013.95561	17855.2625
1017.67255	17916.0625
1021.38692	17825.2625
1025.09872	17737.6625
1028.80796	17723.7625
1032.51465	17969.8625
1036.21877	18225.4625
1039.92035	18262.3625
1043.61937	18126.6625
1047.31584	17944.3625
1051.00976	17696.0625
1054.70114	17634.2625
1058.38998	17685.3625
1062.07627	17781.5625
1065.76003	17853.4625
1069.44126	17905.7625
1073.11995	17969.4625
1076.79611	18100.2625
1080.46974	18145.2625
1084.14085	18234.6625
1087.80943	18325.2625
1091.47549	18472.8625
1095.13903	18455.1625
1098.80005	18346.6625
1102.45857	18145.2625
1106.11456	17961.5625
1109.76805	17888.9625
1113.41903	17955.8625
1117.06751	18065.2625
1120.71348	18170.1625
1124.35696	18298.7625
1127.99793	18474.9625
1131.63641	18624.9625
1135.2724	18520.2625
1138.90589	18371.7625
1142.5369	18298.8625
1146.16542	18288.0625
1149.79145	18355.3625
1153.415	18472.9625
1157.03607	18666.8625
1160.65467	19044.7625
1164.27079	19622.6625
1167.88443	20294.0625
1171.49561	21183.3625
1175.10432	22237.5625
1178.71056	23572.7625
1182.31434	24909.5625
1185.91565	25636.6625
1189.51451	25615.0625
1193.11091	25099.3625
1196.70485	24363.8625
1200.29634	23575.7625
1203.88538	22973.8625
1207.47197	22534.6625
1211.05612	22177.3625
1214.63782	21802.3625
1218.21708	21479.2625
1221.79391	21237.9625
1225.36829	21094.5625
1228.94024	20828.9625
1232.50976	20541.9625
1236.07685	20304.2625
1239.6415	20212.3625
1243.20374	20186.9625
1246.76355	20343.6625
1250.32093	20589.5625
1253.8759	20825.8625
1257.42845	21259.2625
1260.97859	21633.7625
1264.52631	21993.6625
1268.07163	22409.7625
1271.61453	22844.3625
1275.15503	23360.8625
1278.69312	23878.4625
1282.22882	24392.3625
1285.76211	24791.0625
1289.29301	25356.9625
1292.82151	26120.1625
1296.34761	27166.1625
1299.87133	28429.8625
1303.39266	29776.7625
1306.9116	31158.5625
1310.42815	32439.0625
1313.94233	33312.3625
1317.45412	33287.7625
1320.96354	32762.7625
1324.47058	32196.1625
1327.97525	31745.7625
1331.47754	31382.4625
1334.97747	31232.9625
1338.47502	31149.1625
1341.97022	31168.4625
1345.46305	30903.3625
1348.95352	30576.3625
1352.44163	30329.4625
1355.92738	30525.0625
1359.41078	31238.5625
1362.89183	31876.9625
1366.37053	31320.7625
1369.84688	29226.2625
1373.32088	26778.0625
1376.79254	25101.7625
1380.26186	24510.4625
1383.72883	24501.1625
1387.19347	24522.4625
1390.65578	24478.8625
1394.11575	24550.2625
1397.57339	24811.4625
1401.0287	25191.2625
1404.48168	25454.8625
1407.93234	25413.3625
1411.38068	25068.4625
1414.82669	24365.9625
1418.27039	23547.8625
1421.71177	22677.4625
1425.15083	21990.9625
1428.58758	21606.9625
1432.02203	21569.6625
1435.45416	21909.4625
1438.88399	22371.9625
1442.31151	22824.5625
1445.73673	23159.9625
1449.15965	23463.9625
1452.58027	23716.8625
1455.9986	23847.6625
1459.41463	24021.8625
1462.82837	24247.5625
1466.23982	24516.9625
1469.64898	24760.4625
1473.05586	24907.5625
1476.46045	24809.4625
1479.86276	24648.1625
1483.26279	24446.8625
1486.66054	24218.2625
1490.05602	24158.3625
1493.44922	24197.2625
1496.84016	24327.0625
1500.22882	24635.9625
1503.61521	25196.0625
1506.99934	26014.8625
1510.38121	26701.1625
1513.76081	26949.4625
1517.13816	26526.4625
1520.51324	25781.5625
1523.88607	25053.6625
1527.25665	24671.0625
1530.62498	24547.6625
1533.99105	24494.8625
1537.35488	24434.5625
1540.71647	24241.6625
1544.07581	23900.3625
1547.4329	23535.6625
1550.78776	23192.4625
1554.14038	22914.0625
1557.49077	22809.1625
1560.83892	22719.1625
1564.18484	22692.8625
1567.52853	22737.0625
1570.86999	22870.9625
1574.20922	23139.6625
1577.54624	23438.9625
1580.88103	23540.4625
1584.2136	23639.8625
1587.54395	24069.5625
1590.87208	24830.6625
1594.19801	25901.1625
1597.52172	26941.8625
1600.84321	27323.9625
1604.16251	26507.6625
1607.47959	24966.8625
1610.79447	23354.8625
1614.10715	21814.8625
1617.41763	20547.4625
1620.7259	19631.7625
1624.03199	19117.2625
1627.33587	19066.8625
1630.63757	19387.2625
1633.93707	20219.9625
1637.23439	21553.3625
1640.52951	23421.5625
1643.82246	25522.2625
1647.11321	27198.2625
1650.40179	27477.6625
1653.68819	26067.3625
1656.97241	23564.2625
1660.25446	20976.4625
1663.53433	19062.1625
1666.81203	17718.9625
1670.08756	16905.5625
1673.36092	16390.0625
1676.63211	16038.8625
1679.90115	15747.2625
1683.16801	15540.9625
1686.43272	15424.9625
1689.69527	15315.1625
1692.95567	15240.4625
1696.2139	15203.6625
1699.46999	15185.0625
1702.72392	15132.2625
1705.97571	15045.7625
1709.22535	15017.7625
1712.47284	14974.2625
1715.71819	14990.9625
1718.96139	14933.7625
1722.20246	14902.1625
1725.44139	14860.5625
1728.67818	14796.4625
1731.91284	14681.4625
1735.14537	14655.3625
1738.37576	14622.2625
1741.60403	14571.6625
1744.83017	14566.5625
1748.05418	14520.6625
1751.27607	14500.1625
1754.49584	14496.2625
1757.71349	14517.2625
1760.92903	14507.9625
1764.14244	14464.5625
1767.35375	14431.1625
1770.56294	14412.8625
1773.77002	14401.1625
1776.97499	14357.7625
1780.17785	14309.2625
1783.37861	14293.7625
1786.57727	14251.9625
1789.77382	14224.9625
1792.96828	14209.5625
1796.16064	14170.5625
1799.3509	14134.8625
1802.53907	14126.6625
1805.72514	14085.7625
1808.90913	14056.0625
1812.09102	14035.9625
1815.27083	13996.7625
1818.44856	13982.2625
1821.6242	13964.8625
1824.79776	13935.7625
1827.96924	13930.6625
1831.13864	13923.0625
1834.30597	13896.5625
1837.47122	13905.5625
1840.6344	13860.3625
1843.7955	13887.9625
1846.95454	13852.7625
1850.11151	13851.9625
1853.26642	13846.8625
1856.41926	13848.6625
1859.57004	13866.4625
1862.71876	13843.0625
1865.86542	13804.0625
1869.01003	13794.5625
1872.15258	13758.9625
1875.29308	13792.8625
1878.43152	13741.7625
1881.56792	13741.3625
1884.70227	13742.0625
1887.83457	13730.2625
1890.96482	13688.8625
1894.09304	13650.3625
1897.21921	13641.4625
1900.34335	13648.2625
1903.46544	13603.6625
1906.58551	13633.5625
1909.70353	13588.3625
1912.81953	13576.6625
1915.93349	13569.6625
1919.04543	13526.9625
1922.15534	13466.6625
1925.26322	13454.3625
1928.36908	13450.5625
1931.47292	13419.3625
1934.57473	13389.8625
1937.67453	13381.3625
1940.77232	13342.3625
1943.86808	13331.4625
1946.96184	13283.6625
1950.05358	13245.0625
1953.14331	13189.2625
1956.23103	13139.6625
1959.31675	13112.6625
1962.40046	13063.0625
1965.48217	13048.1625
1968.56188	12997.2625
1971.63959	12939.9625
1974.7153	12899.1625
1977.78901	12888.2625
1980.86073	12866.2625
1983.93046	12818.9625
1986.99819	12787.3625
1990.06394	12769.5625
1993.1277	12724.9625
1996.18947	12649.7625
1999.24925	12663.6625
2002.30706	12624.6625
2005.36288	12554.1625
2008.41672	12523.1625
2011.46859	12499.3625
2014.51848	12485.3625
2017.56639	12451.7625
2020.61233	12409.9625
2023.6563	12389.8625
2026.6983	12356.1625
2029.73833	12326.4625
2032.7764	12285.6625
2035.8125	12269.8625
2038.84664	12247.4625
2041.87881	12212.5625
2044.90903	12202.9625
2047.93729	12179.8625
2050.96359	12185.1625
2053.98794	12153.7625
2057.01034	12130.6625
2060.03078	12126.0625
2063.04927	12106.2625
2066.06582	12092.7625
2069.08042	12138.8625
2072.09307	12104.1625
2075.10378	12100.1625
2078.11255	12099.9625
2081.11938	12096.8625
2084.12426	12082.0625
2087.12722	12078.7625
2090.12824	12039.8625
2093.12732	12042.5625
2096.12447	12066.1625
2099.11969	12048.6625
2102.11299	12041.0625
2105.10435	12054.9625
2108.09379	12053.7625
2111.08131	12057.6625
2114.0669	12060.9625
2117.05057	12044.9625
2120.03233	12100.4625
2123.01216	12093.7625
2125.99008	12074.7625
2128.96609	12093.6625
2131.94018	12141.1625
2134.91236	12160.1625
2137.88263	12152.5625
2140.851	12136.4625
2143.81746	12158.9625
2146.78201	12124.9625
2149.74466	12161.9625
2152.7054	12144.5625
2155.66425	12140.5625
2158.6212	12134.5625
2161.57625	12126.3625
2164.52941	12127.2625
2167.48067	12130.2625
2170.43004	12122.7625
2173.37752	12127.1625
2176.32311	12125.8625
2179.26681	12127.8625
2182.20863	12135.4625
2185.14856	12136.9625
2188.08661	12122.2625
2191.02278	12131.2625
2193.95707	12114.0625
2196.88948	12133.2625
2199.82001	12144.8625
2202.74867	12081.2625
2205.67545	12082.6625
2208.60037	12073.2625
2211.52341	12052.1625
2214.44458	12036.3625
2217.36388	12009.2625
2220.28132	11995.8625
2223.1969	11977.1625
2226.11061	11957.1625
2229.02246	11920.0625
2231.93245	11890.8625
2234.84058	11901.6625
2237.74686	11847.4625
2240.65128	11857.4625
2243.55385	11811.1625
2246.45456	11799.6625
2249.35343	11799.9625
2252.25044	11759.2625
2255.14561	11755.3625
2258.03893	11735.9625
2260.93041	11734.9625
2263.82004	11673.7625
2266.70783	11655.2625
2269.59378	11611.5625
2272.4779	11597.8625
2275.36017	11547.9625
2278.24061	11564.1625
2281.11922	11542.1625
2283.996	11527.6625
2286.87094	11513.4625
2289.74405	11497.3625
2292.61534	11484.1625
2295.4848	11493.1625
2298.35243	11496.9625
2301.21824	11470.5625
2304.08223	11454.8625
2306.94439	11484.5625
2309.80474	11469.0625
2312.66327	11485.1625
2315.51999	11464.1625
2318.37489	11458.7625
2321.22797	11430.7625
2324.07925	11396.2625
2326.92871	11412.7625
2329.77637	11363.9625
2332.62222	11369.0625
2335.46626	11348.2625
2338.3085	11357.7625
2341.14893	11345.2625
2343.98756	11376.6625
2346.8244	11339.3625
2349.65943	11345.8625
2352.49267	11329.5625
2355.32411	11340.3625
2358.15376	11327.7625
2360.98161	11309.8625
2363.80768	11335.6625
2366.63195	11289.1625
2369.45444	11265.4625
2372.27514	11246.7625
2375.09405	11249.8625
2377.91118	11231.2625
2380.72652	11195.4625
2383.54009	11199.7625
2386.35187	11131.2625
2389.16188	11134.9625
2391.97011	11121.3625
2394.77657	11092.5625
2397.58125	11074.5625
2400.38416	11047.7625
2403.18529	11050.8625
2405.98466	11000.4625
2408.78226	10976.0625
2411.57809	10969.8625
2414.37216	10954.0625
2417.16446	10936.8625
2419.955	10925.4625
2422.74378	10926.4625
2425.5308	10924.0625
2428.31606	10926.4625
2431.09956	10927.9625
2433.88131	10902.6625
2436.6613	10898.5625
2439.43954	10893.2625
2442.21603	10873.9625
2444.99077	10869.0625
2447.76377	10881.6625
2450.53501	10865.7625
2453.30451	10841.0625
2456.07226	10813.6625
2458.83827	10855.8625
2461.60254	10856.7625
2464.36507	10831.2625
2467.12586	10813.4625
2469.88492	10818.8625
2472.64224	10802.8625
2475.39782	10813.6625
2478.15167	10796.1625
2480.90379	10788.3625
2483.65417	10812.6625
2486.40283	10818.5625
2489.14976	10822.3625
2491.89497	10823.7625
2494.63845	10806.2625
2497.3802	10814.2625
2500.12024	10803.6625
2502.85855	10778.6625
2505.59514	10823.2625
2508.33002	10759.0625
2511.06318	10754.1625
2513.79462	10727.2625
2516.52435	10726.3625
2519.25237	10727.1625
2521.97867	10697.2625
2524.70327	10684.4625
2527.42616	10693.3625
2530.14734	10700.1625
2532.86681	10705.4625
2535.58458	10665.4625
2538.30065	10675.8625
2541.01501	10690.5625
2543.72768	10671.3625
2546.43864	10634.7625
2549.14791	10615.6625
2551.85548	10624.9625
2554.56136	10607.0625
2557.26554	10577.7625
2559.96803	10536.8625
2562.66883	10552.7625
2565.36794	10539.2625
2568.06536	10509.3625
2570.7611	10488.2625
2573.45514	10461.4625
2576.14751	10470.6625
2578.83819	10448.4625
2581.52719	10447.8625
2584.21451	10445.8625
2586.90015	10431.0625
2589.58411	10416.2625
2592.2664	10411.0625
2594.94701	10393.8625
2597.62594	10398.8625
2600.30321	10385.7625
2602.9788	10394.2625
2605.65273	10345.4625
2608.32498	10339.1625
2610.99557	10324.7625
2613.66449	10339.0625
2616.33175	10327.9625
2618.99734	10315.3625
2621.66128	10310.8625
2624.32355	10300.4625
2626.98416	10309.3625
2629.64311	10293.7625
2632.30041	10269.6625
2634.95605	10267.9625
2637.61004	10257.7625
2640.26238	10255.1625
2642.91306	10221.7625
2645.56209	10260.6625
2648.20948	10237.6625
2650.85521	10237.3625
2653.4993	10226.3625
2656.14175	10209.4625
2658.78255	10212.1625
2661.42171	10206.4625
2664.05923	10246.3625
2666.6951	10258.2625
2669.32934	10255.4625
2671.96194	10219.4625
2674.59291	10212.2625
2677.22224	10221.8625
2679.84993	10233.8625
2682.476	10219.4625
2685.10043	10219.9625
2687.72324	10202.6625
2690.34441	10201.9625
2692.96396	10201.7625
2695.58188	10178.9625
2698.19818	10155.6625
2700.81285	10191.3625
2703.4259	10195.6625
2706.03733	10187.3625
2708.64714	10184.1625
2711.25533	10201.2625
2713.86191	10193.1625
2716.46687	10204.1625
2719.07021	10198.7625
2721.67194	10203.1625
2724.27206	10223.5625
2726.87057	10237.7625
2729.46747	10208.1625
2732.06276	10223.8625
2734.65644	10225.5625
2737.24852	10220.9625
2739.83899	10207.8625
2742.42786	10210.9625
2745.01513	10177.9625
2747.60079	10174.1625
2750.18486	10141.7625
2752.76733	10137.9625
2755.3482	10127.1625
2757.92747	10144.0625
2760.50515	10108.5625
2763.08123	10123.2625
2765.65573	10100.0625
2768.22863	10099.8625
2770.79994	10093.5625
2773.36967	10079.4625
2775.9378	10081.2625
2778.50435	10083.0625
2781.06932	10059.0625
2783.6327	10049.5625
2786.1945	10079.9625
2788.75471	10047.4625
2791.31335	10016.0625
2793.87041	10029.2625
2796.42589	10005.8625
2798.97979	9991.3625
2801.53212	9982.0625
2804.08288	9969.9625
2806.63206	9967.3625
2809.17967	9915.0625
2811.72571	9885.9625
2814.27018	9876.5625
2816.81308	9837.8625
2819.35442	9819.2625
2821.89419	9801.3625
2824.43239	9821.5625
2826.96904	9790.9625
2829.50412	9788.2625
2832.03763	9769.8625
2834.56959	9792.5625
2837.1	9755.3625
2839.62884	9782.2625
2842.15613	9775.1625
2844.68186	9786.4625
2847.20604	9783.8625
2849.72867	9795.2625
2852.24974	9807.7625
2854.76927	9789.8625
2857.28724	9746.1625
2859.80367	9728.0625
2862.31855	9752.1625
2864.83189	9737.0625
2867.34368	9718.0625
2869.85393	9686.5625
2872.36264	9715.3625
2874.8698	9713.6625
2877.37543	9705.8625
2879.87952	9667.4625
2882.38207	9705.1625
2884.88308	9684.0625
2887.38256	9717.8625
2889.88051	9711.2625
2892.37692	9688.6625
2894.8718	9686.0625
2897.36515	9715.7625
2899.85698	9729.8625
2902.34727	9726.1625
2904.83604	9753.2625
2907.32328	9740.3625
2909.809	9749.3625
2912.29319	9767.0625
2914.77587	9760.7625
2917.25702	9751.8625
2919.73665	9741.8625
2922.21476	9766.6625
2924.69136	9738.1625
2927.16644	9725.4625
2929.64	9719.1625
2932.11205	9728.2625
2934.58258	9685.8625
2937.05161	9751.2625
2939.51912	9720.7625
2941.98513	9689.0625
2944.44962	9674.1625
2946.91261	9629.7625
2949.37409	9659.5625
2951.83407	9649.9625
2954.29254	9638.4625
2956.74951	9625.5625
2959.20498	9627.7625
2961.65895	9605.2625
2964.11142	9621.1625
2966.56239	9589.8625
2969.01186	9600.4625
2971.45984	9565.4625
2973.90632	9567.7625
2976.35131	9532.3625
2978.7948	9532.6625
2981.23681	9512.3625
2983.67732	9490.6625
2986.11635	9473.0625
2988.55388	9461.0625
2990.98993	9430.7625
2993.4245	9413.2625
2995.85758	9382.7625
2998.28917	9377.0625
3000.71928	9342.8625
3003.14791	9332.3625
3005.57506	9340.0625
3008.00073	9315.9625
3010.42493	9323.9625
3012.84764	9301.2625
3015.26888	9291.3625
3017.68865	9234.7625
3020.10694	9264.5625
3022.52376	9213.4625
3024.9391	9223.4625
3027.35298	9221.0625
3029.76539	9214.2625
3032.17632	9191.0625
3034.5858	9205.4625
3036.9938	9231.4625
3039.40034	9186.5625
3041.80542	9196.4625
3044.20903	9173.4625
3046.61118	9167.0625
3049.01187	9133.5625
3051.4111	9152.0625
3053.80888	9130.7625
3056.20519	9101.7625
3058.60005	9092.9625
3060.99345	9066.1625
3063.3854	9065.2625
3065.7759	9037.2625
3068.16494	9032.5625
3070.55254	9007.6625
3072.93868	8995.5625
3075.32338	9002.5625
3077.70662	8965.0625
3080.08842	8962.0625
3082.46878	8930.3625
3084.84769	8938.4625
3087.22515	8929.6625
3089.60118	8931.8625
3091.97576	8945.4625
3094.3489	8936.0625
3096.72061	8915.9625
3099.09087	8943.1625
3101.4597	8931.3625
3103.82709	8925.6625
3106.19305	8928.1625
3108.55757	8918.2625
3110.92066	8917.9625
3113.28232	8893.1625
3115.64255	8868.0625
3118.00134	8864.3625
3120.35871	8863.4625
3122.71466	8853.0625
3125.06917	8807.5625
3127.42226	8787.7625
3129.77393	8798.7625
3132.12417	8780.1625
3134.47299	8791.4625
3136.82039	8784.9625
3139.16636	8791.9625
3141.51092	8792.0625
3143.85406	8819.3625
3146.19579	8803.8625
3148.53609	8782.4625
3150.87499	8813.0625
3153.21246	8825.4625
3155.54853	8851.5625
3157.88318	8846.3625
3160.21642	8842.2625
3162.54826	8832.6625
3164.87868	8821.2625
3167.2077	8856.7625
3169.5353	8849.0625
3171.86151	8869.1625
3174.18631	8844.1625
3176.5097	8830.2625
3178.83169	8845.7625
3181.15228	8849.3625
3183.47147	8829.8625
3185.78926	8821.2625
3188.10565	8831.2625
3190.42065	8803.6625
3192.73424	8800.4625
3195.04645	8781.9625
3197.35725	8795.3625
3199.66667	8764.6625
3201.97469	8810.0625
3204.28132	8817.7625
3206.58656	8850.6625
3208.8904	8803.7625
3211.19287	8815.1625
3213.49394	8810.6625
3215.79363	8837.6625
3218.09193	8853.4625
3220.38884	8831.8625
3222.68438	8842.8625
3224.97853	8841.0625
3227.2713	8828.2625
3229.56269	8809.7625
3231.8527	8803.7625
3234.14133	8814.5625
3236.42858	8809.1625
3238.71446	8777.9625
3240.99896	8762.4625
3243.28209	8775.6625
3245.56384	8757.0625
3247.84423	8762.1625
3250.12324	8728.2625
3252.40088	8724.9625
3254.67715	8702.6625
3256.95205	8677.9625
3259.22558	8710.7625
3261.49775	8684.0625
3263.76855	8680.9625
3266.03799	8657.0625
3268.30606	8672.9625
3270.57277	8666.4625
3272.83812	8633.7625
3275.10211	8621.0625
3277.36474	8597.8625
3279.62601	8619.0625
3281.88593	8593.9625
3284.14448	8602.2625
3286.40168	8586.1625
3288.65753	8597.1625
3290.91202	8592.2625
3293.16516	8567.6625
3295.41695	8555.0625
3297.66738	8519.2625
3299.91647	8475.3625
3302.16421	8400.9625
3304.4106	8368.6625
3306.65564	8318.4625
3308.89933	8277.5625
3311.14169	8213.0625
3313.38269	8154.2625
3315.62236	8086.5625
3317.86068	8030.7625
3320.09766	7988.1625
3322.3333	7930.6625
3324.5676	7897.9625
3326.80056	7746.5625
3329.03219	7689.4625
3331.26248	4.0625
3333.49143	-0.2375
3335.71905	-0.9375
