Data from AgNP_FTO_APTES_UA_10uM_CRN_2uM_R6G_10uM_NaF_0.1M_Addition_RamanShift__13__14-12-00-593.txt Node

Date: Thu Feb 10 14:12:00 GMT 2022
User: TCL
Spectrometer: QEP01345
Trigger mode: 4
Integration Time (sec): 7.000000E0
Scans to average: 10
Electric dark correction enabled: true
Nonlinearity correction enabled: false
Boxcar width: 0
XAxis mode: Raman Shifts
Number of Pixels in Spectrum: 1044
>>>>>Begin Spectral Data<<<<<
46.04893	0.4625
50.45542	0.2625
54.85868	-2.7375
59.25871	-1.0375
63.6555	69.8625
68.04907	67.6625
72.43941	75.0625
76.82654	76.0625
81.21044	82.0625
85.59113	79.8625
89.96862	85.6625
94.34289	88.6625
98.71396	90.9625
103.08183	92.0625
107.4465	99.2625
111.80798	96.6625
116.16626	100.5625
120.52136	103.7625
124.87327	110.4625
129.222	113.8625
133.56755	125.8625
137.90993	131.6625
142.24913	142.1625
146.58517	163.1625
150.91804	188.9625
155.24774	226.9625
159.57429	283.5625
163.89768	366.8625
168.21792	485.9625
172.53501	660.0625
176.84895	926.7625
181.15975	1311.5625
185.46741	1835.8625
189.77193	2554.0625
194.07331	3406.7625
198.37157	4417.6625
202.6667	5472.3625
206.9587	6502.5625
211.24758	7527.1625
215.53334	8544.7625
219.81599	9608.6625
224.09553	10781.0625
228.37195	12093.6625
232.64527	13523.5625
236.91549	15040.1625
241.18261	16585.0625
245.44663	17985.7625
249.70755	19262.0625
253.96539	20417.4625
258.22014	21291.7625
262.4718	22044.3625
266.72039	22547.2625
270.96589	22833.3625
275.20832	22865.7625
279.44768	22726.6625
283.68397	22553.6625
287.91719	22391.2625
292.14735	22274.4625
296.37445	22276.9625
300.59849	22395.4625
304.81948	22505.9625
309.03742	22526.6625
313.25231	22339.7625
317.46415	21935.2625
321.67296	21356.9625
325.87872	20846.0625
330.08145	20626.0625
334.28114	20603.5625
338.47781	20758.3625
342.67145	21000.9625
346.86207	21344.4625
351.04966	21713.1625
355.23424	22077.8625
359.4158	22399.3625
363.59435	22564.6625
367.76989	22775.2625
371.94243	22841.6625
376.11196	22899.3625
380.27849	22851.0625
384.44203	22968.2625
388.60257	23078.4625
392.76012	23304.2625
396.91468	23640.9625
401.06626	23979.2625
405.21485	24272.0625
409.36047	24120.3625
413.50311	23708.1625
417.64277	23448.8625
421.77947	23356.0625
425.9132	23392.1625
430.04396	23553.5625
434.17176	23607.6625
438.2966	23704.7625
442.41849	23901.2625
446.53742	24317.6625
450.6534	24788.8625
454.76644	25142.0625
458.87653	25281.3625
462.98368	25369.9625
467.08789	25291.5625
471.18916	25081.4625
475.2875	24830.8625
479.38291	24708.1625
483.4754	24600.3625
487.56496	24450.4625
491.6516	24176.1625
495.73531	23854.7625
499.81612	23700.0625
503.89401	23736.1625
507.96899	23841.4625
512.04106	23898.5625
516.11023	23896.9625
520.1765	23785.0625
524.23987	23594.3625
528.30034	23372.2625
532.35792	23186.8625
536.41261	22981.2625
540.46441	22770.3625
544.51333	22731.8625
548.55936	22960.5625
552.60252	23368.6625
556.64279	23785.1625
560.6802	24135.7625
564.71473	24400.0625
568.7464	24792.4625
572.7752	25513.5625
576.80114	26314.3625
580.82422	26998.1625
584.84444	27407.6625
588.86181	27759.4625
592.87633	28042.6625
596.888	27889.3625
600.89682	27387.5625
604.9028	27593.7625
608.90594	29348.3625
612.90624	31367.8625
616.90371	29662.0625
620.89834	25474.0625
624.89015	23631.1625
628.87913	23458.4625
632.86528	23656.7625
636.84862	23790.7625
640.82913	23490.2625
644.80683	22965.9625
648.78172	22544.5625
652.75379	22431.0625
656.72306	22646.4625
660.68952	23014.3625
664.65319	22945.5625
668.61405	22618.1625
672.57211	22553.2625
676.52738	22571.0625
680.47986	22513.4625
684.42955	22359.1625
688.37646	22290.2625
692.32058	22388.5625
696.26192	22573.8625
700.20048	22830.0625
704.13626	22996.1625
708.06928	23132.2625
711.99952	23062.0625
715.927	22956.6625
719.85171	22880.9625
723.77365	22786.2625
727.69284	22496.7625
731.60928	22281.7625
735.52295	22159.6625
739.43388	22142.4625
743.34206	22163.2625
747.24749	22242.4625
751.15017	22441.7625
755.05012	22791.8625
758.94733	23406.8625
762.8418	24525.6625
766.73354	26273.1625
770.62254	27766.9625
774.50882	28048.8625
778.39237	26944.0625
782.27321	25317.7625
786.15132	23906.1625
790.02671	22972.2625
793.89938	22472.4625
797.76935	22200.4625
801.6366	22077.2625
805.50115	21943.0625
809.36299	21874.9625
813.22213	21753.8625
817.07857	21747.0625
820.93231	21719.4625
824.78336	21641.5625
828.63172	21601.8625
832.47738	21572.9625
836.32036	21520.6625
840.16066	21456.7625
843.99827	21418.1625
847.8332	21430.9625
851.66546	21462.1625
855.49504	21556.7625
859.32195	21542.0625
863.1462	21481.3625
866.96777	21421.3625
870.78668	21429.2625
874.60293	21468.8625
878.41652	21498.1625
882.22745	21548.5625
886.03573	21580.8625
889.84136	21583.3625
893.64433	21558.8625
897.44466	21505.7625
901.24235	21489.2625
905.0374	21442.0625
908.8298	21393.4625
912.61957	21452.0625
916.40671	21595.0625
920.19121	21811.6625
923.97308	21970.5625
927.75233	21998.1625
931.52895	21786.3625
935.30295	21503.4625
939.07433	21153.5625
942.84309	20898.7625
946.60924	20716.8625
950.37278	20659.5625
954.13371	20619.7625
957.89203	20587.7625
961.64774	20590.2625
965.40086	20564.3625
969.15137	20515.1625
972.89929	20456.8625
976.64461	20439.9625
980.38733	20336.5625
984.12747	20349.3625
987.86502	20413.4625
991.59999	20476.0625
995.33237	20557.2625
999.06217	20802.7625
1002.78939	21060.9625
1006.51404	21385.6625
1010.23611	21682.6625
1013.95561	21917.5625
1017.67255	21931.6625
1021.38692	21818.4625
1025.09872	21568.5625
1028.80796	21333.3625
1032.51465	21168.8625
1036.21877	21164.1625
1039.92035	21269.5625
1043.61937	21368.3625
1047.31584	21424.9625
1051.00976	21489.1625
1054.70114	21610.0625
1058.38998	21781.2625
1062.07627	21956.6625
1065.76003	22256.7625
1069.44126	22513.6625
1073.11995	22854.4625
1076.79611	23188.0625
1080.46974	23322.1625
1084.14085	23462.0625
1087.80943	23626.5625
1091.47549	23846.5625
1095.13903	23876.7625
1098.80005	23630.5625
1102.45857	23174.8625
1106.11456	22745.8625
1109.76805	22507.4625
1113.41903	22427.0625
1117.06751	22515.4625
1120.71348	22726.4625
1124.35696	22994.7625
1127.99793	23312.3625
1131.63641	23506.6625
1135.2724	23341.3625
1138.90589	23177.9625
1142.5369	23161.8625
1146.16542	23149.9625
1149.79145	23264.3625
1153.415	23426.5625
1157.03607	23671.0625
1160.65467	24166.0625
1164.27079	24904.6625
1167.88443	25923.3625
1171.49561	27184.7625
1175.10432	28762.0625
1178.71056	30743.7625
1182.31434	32563.6625
1185.91565	33577.5625
1189.51451	33896.9625
1193.11091	33518.3625
1196.70485	32520.9625
1200.29634	31263.4625
1203.88538	30207.1625
1207.47197	29459.1625
1211.05612	28948.8625
1214.63782	28423.3625
1218.21708	27700.3625
1221.79391	27021.5625
1225.36829	26506.9625
1228.94024	26215.0625
1232.50976	26060.7625
1236.07685	25932.3625
1239.6415	25879.5625
1243.20374	25845.0625
1246.76355	25924.3625
1250.32093	26146.9625
1253.8759	26534.8625
1257.42845	27123.0625
1260.97859	27835.9625
1264.52631	28585.6625
1268.07163	29295.4625
1271.61453	29954.7625
1275.15503	30568.6625
1278.69312	31260.6625
1282.22882	31874.9625
1285.76211	32648.2625
1289.29301	33575.4625
1292.82151	34699.0625
1296.34761	35997.4625
1299.87133	37559.4625
1303.39266	39223.6625
1306.9116	40821.1625
1310.42815	42261.7625
1313.94233	42995.3625
1317.45412	42711.0625
1320.96354	42216.1625
1324.47058	41806.7625
1327.97525	41607.3625
1331.47754	41447.7625
1334.97747	41505.6625
1338.47502	41637.0625
1341.97022	41969.8625
1345.46305	42390.6625
1348.95352	42604.1625
1352.44163	42551.2625
1355.92738	42521.1625
1359.41078	42986.3625
1362.89183	43655.6625
1366.37053	42735.8625
1369.84688	39710.4625
1373.32088	36147.7625
1376.79254	33670.8625
1380.26186	32551.5625
1383.72883	32158.3625
1387.19347	32049.5625
1390.65578	31766.0625
1394.11575	31549.7625
1397.57339	31407.2625
1401.0287	31449.3625
1404.48168	31476.9625
1407.93234	31225.1625
1411.38068	30707.3625
1414.82669	29960.5625
1418.27039	29048.9625
1421.71177	28218.2625
1425.15083	27523.3625
1428.58758	27167.4625
1432.02203	27364.4625
1435.45416	27870.2625
1438.88399	28369.6625
1442.31151	28757.7625
1445.73673	29142.9625
1449.15965	29489.8625
1452.58027	29777.6625
1455.9986	30024.9625
1459.41463	30330.7625
1462.82837	30687.9625
1466.23982	31116.8625
1469.64898	31516.7625
1473.05586	31655.6625
1476.46045	31701.2625
1479.86276	31598.1625
1483.26279	31577.6625
1486.66054	31683.4625
1490.05602	32024.9625
1493.44922	32633.7625
1496.84016	33661.2625
1500.22882	35063.3625
1503.61521	36789.9625
1506.99934	38602.0625
1510.38121	39725.4625
1513.76081	39747.3625
1517.13816	38592.9625
1520.51324	36971.8625
1523.88607	35595.9625
1527.25665	34835.9625
1530.62498	34448.4625
1533.99105	34046.6625
1537.35488	33445.6625
1540.71647	32725.4625
1544.07581	31759.7625
1547.4329	30937.3625
1550.78776	30410.1625
1554.14038	30040.7625
1557.49077	29933.3625
1560.83892	29880.2625
1564.18484	30012.8625
1567.52853	30173.9625
1570.86999	30440.0625
1574.20922	30921.5625
1577.54624	31224.9625
1580.88103	31069.5625
1584.2136	30781.0625
1587.54395	30982.2625
1590.87208	31590.2625
1594.19801	32718.0625
1597.52172	33901.1625
1600.84321	34043.0625
1604.16251	33071.7625
1607.47959	31414.9625
1610.79447	29609.7625
1614.10715	27759.5625
1617.41763	26038.5625
1620.7259	24711.7625
1624.03199	24004.2625
1627.33587	23850.6625
1630.63757	24315.6625
1633.93707	25533.7625
1637.23439	27669.4625
1640.52951	30704.8625
1643.82246	34287.7625
1647.11321	37454.9625
1650.40179	38449.3625
1653.68819	36549.7625
1656.97241	32492.2625
1660.25446	28243.4625
1663.53433	24922.3625
1666.81203	22760.1625
1670.08756	21360.3625
1673.36092	20492.6625
1676.63211	19936.8625
1679.90115	19582.5625
1683.16801	19238.7625
1686.43272	19032.0625
1689.69527	18852.0625
1692.95567	18723.5625
1696.2139	18638.0625
1699.46999	18590.5625
1702.72392	18486.5625
1705.97571	18422.7625
1709.22535	18400.7625
1712.47284	18330.8625
1715.71819	18313.9625
1718.96139	18245.6625
1722.20246	18184.3625
1725.44139	18095.7625
1728.67818	18000.7625
1731.91284	17901.2625
1735.14537	17793.8625
1738.37576	17746.0625
1741.60403	17656.2625
1744.83017	17610.4625
1748.05418	17534.8625
1751.27607	17508.9625
1754.49584	17476.0625
1757.71349	17440.0625
1760.92903	17432.6625
1764.14244	17417.7625
1767.35375	17384.8625
1770.56294	17372.6625
1773.77002	17351.3625
1776.97499	17303.6625
1780.17785	17232.1625
1783.37861	17203.9625
1786.57727	17164.0625
1789.77382	17105.0625
1792.96828	17108.9625
1796.16064	17054.3625
1799.3509	17005.1625
1802.53907	16988.6625
1805.72514	16913.1625
1808.90913	16866.8625
1812.09102	16837.5625
1815.27083	16799.4625
1818.44856	16792.0625
1821.6242	16744.9625
1824.79776	16720.2625
1827.96924	16706.1625
1831.13864	16710.7625
1834.30597	16714.0625
1837.47122	16661.2625
1840.6344	16667.8625
1843.7955	16669.2625
1846.95454	16687.2625
1850.11151	16659.4625
1853.26642	16643.9625
1856.41926	16630.6625
1859.57004	16632.1625
1862.71876	16609.0625
1865.86542	16567.6625
1869.01003	16529.4625
1872.15258	16504.1625
1875.29308	16462.3625
1878.43152	16413.5625
1881.56792	16383.9625
1884.70227	16371.3625
1887.83457	16338.7625
1890.96482	16303.7625
1894.09304	16246.6625
1897.21921	16214.0625
1900.34335	16204.7625
1903.46544	16193.2625
1906.58551	16175.1625
1909.70353	16156.4625
1912.81953	16110.3625
1915.93349	16076.4625
1919.04543	16055.8625
1922.15534	16017.2625
1925.26322	15988.9625
1928.36908	15948.5625
1931.47292	15926.0625
1934.57473	15874.3625
1937.67453	15846.4625
1940.77232	15802.5625
1943.86808	15729.6625
1946.96184	15669.9625
1950.05358	15673.4625
1953.14331	15591.1625
1956.23103	15556.4625
1959.31675	15518.4625
1962.40046	15429.1625
1965.48217	15390.0625
1968.56188	15367.8625
1971.63959	15297.3625
1974.7153	15289.9625
1977.78901	15202.5625
1980.86073	15179.7625
1983.93046	15106.4625
1986.99819	15046.5625
1990.06394	15012.4625
1993.1277	14980.6625
1996.18947	14933.7625
1999.24925	14879.5625
2002.30706	14816.4625
2005.36288	14731.4625
2008.41672	14700.1625
2011.46859	14672.1625
2014.51848	14639.4625
2017.56639	14615.0625
2020.61233	14560.4625
2023.6563	14542.3625
2026.6983	14516.4625
2029.73833	14445.6625
2032.7764	14405.0625
2035.8125	14375.1625
2038.84664	14318.9625
2041.87881	14259.8625
2044.90903	14246.6625
2047.93729	14234.7625
2050.96359	14222.7625
2053.98794	14178.5625
2057.01034	14144.9625
2060.03078	14108.9625
2063.04927	14122.1625
2066.06582	14123.0625
2069.08042	14118.2625
2072.09307	14127.9625
2075.10378	14121.7625
2078.11255	14067.4625
2081.11938	14060.8625
2084.12426	14046.7625
2087.12722	14053.8625
2090.12824	14035.9625
2093.12732	14039.6625
2096.12447	14014.4625
2099.11969	14002.3625
2102.11299	14004.5625
2105.10435	14020.8625
2108.09379	14025.4625
2111.08131	14026.2625
2114.0669	14024.8625
2117.05057	14042.0625
2120.03233	14054.1625
2123.01216	14075.6625
2125.99008	14075.7625
2128.96609	14074.3625
2131.94018	14086.2625
2134.91236	14067.8625
2137.88263	14087.4625
2140.851	14112.2625
2143.81746	14114.7625
2146.78201	14084.2625
2149.74466	14085.9625
2152.7054	14072.6625
2155.66425	14069.0625
2158.6212	14031.0625
2161.57625	14036.1625
2164.52941	14027.5625
2167.48067	14021.9625
2170.43004	14009.9625
2173.37752	13988.9625
2176.32311	13964.8625
2179.26681	13985.0625
2182.20863	13977.6625
2185.14856	13961.0625
2188.08661	13962.3625
2191.02278	13973.4625
2193.95707	13942.6625
2196.88948	13914.8625
2199.82001	13896.9625
2202.74867	13876.7625
2205.67545	13858.7625
2208.60037	13842.3625
2211.52341	13841.3625
2214.44458	13829.0625
2217.36388	13774.8625
2220.28132	13747.0625
2223.1969	13705.1625
2226.11061	13692.3625
2229.02246	13671.9625
2231.93245	13641.4625
2234.84058	13604.5625
2237.74686	13598.6625
2240.65128	13611.9625
2243.55385	13582.8625
2246.45456	13568.4625
2249.35343	13491.2625
2252.25044	13470.3625
2255.14561	13481.2625
2258.03893	13452.2625
2260.93041	13426.7625
2263.82004	13393.4625
2266.70783	13351.1625
2269.59378	13265.9625
2272.4779	13253.6625
2275.36017	13214.9625
2278.24061	13194.2625
2281.11922	13182.4625
2283.996	13154.8625
2286.87094	13106.7625
2289.74405	13103.5625
2292.61534	13086.9625
2295.4848	13089.9625
2298.35243	13087.3625
2301.21824	13041.5625
2304.08223	13035.1625
2306.94439	13015.3625
2309.80474	12987.1625
2312.66327	12992.4625
2315.51999	12983.3625
2318.37489	12972.3625
2321.22797	12957.0625
2324.07925	12904.2625
2326.92871	12902.0625
2329.77637	12908.0625
2332.62222	12868.4625
2335.46626	12846.0625
2338.3085	12832.9625
2341.14893	12818.2625
2343.98756	12837.3625
2346.8244	12810.8625
2349.65943	12767.5625
2352.49267	12751.6625
2355.32411	12785.0625
2358.15376	12777.8625
2360.98161	12776.9625
2363.80768	12767.9625
2366.63195	12772.1625
2369.45444	12750.1625
2372.27514	12742.7625
2375.09405	12742.6625
2377.91118	12722.3625
2380.72652	12648.8625
2383.54009	12637.4625
2386.35187	12598.4625
2389.16188	12568.9625
2391.97011	12539.9625
2394.77657	12522.8625
2397.58125	12473.2625
2400.38416	12454.2625
2403.18529	12435.3625
2405.98466	12425.3625
2408.78226	12391.7625
2411.57809	12365.7625
2414.37216	12370.9625
2417.16446	12357.8625
2419.955	12315.5625
2422.74378	12316.8625
2425.5308	12307.8625
2428.31606	12325.5625
2431.09956	12305.4625
2433.88131	12297.0625
2436.6613	12276.7625
2439.43954	12291.7625
2442.21603	12288.0625
2444.99077	12257.0625
2447.76377	12239.9625
2450.53501	12229.5625
2453.30451	12196.3625
2456.07226	12200.6625
2458.83827	12202.8625
2461.60254	12168.6625
2464.36507	12161.9625
2467.12586	12165.5625
2469.88492	12164.1625
2472.64224	12172.4625
2475.39782	12161.7625
2478.15167	12163.9625
2480.90379	12150.5625
2483.65417	12128.4625
2486.40283	12161.0625
2489.14976	12145.1625
2491.89497	12116.1625
2494.63845	12137.6625
2497.3802	12113.0625
2500.12024	12111.6625
2502.85855	12062.9625
2505.59514	12072.7625
2508.33002	12061.3625
2511.06318	12033.8625
2513.79462	12024.6625
2516.52435	12007.1625
2519.25237	12001.5625
2521.97867	11950.8625
2524.70327	11935.9625
2527.42616	11938.3625
2530.14734	11967.1625
2532.86681	11927.7625
2535.58458	11903.1625
2538.30065	11877.1625
2541.01501	11896.9625
2543.72768	11857.2625
2546.43864	11842.3625
2549.14791	11861.8625
2551.85548	11822.1625
2554.56136	11798.6625
2557.26554	11768.0625
2559.96803	11743.5625
2562.66883	11743.6625
2565.36794	11729.3625
2568.06536	11704.7625
2570.7611	11662.1625
2573.45514	11679.8625
2576.14751	11658.0625
2578.83819	11606.1625
2581.52719	11610.9625
2584.21451	11559.3625
2586.90015	11562.1625
2589.58411	11543.4625
2592.2664	11561.0625
2594.94701	11510.9625
2597.62594	11497.5625
2600.30321	11465.4625
2602.9788	11466.4625
2605.65273	11434.8625
2608.32498	11481.0625
2610.99557	11439.4625
2613.66449	11428.6625
2616.33175	11401.8625
2618.99734	11426.9625
2621.66128	11426.2625
2624.32355	11384.5625
2626.98416	11362.9625
2629.64311	11368.5625
2632.30041	11345.9625
2634.95605	11335.5625
2637.61004	11297.6625
2640.26238	11291.0625
2642.91306	11311.2625
2645.56209	11310.3625
2648.20948	11319.3625
2650.85521	11301.2625
2653.4993	11292.0625
2656.14175	11255.7625
2658.78255	11304.0625
2661.42171	11279.1625
2664.05923	11305.2625
2666.6951	11301.4625
2669.32934	11297.3625
2671.96194	11307.2625
2674.59291	11286.4625
2677.22224	11295.2625
2679.84993	11307.4625
2682.476	11266.3625
2685.10043	11278.5625
2687.72324	11280.3625
2690.34441	11270.3625
2692.96396	11293.8625
2695.58188	11293.4625
2698.19818	11253.4625
2700.81285	11261.4625
2703.4259	11262.4625
2706.03733	11270.5625
2708.64714	11252.2625
2711.25533	11293.6625
2713.86191	11267.4625
2716.46687	11269.9625
2719.07021	11283.1625
2721.67194	11291.8625
2724.27206	11298.2625
2726.87057	11291.0625
2729.46747	11275.9625
2732.06276	11294.9625
2734.65644	11258.1625
2737.24852	11281.3625
2739.83899	11256.8625
2742.42786	11237.1625
2745.01513	11219.8625
2747.60079	11198.7625
2750.18486	11190.1625
2752.76733	11171.5625
2755.3482	11184.2625
2757.92747	11186.4625
2760.50515	11151.6625
2763.08123	11135.2625
2765.65573	11115.7625
2768.22863	11126.3625
2770.79994	11107.5625
2773.36967	11090.6625
2775.9378	11048.3625
2778.50435	11061.3625
2781.06932	11060.1625
2783.6327	11058.3625
2786.1945	11039.2625
2788.75471	11036.2625
2791.31335	11011.9625
2793.87041	10990.3625
2796.42589	10992.2625
2798.97979	10972.2625
2801.53212	10937.5625
2804.08288	10967.4625
2806.63206	10915.1625
2809.17967	10884.2625
2811.72571	10868.4625
2814.27018	10865.8625
2816.81308	10803.8625
2819.35442	10786.2625
2821.89419	10747.9625
2824.43239	10758.3625
2826.96904	10717.6625
2829.50412	10731.2625
2832.03763	10700.6625
2834.56959	10729.6625
2837.1	10675.0625
2839.62884	10689.7625
2842.15613	10672.9625
2844.68186	10717.3625
2847.20604	10718.6625
2849.72867	10717.8625
2852.24974	10705.4625
2854.76927	10669.7625
2857.28724	10664.1625
2859.80367	10644.8625
2862.31855	10609.2625
2864.83189	10598.2625
2867.34368	10561.5625
2869.85393	10570.7625
2872.36264	10585.4625
2874.8698	10564.4625
2877.37543	10563.1625
2879.87952	10540.0625
2882.38207	10518.2625
2884.88308	10522.7625
2887.38256	10538.4625
2889.88051	10506.0625
2892.37692	10518.9625
2894.8718	10489.9625
2897.36515	10529.5625
2899.85698	10517.2625
2902.34727	10553.9625
2904.83604	10537.8625
2907.32328	10574.6625
2909.809	10567.4625
2912.29319	10541.7625
2914.77587	10524.4625
2917.25702	10518.4625
2919.73665	10520.8625
2922.21476	10524.9625
2924.69136	10472.4625
2927.16644	10498.2625
2929.64	10491.6625
2932.11205	10492.6625
2934.58258	10433.4625
2937.05161	10455.5625
2939.51912	10429.0625
2941.98513	10404.7625
2944.44962	10407.8625
2946.91261	10368.4625
2949.37409	10395.6625
2951.83407	10364.7625
2954.29254	10338.9625
2956.74951	10341.3625
2959.20498	10346.3625
2961.65895	10322.1625
2964.11142	10331.2625
2966.56239	10313.0625
2969.01186	10323.2625
2971.45984	10309.4625
2973.90632	10278.7625
2976.35131	10256.7625
2978.7948	10247.6625
2981.23681	10224.5625
2983.67732	10214.4625
2986.11635	10169.5625
2988.55388	10150.6625
2990.98993	10124.8625
2993.4245	10098.4625
2995.85758	10074.0625
2998.28917	10053.8625
3000.71928	10056.0625
3003.14791	10010.1625
3005.57506	10017.9625
3008.00073	9960.2625
3010.42493	9813.5625
3012.84764	9928.8625
3015.26888	9886.0625
3017.68865	9873.5625
3020.10694	9858.8625
3022.52376	9819.9625
3024.9391	9829.8625
3027.35298	9806.4625
3029.76539	9812.1625
3032.17632	9829.3625
3034.5858	9776.2625
3036.9938	9754.9625
3039.40034	9761.4625
3041.80542	9757.0625
3044.20903	9730.6625
3046.61118	9745.4625
3049.01187	9704.3625
3051.4111	9713.0625
3053.80888	9663.3625
3056.20519	9639.3625
3058.60005	9639.6625
3060.99345	9637.1625
3063.3854	9594.8625
3065.7759	9567.7625
3068.16494	9529.3625
3070.55254	9492.5625
3072.93868	9467.4625
3075.32338	9441.9625
3077.70662	9448.8625
3080.08842	9389.3625
3082.46878	9402.1625
3084.84769	9375.2625
3087.22515	9360.3625
3089.60118	9368.3625
3091.97576	9350.5625
3094.3489	9363.4625
3096.72061	9368.8625
3099.09087	9349.0625
3101.4597	9328.1625
3103.82709	9341.4625
3106.19305	9317.7625
3108.55757	9311.1625
3110.92066	9304.8625
3113.28232	9281.4625
3115.64255	9226.9625
3118.00134	9238.4625
3120.35871	9226.7625
3122.71466	9192.4625
3125.06917	9169.7625
3127.42226	9158.4625
3129.77393	9143.8625
3132.12417	9119.9625
3134.47299	9119.6625
3136.82039	9121.3625
3139.16636	9137.8625
3141.51092	9116.2625
3143.85406	9100.5625
3146.19579	9087.6625
3148.53609	9094.8625
3150.87499	9110.5625
3153.21246	9114.3625
3155.54853	9094.7625
3157.88318	9106.3625
3160.21642	9135.2625
3162.54826	9119.1625
3164.87868	9134.9625
3167.2077	9098.9625
3169.5353	9128.9625
3171.86151	9114.0625
3174.18631	9109.2625
3176.5097	9091.3625
3178.83169	9078.8625
3181.15228	9064.7625
3183.47147	9039.9625
3185.78926	9018.1625
3188.10565	9010.0625
3190.42065	8997.7625
3192.73424	8975.3625
3195.04645	8977.1625
3197.35725	8999.5625
3199.66667	8983.3625
3201.97469	8977.8625
3204.28132	8986.5625
3206.58656	8994.9625
3208.8904	8995.7625
3211.19287	8989.5625
3213.49394	8957.9625
3215.79363	8983.5625
3218.09193	8984.9625
3220.38884	8983.7625
3222.68438	8970.5625
3224.97853	8953.1625
3227.2713	8963.1625
3229.56269	8946.4625
3231.8527	8931.2625
3234.14133	8906.5625
3236.42858	8896.2625
3238.71446	8888.3625
3240.99896	8859.6625
3243.28209	8848.7625
3245.56384	8830.2625
3247.84423	8832.0625
3250.12324	8803.9625
3252.40088	8791.1625
3254.67715	8774.5625
3256.95205	8745.7625
3259.22558	8750.1625
3261.49775	8738.3625
3263.76855	8747.9625
3266.03799	8717.8625
3268.30606	8704.4625
3270.57277	8693.4625
3272.83812	8666.9625
3275.10211	8650.0625
3277.36474	8640.3625
3279.62601	8635.9625
3281.88593	8598.7625
3284.14448	8623.0625
3286.40168	8603.4625
3288.65753	8614.7625
3290.91202	8620.4625
3293.16516	8594.1625
3295.41695	8569.4625
3297.66738	8519.1625
3299.91647	8470.7625
3302.16421	8390.9625
3304.4106	8344.1625
3306.65564	8316.1625
3308.89933	8249.3625
3311.14169	8201.7625
3313.38269	8103.3625
3315.62236	8070.5625
3317.86068	7983.0625
3320.09766	7925.5625
3322.3333	7866.8625
3324.5676	7819.8625
3326.80056	7691.6625
3329.03219	7645.1625
3331.26248	3.1625
3333.49143	-0.5375
3335.71905	0.0625
