Data from AgNP_FTO_APTES_UA_10uM_CRN_100uM_R6G_10uM_NaF_0.1M_Addition_RamanShift__14__17-40-50-851.txt Node

Date: Thu Feb 10 17:40:50 GMT 2022
User: TCL
Spectrometer: QEP01345
Trigger mode: 4
Integration Time (sec): 7.000000E0
Scans to average: 10
Electric dark correction enabled: true
Nonlinearity correction enabled: false
Boxcar width: 0
XAxis mode: Raman Shifts
Number of Pixels in Spectrum: 1044
>>>>>Begin Spectral Data<<<<<
46.04893	0.6625
50.45542	-1.2375
54.85868	-2.3375
59.25871	-1.3375
63.6555	59.1625
68.04907	59.4625
72.43941	65.3625
76.82654	64.7625
81.21044	72.6625
85.59113	69.7625
89.96862	75.7625
94.34289	76.4625
98.71396	83.4625
103.08183	84.6625
107.4465	84.2625
111.80798	83.3625
116.16626	89.2625
120.52136	91.6625
124.87327	94.3625
129.222	99.2625
133.56755	106.0625
137.90993	109.0625
142.24913	116.0625
146.58517	130.1625
150.91804	152.1625
155.24774	175.1625
159.57429	222.3625
163.89768	273.5625
168.21792	367.4625
172.53501	498.3625
176.84895	698.7625
181.15975	982.5625
185.46741	1375.6625
189.77193	1906.3625
194.07331	2555.3625
198.37157	3284.8625
202.6667	4081.8625
206.9587	4838.1625
211.24758	5571.5625
215.53334	6326.9625
219.81599	7091.4625
224.09553	7945.0625
228.37195	8875.7625
232.64527	9921.3625
236.91549	11046.0625
241.18261	12174.7625
245.44663	13296.0625
249.70755	14295.0625
253.96539	15157.8625
258.22014	15960.3625
262.4718	16591.5625
266.72039	17042.7625
270.96589	17288.8625
275.20832	17371.8625
279.44768	17316.5625
283.68397	17202.8625
287.91719	17068.4625
292.14735	16952.5625
296.37445	16936.5625
300.59849	16909.2625
304.81948	16903.3625
309.03742	16799.9625
313.25231	16574.3625
317.46415	16257.8625
321.67296	15890.6625
325.87872	15627.2625
330.08145	15524.1625
334.28114	15528.7625
338.47781	15682.6625
342.67145	15871.5625
346.86207	16083.0625
351.04966	16314.9625
355.23424	16583.1625
359.4158	16796.8625
363.59435	16977.5625
367.76989	17131.6625
371.94243	17224.1625
376.11196	17384.6625
380.27849	17486.5625
384.44203	17619.6625
388.60257	17708.1625
392.76012	17853.9625
396.91468	18019.6625
401.06626	18246.6625
405.21485	18373.2625
409.36047	18354.9625
413.50311	18180.6625
417.64277	18057.4625
421.77947	18035.1625
425.9132	18137.6625
430.04396	18211.6625
434.17176	18271.6625
438.2966	18429.9625
442.41849	18671.3625
446.53742	18969.4625
450.6534	19300.8625
454.76644	19632.0625
458.87653	19820.2625
462.98368	19811.5625
467.08789	19745.0625
471.18916	19659.1625
475.2875	19575.5625
479.38291	19528.5625
483.4754	19451.5625
487.56496	19263.9625
491.6516	18984.4625
495.73531	18786.5625
499.81612	18676.7625
503.89401	18758.4625
507.96899	18771.5625
512.04106	18766.7625
516.11023	18755.4625
520.1765	18662.5625
524.23987	18540.2625
528.30034	18444.2625
532.35792	18354.7625
536.41261	18217.1625
540.46441	18151.4625
544.51333	18202.8625
548.55936	18403.6625
552.60252	18648.1625
556.64279	18957.4625
560.6802	19112.1625
564.71473	19168.9625
568.7464	19348.4625
572.7752	19625.7625
576.80114	19817.8625
580.82422	19977.2625
584.84444	20122.2625
588.86181	20257.8625
592.87633	20317.3625
596.888	20345.5625
600.89682	20435.9625
604.9028	20866.9625
608.90594	22030.5625
612.90624	23166.0625
616.90371	22174.5625
620.89834	19816.7625
624.89015	18856.8625
628.87913	18821.6625
632.86528	18859.4625
636.84862	18803.7625
640.82913	18610.7625
644.80683	18348.8625
648.78172	18129.3625
652.75379	18076.4625
656.72306	18177.4625
660.68952	18351.7625
664.65319	18327.8625
668.61405	18166.6625
672.57211	18114.3625
676.52738	18141.8625
680.47986	18151.8625
684.42955	18157.8625
688.37646	18093.2625
692.32058	18157.3625
696.26192	18271.9625
700.20048	18363.6625
704.13626	18477.8625
708.06928	18488.1625
711.99952	18360.5625
715.927	18378.7625
719.85171	18316.5625
723.77365	18320.8625
727.69284	18224.8625
731.60928	18085.6625
735.52295	18075.1625
739.43388	18077.5625
743.34206	18055.5625
747.24749	18124.9625
751.15017	18211.0625
755.05012	18388.1625
758.94733	18731.0625
762.8418	19360.3625
766.73354	20271.1625
770.62254	21095.5625
774.50882	21369.8625
778.39237	20732.7625
782.27321	19692.0625
786.15132	18850.1625
790.02671	18349.9625
793.89938	18091.0625
797.76935	17966.5625
801.6366	17978.5625
805.50115	17914.0625
809.36299	17838.8625
813.22213	17761.0625
817.07857	17764.5625
820.93231	17715.2625
824.78336	17674.5625
828.63172	17690.7625
832.47738	17685.7625
836.32036	17670.2625
840.16066	17700.0625
843.99827	17755.5625
847.8332	17724.0625
851.66546	17679.9625
855.49504	17670.5625
859.32195	17734.3625
863.1462	17684.4625
866.96777	17665.1625
870.78668	17593.8625
874.60293	17625.6625
878.41652	17606.4625
882.22745	17657.5625
886.03573	17651.6625
889.84136	17634.0625
893.64433	17591.5625
897.44466	17578.0625
901.24235	17510.8625
905.0374	17475.8625
908.8298	17420.7625
912.61957	17481.3625
916.40671	17583.5625
920.19121	17727.4625
923.97308	17818.1625
927.75233	17786.9625
931.52895	17719.2625
935.30295	17617.1625
939.07433	17417.2625
942.84309	17275.0625
946.60924	17158.9625
950.37278	17131.3625
954.13371	17078.3625
957.89203	17028.8625
961.64774	16968.4625
965.40086	16924.6625
969.15137	16905.0625
972.89929	16828.5625
976.64461	16814.6625
980.38733	16832.2625
984.12747	16877.3625
987.86502	17010.3625
991.59999	17124.4625
995.33237	17279.5625
999.06217	17603.8625
1002.78939	17884.2625
1006.51404	18012.5625
1010.23611	18046.3625
1013.95561	18098.9625
1017.67255	18123.8625
1021.38692	18063.7625
1025.09872	17984.4625
1028.80796	18043.8625
1032.51465	18370.9625
1036.21877	18654.6625
1039.92035	18680.9625
1043.61937	18556.0625
1047.31584	18265.5625
1051.00976	18040.5625
1054.70114	18000.1625
1058.38998	18031.2625
1062.07627	18139.1625
1065.76003	18206.7625
1069.44126	18256.6625
1073.11995	18312.7625
1076.79611	18456.7625
1080.46974	18505.0625
1084.14085	18590.6625
1087.80943	18676.1625
1091.47549	18797.9625
1095.13903	18764.3625
1098.80005	18704.1625
1102.45857	18485.7625
1106.11456	18331.5625
1109.76805	18288.7625
1113.41903	18309.1625
1117.06751	18383.2625
1120.71348	18499.6625
1124.35696	18594.5625
1127.99793	18741.5625
1131.63641	18845.6625
1135.2724	18726.2625
1138.90589	18624.4625
1142.5369	18549.7625
1146.16542	18552.2625
1149.79145	18565.9625
1153.415	18664.3625
1157.03607	18876.1625
1160.65467	19182.5625
1164.27079	19706.4625
1167.88443	20386.7625
1171.49561	21193.2625
1175.10432	22195.0625
1178.71056	23475.5625
1182.31434	24678.3625
1185.91565	25412.7625
1189.51451	25522.5625
1193.11091	25024.0625
1196.70485	24283.8625
1200.29634	23516.5625
1203.88538	22938.4625
1207.47197	22484.4625
1211.05612	22072.5625
1214.63782	21738.5625
1218.21708	21478.0625
1221.79391	21256.6625
1225.36829	21116.9625
1228.94024	20906.0625
1232.50976	20640.7625
1236.07685	20442.9625
1239.6415	20361.9625
1243.20374	20428.2625
1246.76355	20536.1625
1250.32093	20757.5625
1253.8759	21055.0625
1257.42845	21403.9625
1260.97859	21759.8625
1264.52631	22107.9625
1268.07163	22491.3625
1271.61453	22935.5625
1275.15503	23394.0625
1278.69312	23938.8625
1282.22882	24360.8625
1285.76211	24708.5625
1289.29301	25100.6625
1292.82151	25754.5625
1296.34761	26574.0625
1299.87133	27668.8625
1303.39266	28936.3625
1306.9116	30238.5625
1310.42815	31487.3625
1313.94233	32273.1625
1317.45412	32211.6625
1320.96354	31822.4625
1324.47058	31314.6625
1327.97525	30958.5625
1331.47754	30668.8625
1334.97747	30580.8625
1338.47502	30674.6625
1341.97022	30702.3625
1345.46305	30619.8625
1348.95352	30410.7625
1352.44163	30114.5625
1355.92738	30163.8625
1359.41078	30678.4625
1362.89183	31264.3625
1366.37053	30687.4625
1369.84688	28671.2625
1373.32088	26529.0625
1376.79254	24975.9625
1380.26186	24393.2625
1383.72883	24298.1625
1387.19347	24288.7625
1390.65578	24221.9625
1394.11575	24165.2625
1397.57339	24298.1625
1401.0287	24575.1625
1404.48168	24812.4625
1407.93234	24791.5625
1411.38068	24441.7625
1414.82669	23844.4625
1418.27039	23142.4625
1421.71177	22443.2625
1425.15083	21814.9625
1428.58758	21463.0625
1432.02203	21455.1625
1435.45416	21696.0625
1438.88399	22083.1625
1442.31151	22458.5625
1445.73673	22727.7625
1449.15965	23025.0625
1452.58027	23263.1625
1455.9986	23394.7625
1459.41463	23644.4625
1462.82837	23910.7625
1466.23982	24196.3625
1469.64898	24476.1625
1473.05586	24627.2625
1476.46045	24628.4625
1479.86276	24529.8625
1483.26279	24303.8625
1486.66054	24107.2625
1490.05602	24068.3625
1493.44922	24074.6625
1496.84016	24283.7625
1500.22882	24675.2625
1503.61521	25380.3625
1506.99934	26157.9625
1510.38121	26912.4625
1513.76081	27139.0625
1517.13816	26753.2625
1520.51324	26003.2625
1523.88607	25305.5625
1527.25665	24912.4625
1530.62498	24698.9625
1533.99105	24613.2625
1537.35488	24508.0625
1540.71647	24334.5625
1544.07581	24050.8625
1547.4329	23678.1625
1550.78776	23319.9625
1554.14038	23136.1625
1557.49077	23059.8625
1560.83892	22946.6625
1564.18484	22935.5625
1567.52853	22983.9625
1570.86999	23093.0625
1574.20922	23295.6625
1577.54624	23517.3625
1580.88103	23539.0625
1584.2136	23597.2625
1587.54395	23917.4625
1590.87208	24545.8625
1594.19801	25547.7625
1597.52172	26532.8625
1600.84321	26873.6625
1604.16251	26125.0625
1607.47959	24750.2625
1610.79447	23358.5625
1614.10715	22027.1625
1617.41763	20856.7625
1620.7259	19998.5625
1624.03199	19505.0625
1627.33587	19420.4625
1630.63757	19703.3625
1633.93707	20445.3625
1637.23439	21656.0625
1640.52951	23187.5625
1643.82246	25020.3625
1647.11321	26447.1625
1650.40179	26741.2625
1653.68819	25630.0625
1656.97241	23398.8625
1660.25446	21115.3625
1663.53433	19363.6625
1666.81203	18142.9625
1670.08756	17344.3625
1673.36092	16828.5625
1676.63211	16468.8625
1679.90115	16207.6625
1683.16801	16027.5625
1686.43272	15897.6625
1689.69527	15803.4625
1692.95567	15693.0625
1696.2139	15627.6625
1699.46999	15590.3625
1702.72392	15602.7625
1705.97571	15537.1625
1709.22535	15497.0625
1712.47284	15469.4625
1715.71819	15466.4625
1718.96139	15405.4625
1722.20246	15372.3625
1725.44139	15328.9625
1728.67818	15264.0625
1731.91284	15207.0625
1735.14537	15117.1625
1738.37576	15083.7625
1741.60403	15055.9625
1744.83017	14999.0625
1748.05418	15008.4625
1751.27607	14961.7625
1754.49584	14937.3625
1757.71349	14949.6625
1760.92903	14958.1625
1764.14244	14934.8625
1767.35375	14884.6625
1770.56294	14860.4625
1773.77002	14867.5625
1776.97499	14842.6625
1780.17785	14777.6625
1783.37861	14777.5625
1786.57727	14739.4625
1789.77382	14697.3625
1792.96828	14681.5625
1796.16064	14648.6625
1799.3509	14638.3625
1802.53907	14607.0625
1805.72514	14577.6625
1808.90913	14548.8625
1812.09102	14524.7625
1815.27083	14495.0625
1818.44856	14473.0625
1821.6242	14441.4625
1824.79776	14420.0625
1827.96924	14428.1625
1831.13864	14393.4625
1834.30597	14407.8625
1837.47122	14409.1625
1840.6344	14389.2625
1843.7955	14365.2625
1846.95454	14340.6625
1850.11151	14355.8625
1853.26642	14327.5625
1856.41926	14342.5625
1859.57004	14335.2625
1862.71876	14329.4625
1865.86542	14297.7625
1869.01003	14311.8625
1872.15258	14248.7625
1875.29308	14287.0625
1878.43152	14251.3625
1881.56792	14227.2625
1884.70227	14216.6625
1887.83457	14213.6625
1890.96482	14177.7625
1894.09304	14142.7625
1897.21921	14132.1625
1900.34335	14113.1625
1903.46544	14107.6625
1906.58551	14109.5625
1909.70353	14070.5625
1912.81953	14043.6625
1915.93349	14065.6625
1919.04543	14007.3625
1922.15534	13983.5625
1925.26322	13946.9625
1928.36908	13923.8625
1931.47292	13924.3625
1934.57473	13900.6625
1937.67453	13880.3625
1940.77232	13862.6625
1943.86808	13781.7625
1946.96184	13726.0625
1950.05358	13701.7625
1953.14331	13699.1625
1956.23103	13644.9625
1959.31675	13607.9625
1962.40046	13540.8625
1965.48217	13538.9625
1968.56188	13467.9625
1971.63959	13445.7625
1974.7153	13409.0625
1977.78901	13376.7625
1980.86073	13324.6625
1983.93046	13315.6625
1986.99819	13249.9625
1990.06394	13242.8625
1993.1277	13197.1625
1996.18947	13185.0625
1999.24925	13115.0625
2002.30706	13098.9625
2005.36288	13073.9625
2008.41672	12998.8625
2011.46859	12981.8625
2014.51848	12945.9625
2017.56639	12925.5625
2020.61233	12894.1625
2023.6563	12835.0625
2026.6983	12816.2625
2029.73833	12802.3625
2032.7764	12778.0625
2035.8125	12742.9625
2038.84664	12700.9625
2041.87881	12685.9625
2044.90903	12646.0625
2047.93729	12610.1625
2050.96359	12615.0625
2053.98794	12607.4625
2057.01034	12613.9625
2060.03078	12606.8625
2063.04927	12570.8625
2066.06582	12582.2625
2069.08042	12591.9625
2072.09307	12544.5625
2075.10378	12540.8625
2078.11255	12514.3625
2081.11938	12526.2625
2084.12426	12525.1625
2087.12722	12503.6625
2090.12824	12487.4625
2093.12732	12496.9625
2096.12447	12480.7625
2099.11969	12507.5625
2102.11299	12488.2625
2105.10435	12502.2625
2108.09379	12532.5625
2111.08131	12503.6625
2114.0669	12509.2625
2117.05057	12513.1625
2120.03233	12545.8625
2123.01216	12547.1625
2125.99008	12574.0625
2128.96609	12576.9625
2131.94018	12576.4625
2134.91236	12594.0625
2137.88263	12618.9625
2140.851	12616.7625
2143.81746	12656.2625
2146.78201	12640.9625
2149.74466	12634.5625
2152.7054	12603.5625
2155.66425	12611.7625
2158.6212	12623.3625
2161.57625	12618.9625
2164.52941	12626.5625
2167.48067	12580.6625
2170.43004	12599.5625
2173.37752	12562.0625
2176.32311	12601.7625
2179.26681	12599.9625
2182.20863	12596.7625
2185.14856	12582.4625
2188.08661	12556.6625
2191.02278	12601.8625
2193.95707	12579.8625
2196.88948	12610.6625
2199.82001	12573.9625
2202.74867	12590.3625
2205.67545	12552.6625
2208.60037	12540.8625
2211.52341	12529.0625
2214.44458	12519.2625
2217.36388	12507.4625
2220.28132	12483.0625
2223.1969	12441.2625
2226.11061	12464.9625
2229.02246	12396.0625
2231.93245	12368.6625
2234.84058	12354.8625
2237.74686	12336.9625
2240.65128	12342.9625
2243.55385	12286.1625
2246.45456	12272.5625
2249.35343	12265.4625
2252.25044	12233.3625
2255.14561	12216.6625
2258.03893	12232.8625
2260.93041	12192.2625
2263.82004	12140.7625
2266.70783	12154.2625
2269.59378	12088.7625
2272.4779	12051.9625
2275.36017	12021.4625
2278.24061	12022.7625
2281.11922	12018.9625
2283.996	12000.4625
2286.87094	11983.8625
2289.74405	11962.7625
2292.61534	11980.0625
2295.4848	11942.8625
2298.35243	11958.1625
2301.21824	11895.7625
2304.08223	11958.3625
2306.94439	11927.9625
2309.80474	11928.5625
2312.66327	11938.1625
2315.51999	11942.4625
2318.37489	11928.0625
2321.22797	11899.2625
2324.07925	11899.3625
2326.92871	11870.3625
2329.77637	11857.1625
2332.62222	11831.6625
2335.46626	11838.3625
2338.3085	11801.6625
2341.14893	11805.1625
2343.98756	11821.2625
2346.8244	11793.1625
2349.65943	11815.8625
2352.49267	11801.0625
2355.32411	11788.0625
2358.15376	11791.3625
2360.98161	11810.6625
2363.80768	11768.4625
2366.63195	11753.8625
2369.45444	11743.5625
2372.27514	11710.6625
2375.09405	11675.3625
2377.91118	11675.3625
2380.72652	11636.4625
2383.54009	11597.9625
2386.35187	11601.8625
2389.16188	11550.9625
2391.97011	11545.2625
2394.77657	11516.1625
2397.58125	11499.7625
2400.38416	11483.4625
2403.18529	11456.9625
2405.98466	11456.8625
2408.78226	11445.2625
2411.57809	11442.6625
2414.37216	11414.3625
2417.16446	11411.2625
2419.955	11398.7625
2422.74378	11406.1625
2425.5308	11361.7625
2428.31606	11350.1625
2431.09956	11367.2625
2433.88131	11346.8625
2436.6613	11333.0625
2439.43954	11341.4625
2442.21603	11342.5625
2444.99077	11330.8625
2447.76377	11305.0625
2450.53501	11303.0625
2453.30451	11293.0625
2456.07226	11257.2625
2458.83827	11266.0625
2461.60254	11257.9625
2464.36507	11246.7625
2467.12586	11221.5625
2469.88492	11238.4625
2472.64224	11239.4625
2475.39782	11250.5625
2478.15167	11226.8625
2480.90379	11236.3625
2483.65417	11237.8625
2486.40283	11242.4625
2489.14976	11257.8625
2491.89497	11226.1625
2494.63845	11278.7625
2497.3802	11250.9625
2500.12024	11226.6625
2502.85855	11208.8625
2505.59514	11194.8625
2508.33002	11175.8625
2511.06318	11172.3625
2513.79462	11172.7625
2516.52435	11161.2625
2519.25237	11139.5625
2521.97867	11132.4625
2524.70327	11155.5625
2527.42616	11138.4625
2530.14734	11133.5625
2532.86681	11108.2625
2535.58458	11133.5625
2538.30065	11109.2625
2541.01501	11120.0625
2543.72768	11100.8625
2546.43864	11071.0625
2549.14791	11063.0625
2551.85548	11079.4625
2554.56136	11002.5625
2557.26554	11038.1625
2559.96803	10978.3625
2562.66883	10963.3625
2565.36794	10965.2625
2568.06536	10944.9625
2570.7611	10919.4625
2573.45514	10890.4625
2576.14751	10885.2625
2578.83819	10886.6625
2581.52719	10866.2625
2584.21451	10846.0625
2586.90015	10874.9625
2589.58411	10842.7625
2592.2664	10845.1625
2594.94701	10811.1625
2597.62594	10817.6625
2600.30321	10789.3625
2602.9788	10781.9625
2605.65273	10753.0625
2608.32498	10759.9625
2610.99557	10750.3625
2613.66449	10746.8625
2616.33175	10720.1625
2618.99734	10747.9625
2621.66128	10739.5625
2624.32355	10744.7625
2626.98416	10729.4625
2629.64311	10714.0625
2632.30041	10690.8625
2634.95605	10681.0625
2637.61004	10656.8625
2640.26238	10645.6625
2642.91306	10655.2625
2645.56209	10617.6625
2648.20948	10644.2625
2650.85521	10610.5625
2653.4993	10624.9625
2656.14175	10625.5625
2658.78255	10599.5625
2661.42171	10620.8625
2664.05923	10622.3625
2666.6951	10642.0625
2669.32934	10635.7625
2671.96194	10627.9625
2674.59291	10658.2625
2677.22224	10623.1625
2679.84993	10631.0625
2682.476	10622.7625
2685.10043	10617.5625
2687.72324	10590.5625
2690.34441	10595.9625
2692.96396	10589.4625
2695.58188	10582.8625
2698.19818	10587.8625
2700.81285	10586.1625
2703.4259	10596.2625
2706.03733	10597.7625
2708.64714	10579.2625
2711.25533	10624.8625
2713.86191	10568.8625
2716.46687	10596.6625
2719.07021	10614.9625
2721.67194	10624.7625
2724.27206	10606.2625
2726.87057	10640.1625
2729.46747	10612.3625
2732.06276	10609.0625
2734.65644	10638.6625
2737.24852	10618.1625
2739.83899	10580.4625
2742.42786	10603.5625
2745.01513	10548.4625
2747.60079	10537.4625
2750.18486	10521.2625
2752.76733	10547.2625
2755.3482	10531.8625
2757.92747	10515.5625
2760.50515	10532.7625
2763.08123	10512.6625
2765.65573	10507.7625
2768.22863	10485.1625
2770.79994	10466.5625
2773.36967	10488.4625
2775.9378	10473.8625
2778.50435	10495.6625
2781.06932	10480.6625
2783.6327	10480.8625
2786.1945	10484.2625
2788.75471	10453.8625
2791.31335	10424.8625
2793.87041	10424.9625
2796.42589	10385.1625
2798.97979	10399.5625
2801.53212	10364.3625
2804.08288	10364.6625
2806.63206	10327.7625
2809.17967	10307.2625
2811.72571	10277.1625
2814.27018	10262.6625
2816.81308	10236.7625
2819.35442	10244.7625
2821.89419	10214.1625
2824.43239	10185.6625
2826.96904	10170.2625
2829.50412	10199.5625
2832.03763	10181.8625
2834.56959	10170.7625
2837.1	10145.8625
2839.62884	10142.4625
2842.15613	10166.0625
2844.68186	10184.5625
2847.20604	10133.2625
2849.72867	10172.9625
2852.24974	10165.2625
2854.76927	10150.7625
2857.28724	10131.3625
2859.80367	10112.2625
2862.31855	10103.8625
2864.83189	10095.8625
2867.34368	10082.7625
2869.85393	10054.9625
2872.36264	10067.7625
2874.8698	10057.5625
2877.37543	10039.9625
2879.87952	10066.9625
2882.38207	10045.6625
2884.88308	10030.4625
2887.38256	10072.5625
2889.88051	10060.4625
2892.37692	10047.7625
2894.8718	10032.2625
2897.36515	10066.7625
2899.85698	10059.0625
2902.34727	10098.0625
2904.83604	10126.4625
2907.32328	10122.7625
2909.809	10105.9625
2912.29319	10126.5625
2914.77587	10121.5625
2917.25702	10120.3625
2919.73665	10113.0625
2922.21476	10116.8625
2924.69136	10086.9625
2927.16644	10082.1625
2929.64	10063.4625
2932.11205	10068.2625
2934.58258	10043.2625
2937.05161	10038.8625
2939.51912	10064.1625
2941.98513	10042.8625
2944.44962	9989.3625
2946.91261	9995.9625
2949.37409	9995.4625
2951.83407	9958.3625
2954.29254	9988.2625
2956.74951	9975.6625
2959.20498	9969.5625
2961.65895	9969.7625
2964.11142	9986.8625
2966.56239	9943.1625
2969.01186	9947.1625
2971.45984	9943.7625
2973.90632	9915.2625
2976.35131	9901.9625
2978.7948	9923.7625
2981.23681	9851.3625
2983.67732	9861.5625
2986.11635	9855.4625
2988.55388	9837.9625
2990.98993	9814.8625
2993.4245	9807.7625
2995.85758	9767.7625
2998.28917	9707.5625
3000.71928	9729.4625
3003.14791	9706.7625
3005.57506	9707.9625
3008.00073	9701.2625
3010.42493	9669.7625
3012.84764	9633.1625
3015.26888	9657.3625
3017.68865	9638.2625
3020.10694	9636.5625
3022.52376	9622.0625
3024.9391	9616.1625
3027.35298	9597.4625
3029.76539	9567.5625
3032.17632	9600.4625
3034.5858	9578.3625
3036.9938	9579.8625
3039.40034	9567.5625
3041.80542	9576.6625
3044.20903	9539.2625
3046.61118	9557.8625
3049.01187	9510.4625
3051.4111	9527.1625
3053.80888	9498.1625
3056.20519	9466.0625
3058.60005	9445.3625
3060.99345	9435.6625
3063.3854	9433.1625
3065.7759	9389.0625
3068.16494	9421.7625
3070.55254	9384.7625
3072.93868	9356.0625
3075.32338	9358.4625
3077.70662	9330.2625
3080.08842	9322.4625
3082.46878	9292.1625
3084.84769	9310.9625
3087.22515	9314.5625
3089.60118	9314.1625
3091.97576	9304.7625
3094.3489	9287.4625
3096.72061	9287.7625
3099.09087	9313.8625
3101.4597	9293.5625
3103.82709	9301.9625
3106.19305	9284.3625
3108.55757	9292.9625
3110.92066	9281.1625
3113.28232	9258.7625
3115.64255	9249.0625
3118.00134	9248.1625
3120.35871	9242.9625
3122.71466	9195.5625
3125.06917	9166.5625
3127.42226	9145.4625
3129.77393	9164.2625
3132.12417	9150.2625
3134.47299	9169.2625
3136.82039	9170.6625
3139.16636	9152.7625
3141.51092	9176.5625
3143.85406	9181.4625
3146.19579	9157.3625
3148.53609	9164.5625
3150.87499	9174.0625
3153.21246	9193.1625
3155.54853	9197.9625
3157.88318	9200.0625
3160.21642	9187.4625
3162.54826	9204.2625
3164.87868	9218.7625
3167.2077	9232.3625
3169.5353	9240.1625
3171.86151	9258.1625
3174.18631	9216.0625
3176.5097	9202.2625
3178.83169	9225.0625
3181.15228	9190.9625
3183.47147	9196.9625
3185.78926	9191.8625
3188.10565	9163.6625
3190.42065	9177.9625
3192.73424	9164.9625
3195.04645	9160.0625
3197.35725	9141.4625
3199.66667	9161.1625
3201.97469	9190.5625
3204.28132	9146.6625
3206.58656	9178.8625
3208.8904	9182.5625
3211.19287	9187.1625
3213.49394	9181.5625
3215.79363	9199.8625
3218.09193	9225.3625
3220.38884	9226.0625
3222.68438	9201.2625
3224.97853	9202.9625
3227.2713	9203.8625
3229.56269	9190.9625
3231.8527	9188.5625
3234.14133	9174.5625
3236.42858	9158.9625
3238.71446	9138.8625
3240.99896	9114.6625
3243.28209	9124.2625
3245.56384	9103.2625
3247.84423	9095.4625
3250.12324	9091.6625
3252.40088	9090.6625
3254.67715	9064.9625
3256.95205	9075.4625
3259.22558	9093.2625
3261.49775	9049.7625
3263.76855	9079.9625
3266.03799	9044.5625
3268.30606	9053.1625
3270.57277	9050.6625
3272.83812	9003.5625
3275.10211	8985.8625
3277.36474	8975.1625
3279.62601	8980.3625
3281.88593	8944.5625
3284.14448	8963.5625
3286.40168	8961.3625
3288.65753	8954.6625
3290.91202	8957.4625
3293.16516	8952.2625
3295.41695	8950.4625
3297.66738	8897.9625
3299.91647	8845.2625
3302.16421	8780.6625
3304.4106	8761.1625
3306.65564	8710.0625
3308.89933	8643.1625
3311.14169	8594.6625
3313.38269	8500.9625
3315.62236	8470.2625
3317.86068	8388.5625
3320.09766	8346.8625
3322.3333	8289.0625
3324.5676	8220.1625
3326.80056	8101.9625
3329.03219	8045.5625
3331.26248	3.7625
3333.49143	1.1625
3335.71905	-0.6375
