Data from AgNP_FTO_APTES_UA_10uM_CRN_1000uM_R6G_10uM_NaF_0.1M_Addition_RamanShift__28__19-53-51-014.txt Node

Date: Thu Feb 10 19:53:51 GMT 2022
User: TCL
Spectrometer: QEP01345
Trigger mode: 4
Integration Time (sec): 7.000000E0
Scans to average: 10
Electric dark correction enabled: true
Nonlinearity correction enabled: false
Boxcar width: 0
XAxis mode: Raman Shifts
Number of Pixels in Spectrum: 1044
>>>>>Begin Spectral Data<<<<<
46.04893	0.3375
50.45542	-2.1625
54.85868	-0.7625
59.25871	-1.1625
63.6555	57.2375
68.04907	56.8375
72.43941	60.1375
76.82654	60.7375
81.21044	65.2375
85.59113	65.1375
89.96862	64.7375
94.34289	72.2375
98.71396	71.2375
103.08183	74.3375
107.4465	76.8375
111.80798	76.5375
116.16626	81.8375
120.52136	87.0375
124.87327	87.2375
129.222	87.0375
133.56755	96.8375
137.90993	99.9375
142.24913	109.4375
146.58517	123.2375
150.91804	143.1375
155.24774	166.7375
159.57429	204.2375
163.89768	261.2375
168.21792	347.0375
172.53501	471.2375
176.84895	654.2375
181.15975	916.2375
185.46741	1282.7375
189.77193	1775.4375
194.07331	2371.8375
198.37157	3083.3375
202.6667	3790.9375
206.9587	4526.7375
211.24758	5248.4375
215.53334	5977.2375
219.81599	6777.0375
224.09553	7675.7375
228.37195	8667.7375
232.64527	9744.0375
236.91549	10840.8375
241.18261	11949.8375
245.44663	12891.6375
249.70755	13684.6375
253.96539	14404.7375
258.22014	15007.4375
262.4718	15510.0375
266.72039	15907.0375
270.96589	16128.6375
275.20832	16177.5375
279.44768	16052.6375
283.68397	15858.4375
287.91719	15746.8375
292.14735	15711.3375
296.37445	15910.1375
300.59849	16274.9375
304.81948	16696.1375
309.03742	17010.7375
313.25231	16879.0375
317.46415	16271.9375
321.67296	15346.3375
325.87872	14576.9375
330.08145	14222.2375
334.28114	14208.2375
338.47781	14445.3375
342.67145	14757.9375
346.86207	15253.7375
351.04966	15967.4375
355.23424	16736.1375
359.4158	17347.2375
363.59435	17640.9375
367.76989	17803.8375
371.94243	17809.8375
376.11196	17802.1375
380.27849	17769.1375
384.44203	17732.0375
388.60257	17591.5375
392.76012	17512.2375
396.91468	17661.5375
401.06626	18034.9375
405.21485	18341.5375
409.36047	18185.2375
413.50311	17516.5375
417.64277	16908.9375
421.77947	16589.4375
425.9132	16510.5375
430.04396	16598.2375
434.17176	16707.5375
438.2966	16923.9375
442.41849	17280.4375
446.53742	17774.0375
450.6534	18268.2375
454.76644	18590.0375
458.87653	18652.7375
462.98368	18496.2375
467.08789	18286.3375
471.18916	17971.3375
475.2875	17704.2375
479.38291	17458.3375
483.4754	17251.3375
487.56496	17007.1375
491.6516	16807.6375
495.73531	16668.2375
499.81612	16639.1375
503.89401	16742.6375
507.96899	16863.3375
512.04106	17050.2375
516.11023	17230.6375
520.1765	17360.4375
524.23987	17328.0375
528.30034	17130.2375
532.35792	16886.4375
536.41261	16642.3375
540.46441	16366.9375
544.51333	16319.6375
548.55936	16412.0375
552.60252	16717.5375
556.64279	17105.3375
560.6802	17371.9375
564.71473	17606.7375
568.7464	18164.1375
572.7752	18611.6375
576.80114	18259.7375
580.82422	17698.3375
584.84444	17429.0375
588.86181	17434.4375
592.87633	17625.6375
596.888	17769.6375
600.89682	18049.7375
604.9028	19234.7375
608.90594	22919.7375
612.90624	28068.9375
616.90371	27388.6375
620.89834	20750.8375
624.89015	17539.4375
628.87913	16932.0375
632.86528	16936.3375
636.84862	17072.4375
640.82913	16899.0375
644.80683	16429.9375
648.78172	16104.4375
652.75379	16153.5375
656.72306	16581.4375
660.68952	17186.1375
664.65319	17111.6375
668.61405	16566.0375
672.57211	16289.8375
676.52738	16282.5375
680.47986	16334.9375
684.42955	16241.4375
688.37646	16237.7375
692.32058	16251.9375
696.26192	16412.0375
700.20048	16582.9375
704.13626	16703.8375
708.06928	16653.9375
711.99952	16529.5375
715.927	16459.9375
719.85171	16471.7375
723.77365	16488.8375
727.69284	16350.8375
731.60928	16207.3375
735.52295	16187.0375
739.43388	16196.9375
743.34206	16250.0375
747.24749	16362.8375
751.15017	16449.5375
755.05012	16713.5375
758.94733	17265.8375
762.8418	18515.3375
766.73354	20613.2375
770.62254	22932.2375
774.50882	24127.2375
778.39237	23326.6375
782.27321	20869.9375
786.15132	18518.5375
790.02671	17125.2375
793.89938	16539.0375
797.76935	16288.1375
801.6366	16168.4375
805.50115	16135.4375
809.36299	16073.6375
813.22213	16050.2375
817.07857	16034.7375
820.93231	16056.6375
824.78336	16073.5375
828.63172	16134.1375
832.47738	16149.1375
836.32036	16111.7375
840.16066	16071.3375
843.99827	16006.1375
847.8332	15991.3375
851.66546	15962.3375
855.49504	15969.3375
859.32195	15961.6375
863.1462	15915.7375
866.96777	15859.3375
870.78668	15890.7375
874.60293	15884.9375
878.41652	15923.3375
882.22745	15987.8375
886.03573	16050.2375
889.84136	16010.4375
893.64433	15940.1375
897.44466	15908.2375
901.24235	15888.0375
905.0374	15884.4375
908.8298	15813.6375
912.61957	15792.9375
916.40671	15819.5375
920.19121	15939.1375
923.97308	16040.5375
927.75233	16093.8375
931.52895	16194.9375
935.30295	16073.7375
939.07433	15819.8375
942.84309	15498.9375
946.60924	15323.7375
950.37278	15224.6375
954.13371	15192.7375
957.89203	15135.7375
961.64774	15079.2375
965.40086	15050.7375
969.15137	15050.7375
972.89929	14968.5375
976.64461	14926.8375
980.38733	14933.3375
984.12747	14959.9375
987.86502	15018.2375
991.59999	15132.4375
995.33237	15269.5375
999.06217	15567.0375
1002.78939	15885.9375
1006.51404	16161.2375
1010.23611	16386.3375
1013.95561	16550.7375
1017.67255	16545.4375
1021.38692	16355.5375
1025.09872	16191.2375
1028.80796	16109.6375
1032.51465	16157.6375
1036.21877	16289.6375
1039.92035	16392.2375
1043.61937	16364.2375
1047.31584	16304.4375
1051.00976	16160.3375
1054.70114	16151.1375
1058.38998	16158.3375
1062.07627	16244.4375
1065.76003	16311.1375
1069.44126	16338.4375
1073.11995	16429.5375
1076.79611	16581.0375
1080.46974	16705.6375
1084.14085	16999.0375
1087.80943	17292.5375
1091.47549	17425.7375
1095.13903	17257.3375
1098.80005	16862.9375
1102.45857	16538.6375
1106.11456	16409.3375
1109.76805	16438.0375
1113.41903	16694.0375
1117.06751	17065.3375
1120.71348	17561.1375
1124.35696	18026.1375
1127.99793	18448.9375
1131.63641	18402.2375
1135.2724	17844.7375
1138.90589	17285.0375
1142.5369	16942.7375
1146.16542	16770.6375
1149.79145	16645.4375
1153.415	16685.4375
1157.03607	16792.1375
1160.65467	17060.5375
1164.27079	17523.0375
1167.88443	18212.0375
1171.49561	19319.7375
1175.10432	21039.1375
1178.71056	23342.5375
1182.31434	25072.8375
1185.91565	25588.7375
1189.51451	25147.1375
1193.11091	24054.7375
1196.70485	22818.7375
1200.29634	21818.1375
1203.88538	20988.6375
1207.47197	20070.6375
1211.05612	19283.3375
1214.63782	18842.7375
1218.21708	18707.6375
1221.79391	18719.8375
1225.36829	18712.6375
1228.94024	18608.1375
1232.50976	18476.1375
1236.07685	18442.7375
1239.6415	18518.2375
1243.20374	18623.0375
1246.76355	18761.1375
1250.32093	18963.6375
1253.8759	19285.4375
1257.42845	19716.6375
1260.97859	20143.3375
1264.52631	20588.7375
1268.07163	20967.0375
1271.61453	21325.8375
1275.15503	21639.6375
1278.69312	21844.4375
1282.22882	21961.6375
1285.76211	22319.2375
1289.29301	22790.7375
1292.82151	23436.0375
1296.34761	24166.7375
1299.87133	25188.0375
1303.39266	26855.7375
1306.9116	29172.1375
1310.42815	31817.7375
1313.94233	33440.9375
1317.45412	33013.2375
1320.96354	31464.1375
1324.47058	29692.4375
1327.97525	28159.4375
1331.47754	27264.5375
1334.97747	27001.3375
1338.47502	27287.2375
1341.97022	27884.6375
1345.46305	28439.5375
1348.95352	29091.2375
1352.44163	30131.8375
1355.92738	31887.7375
1359.41078	34889.4375
1362.89183	37796.4375
1366.37053	36730.4375
1369.84688	32222.8375
1373.32088	27760.9375
1376.79254	24903.3375
1380.26186	23496.0375
1383.72883	22844.4375
1387.19347	22442.0375
1390.65578	22066.4375
1394.11575	21739.7375
1397.57339	21725.3375
1401.0287	21961.3375
1404.48168	22378.7375
1407.93234	22690.9375
1411.38068	22848.1375
1414.82669	22690.7375
1418.27039	22179.2375
1421.71177	21508.4375
1425.15083	20894.7375
1428.58758	20559.1375
1432.02203	20546.7375
1435.45416	20682.0375
1438.88399	20824.2375
1442.31151	20866.2375
1445.73673	20999.2375
1449.15965	21182.6375
1452.58027	21270.2375
1455.9986	21257.5375
1459.41463	21311.1375
1462.82837	21533.6375
1466.23982	21927.1375
1469.64898	22296.2375
1473.05586	22541.0375
1476.46045	22636.6375
1479.86276	22766.6375
1483.26279	23000.7375
1486.66054	23316.4375
1490.05602	23755.1375
1493.44922	24351.7375
1496.84016	25253.2375
1500.22882	26620.8375
1503.61521	28643.1375
1506.99934	31052.1375
1510.38121	33416.4375
1513.76081	34500.8375
1517.13816	33308.1375
1520.51324	30276.3375
1523.88607	27189.0375
1527.25665	25113.7375
1530.62498	23996.8375
1533.99105	23395.3375
1537.35488	23123.6375
1540.71647	22955.2375
1544.07581	22839.0375
1547.4329	22743.8375
1550.78776	22616.6375
1554.14038	22500.7375
1557.49077	22526.3375
1560.83892	22765.6375
1564.18484	23052.0375
1567.52853	23423.7375
1570.86999	23682.1375
1574.20922	23814.9375
1577.54624	23678.7375
1580.88103	23044.0375
1584.2136	22159.6375
1587.54395	21838.1375
1590.87208	22242.0375
1594.19801	23373.8375
1597.52172	24806.9375
1600.84321	25585.0375
1604.16251	25055.5375
1607.47959	23671.8375
1610.79447	21991.3375
1614.10715	20327.1375
1617.41763	19053.1375
1620.7259	18248.9375
1624.03199	17803.7375
1627.33587	17763.7375
1630.63757	17990.3375
1633.93707	18650.4375
1637.23439	19722.7375
1640.52951	21267.2375
1643.82246	23264.0375
1647.11321	25460.3375
1650.40179	26868.1375
1653.68819	26164.9375
1656.97241	23392.8375
1660.25446	20287.6375
1663.53433	18056.7375
1666.81203	16714.6375
1670.08756	15872.9375
1673.36092	15399.4375
1676.63211	15081.6375
1679.90115	14817.3375
1683.16801	14672.9375
1686.43272	14533.1375
1689.69527	14442.3375
1692.95567	14342.7375
1696.2139	14319.0375
1699.46999	14312.4375
1702.72392	14294.7375
1705.97571	14243.1375
1709.22535	14189.8375
1712.47284	14204.4375
1715.71819	14177.8375
1718.96139	14193.3375
1722.20246	14154.1375
1725.44139	14090.5375
1728.67818	14044.5375
1731.91284	13941.7375
1735.14537	13876.5375
1738.37576	13809.4375
1741.60403	13758.0375
1744.83017	13731.4375
1748.05418	13709.6375
1751.27607	13664.3375
1754.49584	13665.3375
1757.71349	13641.5375
1760.92903	13628.2375
1764.14244	13607.9375
1767.35375	13609.5375
1770.56294	13580.8375
1773.77002	13593.4375
1776.97499	13526.4375
1780.17785	13467.0375
1783.37861	13472.0375
1786.57727	13439.6375
1789.77382	13423.2375
1792.96828	13406.7375
1796.16064	13363.1375
1799.3509	13391.9375
1802.53907	13329.2375
1805.72514	13292.1375
1808.90913	13258.9375
1812.09102	13258.3375
1815.27083	13201.5375
1818.44856	13184.3375
1821.6242	13141.4375
1824.79776	13131.5375
1827.96924	13114.1375
1831.13864	13083.1375
1834.30597	13081.4375
1837.47122	13051.4375
1840.6344	13061.2375
1843.7955	13074.5375
1846.95454	13040.7375
1850.11151	13031.5375
1853.26642	13030.5375
1856.41926	13015.7375
1859.57004	13029.1375
1862.71876	13045.8375
1865.86542	13000.7375
1869.01003	13007.9375
1872.15258	12994.0375
1875.29308	12996.7375
1878.43152	12986.1375
1881.56792	13013.0375
1884.70227	12973.3375
1887.83457	12981.0375
1890.96482	12943.3375
1894.09304	12933.3375
1897.21921	12908.3375
1900.34335	12925.9375
1903.46544	12920.5375
1906.58551	12914.7375
1909.70353	12918.5375
1912.81953	12879.6375
1915.93349	12913.8375
1919.04543	12855.3375
1922.15534	12815.4375
1925.26322	12807.1375
1928.36908	12787.7375
1931.47292	12791.9375
1934.57473	12735.0375
1937.67453	12711.8375
1940.77232	12673.6375
1943.86808	12625.7375
1946.96184	12551.7375
1950.05358	12540.3375
1953.14331	12498.2375
1956.23103	12462.7375
1959.31675	12430.5375
1962.40046	12400.2375
1965.48217	12352.4375
1968.56188	12327.5375
1971.63959	12285.5375
1974.7153	12247.1375
1977.78901	12257.1375
1980.86073	12163.6375
1983.93046	12159.3375
1986.99819	12108.3375
1990.06394	12077.4375
1993.1277	12051.2375
1996.18947	11948.4375
1999.24925	11952.0375
2002.30706	11894.0375
2005.36288	11896.8375
2008.41672	11861.0375
2011.46859	11806.1375
2014.51848	11781.4375
2017.56639	11755.7375
2020.61233	11727.5375
2023.6563	11709.5375
2026.6983	11657.1375
2029.73833	11640.7375
2032.7764	11585.9375
2035.8125	11583.1375
2038.84664	11529.4375
2041.87881	11479.8375
2044.90903	11474.2375
2047.93729	11493.2375
2050.96359	11450.5375
2053.98794	11468.2375
2057.01034	11424.8375
2060.03078	11424.3375
2063.04927	11412.4375
2066.06582	11404.2375
2069.08042	11387.7375
2072.09307	11423.5375
2075.10378	11378.3375
2078.11255	11358.3375
2081.11938	11368.9375
2084.12426	11340.0375
2087.12722	11330.1375
2090.12824	11342.8375
2093.12732	11332.2375
2096.12447	11335.2375
2099.11969	11311.6375
2102.11299	11317.7375
2105.10435	11332.5375
2108.09379	11327.5375
2111.08131	11330.7375
2114.0669	11313.4375
2117.05057	11341.6375
2120.03233	11348.4375
2123.01216	11356.1375
2125.99008	11357.1375
2128.96609	11394.3375
2131.94018	11398.1375
2134.91236	11416.8375
2137.88263	11369.0375
2140.851	11400.5375
2143.81746	11414.8375
2146.78201	11383.3375
2149.74466	11410.8375
2152.7054	11395.3375
2155.66425	11388.6375
2158.6212	11369.6375
2161.57625	11347.2375
2164.52941	11345.0375
2167.48067	11329.6375
2170.43004	11343.1375
2173.37752	11339.2375
2176.32311	11333.7375
2179.26681	11336.1375
2182.20863	11308.7375
2185.14856	11307.9375
2188.08661	11318.3375
2191.02278	11314.0375
2193.95707	11342.3375
2196.88948	11309.3375
2199.82001	11298.8375
2202.74867	11260.8375
2205.67545	11256.7375
2208.60037	11230.3375
2211.52341	11231.5375
2214.44458	11233.7375
2217.36388	11203.4375
2220.28132	11170.6375
2223.1969	11125.1375
2226.11061	11131.9375
2229.02246	11090.7375
2231.93245	11060.1375
2234.84058	11049.1375
2237.74686	11021.3375
2240.65128	11000.7375
2243.55385	10986.3375
2246.45456	10989.0375
2249.35343	10956.5375
2252.25044	10972.2375
2255.14561	10950.8375
2258.03893	10960.5375
2260.93041	10906.2375
2263.82004	10886.2375
2266.70783	10876.8375
2269.59378	10822.8375
2272.4779	10782.1375
2275.36017	10763.3375
2278.24061	10751.9375
2281.11922	10734.1375
2283.996	10731.3375
2286.87094	10687.1375
2289.74405	10688.2375
2292.61534	10670.4375
2295.4848	10653.4375
2298.35243	10668.4375
2301.21824	10618.5375
2304.08223	10627.7375
2306.94439	10624.3375
2309.80474	10623.0375
2312.66327	10622.7375
2315.51999	10594.4375
2318.37489	10599.3375
2321.22797	10579.9375
2324.07925	10596.8375
2326.92871	10546.3375
2329.77637	10538.3375
2332.62222	10516.1375
2335.46626	10518.2375
2338.3085	10493.1375
2341.14893	10482.1375
2343.98756	10485.6375
2346.8244	10495.5375
2349.65943	10468.9375
2352.49267	10457.1375
2355.32411	10456.6375
2358.15376	10464.5375
2360.98161	10485.0375
2363.80768	10471.1375
2366.63195	10465.4375
2369.45444	10473.5375
2372.27514	10458.9375
2375.09405	10440.9375
2377.91118	10422.5375
2380.72652	10360.7375
2383.54009	10326.2375
2386.35187	10324.8375
2389.16188	10265.4375
2391.97011	10228.4375
2394.77657	10230.0375
2397.58125	10180.7375
2400.38416	10186.8375
2403.18529	10190.0375
2405.98466	10128.7375
2408.78226	10128.8375
2411.57809	10094.5375
2414.37216	10089.7375
2417.16446	10076.5375
2419.955	10045.1375
2422.74378	10024.9375
2425.5308	10022.5375
2428.31606	10030.7375
2431.09956	10038.5375
2433.88131	10014.0375
2436.6613	10002.6375
2439.43954	9998.8375
2442.21603	9975.2375
2444.99077	9974.8375
2447.76377	9962.4375
2450.53501	9962.1375
2453.30451	9950.8375
2456.07226	9928.7375
2458.83827	9942.2375
2461.60254	9939.5375
2464.36507	9902.5375
2467.12586	9912.4375
2469.88492	9874.6375
2472.64224	9893.1375
2475.39782	9901.0375
2478.15167	9891.1375
2480.90379	9917.5375
2483.65417	9942.6375
2486.40283	9938.5375
2489.14976	9947.3375
2491.89497	9924.1375
2494.63845	9929.8375
2497.3802	9914.4375
2500.12024	9898.1375
2502.85855	9882.1375
2505.59514	9876.2375
2508.33002	9871.7375
2511.06318	9854.8375
2513.79462	9799.9375
2516.52435	9763.1375
2519.25237	9764.9375
2521.97867	9741.7375
2524.70327	9732.8375
2527.42616	9733.4375
2530.14734	9695.1375
2532.86681	9671.9375
2535.58458	9708.1375
2538.30065	9700.0375
2541.01501	9688.2375
2543.72768	9676.2375
2546.43864	9650.1375
2549.14791	9641.1375
2551.85548	9635.1375
2554.56136	9614.0375
2557.26554	9594.9375
2559.96803	9555.9375
2562.66883	9547.4375
2565.36794	9526.7375
2568.06536	9504.7375
2570.7611	9489.8375
2573.45514	9458.4375
2576.14751	9466.7375
2578.83819	9444.1375
2581.52719	9463.6375
2584.21451	9441.7375
2586.90015	9408.3375
2589.58411	9406.6375
2592.2664	9405.3375
2594.94701	9412.4375
2597.62594	9388.2375
2600.30321	9347.1375
2602.9788	9350.1375
2605.65273	9325.8375
2608.32498	9331.4375
2610.99557	9321.1375
2613.66449	9308.7375
2616.33175	9312.1375
2618.99734	9321.0375
2621.66128	9294.5375
2624.32355	9287.7375
2626.98416	9272.6375
2629.64311	9259.1375
2632.30041	9247.1375
2634.95605	9224.5375
2637.61004	9204.8375
2640.26238	9216.5375
2642.91306	9184.9375
2645.56209	9177.4375
2648.20948	9180.3375
2650.85521	9160.9375
2653.4993	9164.8375
2656.14175	9151.6375
2658.78255	9144.4375
2661.42171	9181.7375
2664.05923	9166.6375
2666.6951	9164.7375
2669.32934	9167.2375
2671.96194	9202.4375
2674.59291	9208.8375
2677.22224	9171.6375
2679.84993	9161.5375
2682.476	9168.3375
2685.10043	9158.5375
2687.72324	9137.1375
2690.34441	9162.9375
2692.96396	9181.4375
2695.58188	9156.3375
2698.19818	9141.4375
2700.81285	9133.8375
2703.4259	9146.6375
2706.03733	9161.7375
2708.64714	9138.2375
2711.25533	9164.9375
2713.86191	9151.7375
2716.46687	9169.9375
2719.07021	9154.7375
2721.67194	9169.0375
2724.27206	9168.9375
2726.87057	9149.7375
2729.46747	9173.8375
2732.06276	9182.8375
2734.65644	9156.7375
2737.24852	9173.1375
2739.83899	9127.1375
2742.42786	9141.3375
2745.01513	9111.6375
2747.60079	9100.4375
2750.18486	9076.6375
2752.76733	9072.4375
2755.3482	9073.2375
2757.92747	9076.3375
2760.50515	9034.5375
2763.08123	9023.6375
2765.65573	9004.4375
2768.22863	9008.2375
2770.79994	8996.9375
2773.36967	8983.2375
2775.9378	8982.7375
2778.50435	8967.8375
2781.06932	8964.7375
2783.6327	8969.5375
2786.1945	8983.2375
2788.75471	8958.1375
2791.31335	8942.8375
2793.87041	8924.5375
2796.42589	8922.6375
2798.97979	8911.4375
2801.53212	8907.0375
2804.08288	8873.7375
2806.63206	8857.6375
2809.17967	8837.8375
2811.72571	8813.6375
2814.27018	8814.9375
2816.81308	8815.4375
2819.35442	8797.0375
2821.89419	8789.4375
2824.43239	8790.5375
2826.96904	8778.5375
2829.50412	8795.9375
2832.03763	8762.7375
2834.56959	8764.3375
2837.1	8775.2375
2839.62884	8763.6375
2842.15613	8823.5375
2844.68186	8853.0375
2847.20604	8895.0375
2849.72867	8948.5375
2852.24974	8944.7375
2854.76927	8929.5375
2857.28724	8915.4375
2859.80367	8872.7375
2862.31855	8864.4375
2864.83189	8830.8375
2867.34368	8824.3375
2869.85393	8814.4375
2872.36264	8809.0375
2874.8698	8788.6375
2877.37543	8790.2375
2879.87952	8790.5375
2882.38207	8774.1375
2884.88308	8763.6375
2887.38256	8776.0375
2889.88051	8748.6375
2892.37692	8776.4375
2894.8718	8768.9375
2897.36515	8780.9375
2899.85698	8793.7375
2902.34727	8793.1375
2904.83604	8804.8375
2907.32328	8814.2375
2909.809	8777.5375
2912.29319	8788.0375
2914.77587	8751.6375
2917.25702	8756.4375
2919.73665	8748.5375
2922.21476	8750.9375
2924.69136	8741.0375
2927.16644	8739.8375
2929.64	8727.0375
2932.11205	8704.0375
2934.58258	8678.2375
2937.05161	8687.5375
2939.51912	8666.5375
2941.98513	8656.3375
2944.44962	8610.6375
2946.91261	8569.3375
2949.37409	8575.5375
2951.83407	8535.0375
2954.29254	8531.3375
2956.74951	8493.2375
2959.20498	8483.9375
2961.65895	8478.4375
2964.11142	8477.1375
2966.56239	8463.2375
2969.01186	8452.6375
2971.45984	8439.4375
2973.90632	8393.3375
2976.35131	8386.1375
2978.7948	8352.9375
2981.23681	8331.4375
2983.67732	8303.1375
2986.11635	8288.7375
2988.55388	8280.1375
2990.98993	8252.5375
2993.4245	8217.1375
2995.85758	8181.7375
2998.28917	8165.4375
3000.71928	8177.3375
3003.14791	8142.8375
3005.57506	8143.8375
3008.00073	8124.6375
3010.42493	8104.1375
3012.84764	8097.5375
3015.26888	8060.5375
3017.68865	8057.9375
3020.10694	8058.2375
3022.52376	8036.9375
3024.9391	8030.9375
3027.35298	8012.1375
3029.76539	7971.5375
3032.17632	8005.8375
3034.5858	8002.8375
3036.9938	7996.8375
3039.40034	7997.1375
3041.80542	7944.1375
3044.20903	7951.4375
3046.61118	7957.6375
3049.01187	7927.3375
3051.4111	7931.6375
3053.80888	7907.4375
3056.20519	7882.7375
3058.60005	7869.6375
3060.99345	7855.8375
3063.3854	7816.7375
3065.7759	7803.5375
3068.16494	7794.0375
3070.55254	7785.2375
3072.93868	7766.5375
3075.32338	7742.5375
3077.70662	7700.9375
3080.08842	7689.8375
3082.46878	7692.2375
3084.84769	7668.0375
3087.22515	7662.1375
3089.60118	7655.5375
3091.97576	7636.8375
3094.3489	7638.9375
3096.72061	7644.9375
3099.09087	7657.5375
3101.4597	7623.7375
3103.82709	7610.6375
3106.19305	7614.3375
3108.55757	7614.3375
3110.92066	7598.8375
3113.28232	7605.2375
3115.64255	7586.9375
3118.00134	7564.9375
3120.35871	7556.9375
3122.71466	7526.8375
3125.06917	7537.3375
3127.42226	7509.3375
3129.77393	7502.7375
3132.12417	7489.5375
3134.47299	7494.2375
3136.82039	7496.5375
3139.16636	7466.7375
3141.51092	7488.7375
3143.85406	7486.1375
3146.19579	7493.6375
3148.53609	7482.5375
3150.87499	7509.2375
3153.21246	7475.8375
3155.54853	7500.5375
3157.88318	7502.1375
3160.21642	7493.7375
3162.54826	7492.7375
3164.87868	7491.4375
3167.2077	7506.6375
3169.5353	7492.1375
3171.86151	7488.8375
3174.18631	7500.2375
3176.5097	7492.8375
3178.83169	7482.9375
3181.15228	7482.8375
3183.47147	7467.7375
3185.78926	7459.9375
3188.10565	7455.9375
3190.42065	7437.7375
3192.73424	7437.7375
3195.04645	7431.2375
3197.35725	7433.2375
3199.66667	7439.9375
3201.97469	7479.4375
3204.28132	7428.9375
3206.58656	7449.2375
3208.8904	7463.9375
3211.19287	7432.4375
3213.49394	7434.0375
3215.79363	7454.1375
3218.09193	7466.8375
3220.38884	7460.2375
3222.68438	7458.0375
3224.97853	7448.2375
3227.2713	7420.8375
3229.56269	7420.3375
3231.8527	7414.8375
3234.14133	7422.1375
3236.42858	7384.8375
3238.71446	7371.7375
3240.99896	7341.2375
3243.28209	7345.8375
3245.56384	7338.1375
3247.84423	7342.9375
3250.12324	7327.5375
3252.40088	7335.6375
3254.67715	7324.1375
3256.95205	7308.2375
3259.22558	7278.2375
3261.49775	7281.8375
3263.76855	7293.7375
3266.03799	7254.0375
3268.30606	7246.4375
3270.57277	7246.1375
3272.83812	7239.6375
3275.10211	7207.0375
3277.36474	7196.4375
3279.62601	7202.2375
3281.88593	7184.6375
3284.14448	7174.6375
3286.40168	7165.8375
3288.65753	7200.2375
3290.91202	7163.1375
3293.16516	7150.6375
3295.41695	7147.2375
3297.66738	7109.7375
3299.91647	7056.9375
3302.16421	7027.6375
3304.4106	6993.0375
3306.65564	6931.0375
3308.89933	6869.7375
3311.14169	6855.8375
3313.38269	6780.0375
3315.62236	6718.3375
3317.86068	6673.3375
3320.09766	6624.0375
3322.3333	6584.0375
3324.5676	6541.8375
3326.80056	6451.4375
3329.03219	6416.8375
3331.26248	3.6375
3333.49143	0.5375
3335.71905	0.0375
