EXPLAIN
TAG	CHRONOA
TITLE	LABEL	Chronoamperometry Scan	Test Identifier
DATE	LABEL	2/2/2022	Date
TIME	LABEL	11:36:03	Time
NOTES	NOTES	1	Notes...
	
PSTAT	PSTAT	IFC1010-21051	Potentiostat
VPRESTEP	POTEN	0.00000E+000	F	Pre-step Voltage (V)
TPRESTEP	QUANT	5.00000E-001	Pre-step Delay Time (s)
VSTEP1	POTEN	-2.00000E-001	F	Step 1 Voltage (V)
TSTEP1	QUANT	3.00000E+002	Step 1 Time (s)
VSTEP2	POTEN	-3.00000E-001	F	Step 2 Voltage (V)
TSTEP2	QUANT	1.00000E+000	Step 2 Time (s)
SAMPLETIME	QUANT	1.00000E-001	Sample Period (s)
DECIMATE	TOGGLE	T	Decimate
ILIMIT	QUANT	1.00000E+000	Limit I (mA/cm^2)
IMODE	SELECTOR	1	I/E Range Mode
IRANGE	QUANT	3.00000E-001	Max Current (mA)
EQDELAY	QUANT	5.00000E+000	Equil. Time (s)
SAMPLINGMODE	SELECTOR	1	Sampling Mode
AREA	QUANT	1.00000E+000	Sample Area (cm^2)
IRCOMP	SELECTOR	0	IRComp
PFCOR	QUANT	5.00000E+001	PF Corr. (ohm)
SEQUENCER	TOGGLE	TRUE	Run as Sequence
PSTATMODEL	IQUANT	64	Pstat Model
PSTATSECTION	LABEL	IFC1010-21051	Pstat Section
PSTATSERIALNO	LABEL	21051	Pstat Serial Number
CTRLMODE	IQUANT	1	Control Mode
ELECTROMETER	IQUANT	0	RE=0 or CS=1
IESTAB	IQUANT	0	I/E Stability
CASPEED	IQUANT	4	Control Amp Speed
CONVENTION	IQUANT	1	Current Convention
ICHRANGE	IQUANT	2	Ich Range
ICHRANGEMODE	TOGGLE	T	Ich Auto Range
ICHOFFSETENABLE	TOGGLE	F	Ich Offset Enable
ICHOFFSET	QUANT	0	Ich Offset (V)
ICHFILTER	IQUANT	3	Ich Filter
VCHRANGE	IQUANT	3	Vch Range
VCHRANGEMODE	TOGGLE	T	Vch Auto Range
VCHOFFSETENABLE	TOGGLE	F	Vch Offset Enable
VCHOFFSET	QUANT	0	Vch Offset (V)
VCHFILTER	IQUANT	3	Vch Filter
IERANGELOWERLIMIT	IQUANT	4	I/E Range Lower Limit
IERANGEMODE	TOGGLE	F	I/E AutoRange
IERANGE	IQUANT	9	I/E Range
ACHSELECT	IQUANT	0	Ach Select
ACHRANGE	IQUANT	2	Ach Range
ACHOFFSETENABLE	TOGGLE	F	Ach Offset Enable
ACHOFFSET	QUANT	0	Ach Offset (V)
ACHFILTER	IQUANT	1	Ach Filter
SENSECABLEID	IQUANT	14	Sense Cable ID
PWRCABLEID	IQUANT	14	Power Cable ID
DCCALDATE	LABEL	1/24/2022	DC Calibration Date
ACCALDATE	LABEL	4/2/2018	AC Calibration Date
FRAMEWORKVERSION	QUANT	7.06	Framework Version
INSTRUMENTVERSION	LABEL	4.30	Instrument Version
CURVE	TABLE	98
	Pt	T	Vf	Im	Vu	Sig	Ach	IERange	Over	Temp
	#	s	V vs. Ref.	A	V	V	V	#	bits	deg C
	0	-0.4	-1.01346E-003	-2.37439E-005	0.00000E+000	-6.72489E-005	0.00000E+000	9	...........	1425.87
	1	-0.3	-3.74290E-004	-2.36246E-005	0.00000E+000	-6.72489E-005	0.00000E+000	9	...........	1425.87
	2	-0.2	-2.16455E-004	-2.35180E-005	0.00000E+000	-6.72489E-005	0.00000E+000	9	...........	1425.87
	3	-0.1	-2.02443E-004	-2.34281E-005	0.00000E+000	-6.72489E-005	0.00000E+000	9	...........	1425.87
	4	0	-2.02008E-004	-2.33324E-005	0.00000E+000	-6.72489E-005	0.00000E+000	9	...........	1425.87
	5	0.1	-3.29270E-002	-9.49904E-004	0.00000E+000	-2.00066E-001	0.00000E+000	9	.........v.	1425.87
	6	0.2	-2.00238E-001	-8.02168E-004	0.00000E+000	-2.00066E-001	0.00000E+000	9	...........	1425.87
	7	0.3	-2.00238E-001	-6.99289E-004	0.00000E+000	-2.00066E-001	0.00000E+000	9	...........	1425.87
	8	0.4	-2.00239E-001	-6.21029E-004	0.00000E+000	-2.00066E-001	0.00000E+000	9	...........	1425.87
	9	0.5	-2.00239E-001	-5.58298E-004	0.00000E+000	-2.00066E-001	0.00000E+000	9	...........	1425.87
	10	0.6	-2.00239E-001	-5.06309E-004	0.00000E+000	-2.00066E-001	0.00000E+000	9	...........	1425.87
	11	0.7	-2.00240E-001	-4.62230E-004	0.00000E+000	-2.00066E-001	0.00000E+000	9	...........	1425.87
	12	0.8	-2.00241E-001	-4.24147E-004	0.00000E+000	-2.00066E-001	0.00000E+000	9	...........	1425.87
	13	0.9	-2.00242E-001	-3.90914E-004	0.00000E+000	-2.00066E-001	0.00000E+000	9	...........	1425.87
	14	1	-2.00241E-001	-3.61610E-004	0.00000E+000	-2.00066E-001	0.00000E+000	9	...........	1425.87
	15	1.1	-2.00241E-001	-3.35618E-004	0.00000E+000	-2.00066E-001	0.00000E+000	9	...........	1425.60
	16	1.2	-2.00242E-001	-3.12492E-004	0.00000E+000	-2.00066E-001	0.00000E+000	9	...........	1425.60
	17	1.3	-2.00242E-001	-2.91802E-004	0.00000E+000	-2.00066E-001	0.00000E+000	9	...........	1425.60
	18	1.4	-2.00241E-001	-2.73275E-004	0.00000E+000	-2.00066E-001	0.00000E+000	9	...........	1425.60
	19	1.5	-2.00242E-001	-2.56670E-004	0.00000E+000	-2.00066E-001	0.00000E+000	9	...........	1425.60
	20	1.6	-2.00241E-001	-2.41689E-004	0.00000E+000	-2.00066E-001	0.00000E+000	9	...........	1425.60
	21	1.7	-2.00241E-001	-2.28191E-004	0.00000E+000	-2.00066E-001	0.00000E+000	9	...........	1425.60
	22	1.8	-2.00242E-001	-2.16004E-004	0.00000E+000	-2.00066E-001	0.00000E+000	9	...........	1425.60
	23	1.9	-2.00243E-001	-2.04962E-004	0.00000E+000	-2.00066E-001	0.00000E+000	9	...........	1425.60
	24	2	-2.00242E-001	-1.94948E-004	0.00000E+000	-2.00066E-001	0.00000E+000	9	...........	1425.60
	25	2.1	-2.00242E-001	-1.85859E-004	0.00000E+000	-2.00066E-001	0.00000E+000	9	...........	1426.04
	26	2.2	-2.00243E-001	-1.77591E-004	0.00000E+000	-2.00066E-001	0.00000E+000	9	...........	1426.04
	27	2.3	-2.00243E-001	-1.70040E-004	0.00000E+000	-2.00066E-001	0.00000E+000	9	...........	1426.04
	28	2.4	-2.00244E-001	-1.63123E-004	0.00000E+000	-2.00066E-001	0.00000E+000	9	...........	1426.04
	29	2.5	-2.00244E-001	-1.56856E-004	0.00000E+000	-2.00066E-001	0.00000E+000	9	...........	1426.04
	30	2.6	-2.00244E-001	-1.51097E-004	0.00000E+000	-2.00066E-001	0.00000E+000	9	...........	1426.04
	31	2.7	-2.00244E-001	-1.45813E-004	0.00000E+000	-2.00066E-001	0.00000E+000	9	...........	1426.04
	32	2.8	-2.00243E-001	-1.40926E-004	0.00000E+000	-2.00066E-001	0.00000E+000	9	...........	1426.04
	33	2.9	-2.00245E-001	-1.36460E-004	0.00000E+000	-2.00066E-001	0.00000E+000	9	...........	1426.04
	34	3	-2.00246E-001	-1.32322E-004	0.00000E+000	-2.00066E-001	0.00000E+000	9	...........	1426.04
	35	3.1	-2.00244E-001	-1.28514E-004	0.00000E+000	-2.00066E-001	0.00000E+000	9	...........	1426.04
	36	3.2	-2.00244E-001	-1.25010E-004	0.00000E+000	-2.00066E-001	0.00000E+000	9	...........	1426.04
	37	3.3	-2.00246E-001	-1.21748E-004	0.00000E+000	-2.00066E-001	0.00000E+000	9	...........	1426.04
	38	3.4	-2.00245E-001	-1.18720E-004	0.00000E+000	-2.00066E-001	0.00000E+000	9	...........	1426.04
	39	3.5	-2.00244E-001	-1.15920E-004	0.00000E+000	-2.00066E-001	0.00000E+000	9	...........	1426.04
	40	3.6	-2.00243E-001	-1.13299E-004	0.00000E+000	-2.00066E-001	0.00000E+000	9	...........	1426.04
	41	3.7	-2.00244E-001	-1.10887E-004	0.00000E+000	-2.00066E-001	0.00000E+000	9	...........	1426.04
	42	3.8	-2.00245E-001	-1.08607E-004	0.00000E+000	-2.00066E-001	0.00000E+000	9	...........	1426.04
	43	3.9	-2.00245E-001	-1.06489E-004	0.00000E+000	-2.00066E-001	0.00000E+000	9	...........	1426.04
	44	4	-2.00246E-001	-1.04509E-004	0.00000E+000	-2.00066E-001	0.00000E+000	9	...........	1426.04
	45	4.1	-2.00245E-001	-1.02665E-004	0.00000E+000	-2.00066E-001	0.00000E+000	9	...........	1425.87
	46	4.2	-2.00245E-001	-1.00909E-004	0.00000E+000	-2.00066E-001	0.00000E+000	9	...........	1425.87
	47	4.3	-2.00244E-001	-9.92700E-005	0.00000E+000	-2.00066E-001	0.00000E+000	9	...........	1425.87
	48	4.4	-2.00243E-001	-9.77357E-005	0.00000E+000	-2.00066E-001	0.00000E+000	9	...........	1425.87
	49	4.5	-2.00244E-001	-9.62795E-005	0.00000E+000	-2.00066E-001	0.00000E+000	9	...........	1425.87
	50	4.6	-2.00245E-001	-9.49210E-005	0.00000E+000	-2.00066E-001	0.00000E+000	9	...........	1425.87
	51	4.7	-2.00244E-001	-9.36235E-005	0.00000E+000	-2.00066E-001	0.00000E+000	9	...........	1425.87
	52	4.8	-2.00245E-001	-9.24165E-005	0.00000E+000	-2.00066E-001	0.00000E+000	9	...........	1425.87
	53	4.9	-2.00243E-001	-9.12396E-005	0.00000E+000	-2.00066E-001	0.00000E+000	9	...........	1425.87
	54	5	-2.00246E-001	-9.01660E-005	0.00000E+000	-2.00066E-001	0.00000E+000	9	...........	1425.87
	55	5.1	-2.00246E-001	-8.91212E-005	0.00000E+000	-2.00066E-001	0.00000E+000	9	...........	1425.60
	56	5.2	-2.00245E-001	-8.81599E-005	0.00000E+000	-2.00066E-001	0.00000E+000	9	...........	1425.60
	57	5.3	-2.00244E-001	-8.71962E-005	0.00000E+000	-2.00066E-001	0.00000E+000	9	...........	1425.60
	58	5.4	-2.00246E-001	-8.63261E-005	0.00000E+000	-2.00066E-001	0.00000E+000	9	...........	1425.60
	59	5.5	-2.00245E-001	-8.54615E-005	0.00000E+000	-2.00066E-001	0.00000E+000	9	...........	1425.60
	60	5.6	-2.00247E-001	-8.46569E-005	0.00000E+000	-2.00066E-001	0.00000E+000	9	...........	1425.60
	61	5.7	-2.00245E-001	-8.38832E-005	0.00000E+000	-2.00066E-001	0.00000E+000	9	...........	1425.60
	62	5.8	-2.00245E-001	-8.31416E-005	0.00000E+000	-2.00066E-001	0.00000E+000	9	...........	1425.60
	63	5.9	-2.00246E-001	-8.24310E-005	0.00000E+000	-2.00066E-001	0.00000E+000	9	...........	1425.60
	64	6	-2.00247E-001	-8.17637E-005	0.00000E+000	-2.00066E-001	0.00000E+000	9	...........	1425.60
	65	6.1	-2.00246E-001	-8.11058E-005	0.00000E+000	-2.00066E-001	0.00000E+000	9	...........	1426.04
	66	7.1	-2.00245E-001	-7.58079E-005	0.00000E+000	-2.00066E-001	0.00000E+000	9	...........	1425.69
	67	8.1	-2.00244E-001	-7.20500E-005	0.00000E+000	-2.00066E-001	0.00000E+000	9	...........	1426.04
	68	9.1	-2.00244E-001	-6.92479E-005	0.00000E+000	-2.00066E-001	0.00000E+000	9	...........	1426.04
	69	10.1	-2.00246E-001	-6.70390E-005	0.00000E+000	-2.00066E-001	0.00000E+000	9	...........	1426.04
	70	11.1	-2.00246E-001	-6.52228E-005	0.00000E+000	-2.00066E-001	0.00000E+000	9	...........	1426.04
	71	12.1	-2.00247E-001	-6.37222E-005	0.00000E+000	-2.00066E-001	0.00000E+000	9	...........	1426.04
	72	13.1	-2.00247E-001	-6.24085E-005	0.00000E+000	-2.00066E-001	0.00000E+000	9	...........	1426.04
	73	14.1	-2.00247E-001	-6.12937E-005	0.00000E+000	-2.00066E-001	0.00000E+000	9	...........	1426.04
	74	15.1	-2.00246E-001	-6.03156E-005	0.00000E+000	-2.00066E-001	0.00000E+000	9	...........	1426.04
	75	16.1	-2.00247E-001	-5.94472E-005	0.00000E+000	-2.00066E-001	0.00000E+000	9	...........	1426.04
	76	26.1	-2.00246E-001	-5.40897E-005	0.00000E+000	-2.00066E-001	0.00000E+000	9	...........	1426.04
	77	36.1	-2.00247E-001	-5.08353E-005	0.00000E+000	-2.00066E-001	0.00000E+000	9	...........	1426.13
	78	46.1	-2.00246E-001	-4.86536E-005	0.00000E+000	-2.00066E-001	0.00000E+000	9	...........	1426.13
	79	56.1	-2.00247E-001	-4.70130E-005	0.00000E+000	-2.00066E-001	0.00000E+000	9	...........	1426.13
	80	66.1	-2.00246E-001	-4.55646E-005	0.00000E+000	-2.00066E-001	0.00000E+000	9	...........	1426.13
	81	76.1	-2.00249E-001	-4.42354E-005	0.00000E+000	-2.00066E-001	0.00000E+000	9	...........	1426.13
	82	86.1	-2.00246E-001	-4.30145E-005	0.00000E+000	-2.00066E-001	0.00000E+000	9	...........	1426.13
	83	96.1	-2.00247E-001	-4.20670E-005	0.00000E+000	-2.00066E-001	0.00000E+000	9	...........	1426.13
	84	106.1	-2.00246E-001	-4.13096E-005	0.00000E+000	-2.00066E-001	0.00000E+000	9	...........	1426.13
	85	116.1	-2.00248E-001	-4.05300E-005	0.00000E+000	-2.00066E-001	0.00000E+000	9	...........	1426.13
	86	216.1	-2.00249E-001	-3.62369E-005	0.00000E+000	-2.00066E-001	0.00000E+000	9	...........	1426.13
	87	300	-2.00249E-001	-3.46990E-005	0.00000E+000	-2.00066E-001	0.00000E+000	9	...........	1426.04
	88	300.1	-3.00250E-001	-4.89338E-004	0.00000E+000	-3.00066E-001	0.00000E+000	9	...........	1426.04
	89	300.2	-3.00395E-001	-4.01464E-004	0.00000E+000	-3.00066E-001	0.00000E+000	9	...........	1426.04
	90	300.3	-3.00410E-001	-3.41037E-004	0.00000E+000	-3.00066E-001	0.00000E+000	9	...........	1426.04
	91	300.4	-3.00403E-001	-2.97021E-004	0.00000E+000	-3.00066E-001	0.00000E+000	9	...........	1426.04
	92	300.5	-3.00411E-001	-2.63864E-004	0.00000E+000	-3.00066E-001	0.00000E+000	9	...........	1426.04
	93	300.6	-3.00406E-001	-2.38060E-004	0.00000E+000	-3.00066E-001	0.00000E+000	9	...........	1426.04
	94	300.7	-3.00423E-001	-2.17591E-004	0.00000E+000	-3.00066E-001	0.00000E+000	9	...........	1426.04
	95	300.8	-3.00411E-001	-2.00972E-004	0.00000E+000	-3.00066E-001	0.00000E+000	9	...........	1426.04
	96	300.9	-3.00411E-001	-1.87374E-004	0.00000E+000	-3.00066E-001	0.00000E+000	9	...........	1426.04
	97	301	-3.00415E-001	-1.76045E-004	0.00000E+000	-3.00066E-001	0.00000E+000	9	...........	1426.04
