EXPLAIN
TAG	CHRONOA
TITLE	LABEL	Chronoamperometry Scan	Test Identifier
DATE	LABEL	2/2/2022	Date
TIME	LABEL	13:34:46	Time
NOTES	NOTES	1	Notes...
	
PSTAT	PSTAT	IFC1010-21051	Potentiostat
VPRESTEP	POTEN	0.00000E+000	F	Pre-step Voltage (V)
TPRESTEP	QUANT	5.00000E-001	Pre-step Delay Time (s)
VSTEP1	POTEN	-2.00000E-001	F	Step 1 Voltage (V)
TSTEP1	QUANT	3.00000E+002	Step 1 Time (s)
VSTEP2	POTEN	-3.00000E-001	F	Step 2 Voltage (V)
TSTEP2	QUANT	1.00000E+000	Step 2 Time (s)
SAMPLETIME	QUANT	1.00000E-001	Sample Period (s)
DECIMATE	TOGGLE	T	Decimate
ILIMIT	QUANT	1.00000E+000	Limit I (mA/cm^2)
IMODE	SELECTOR	1	I/E Range Mode
IRANGE	QUANT	3.00000E-001	Max Current (mA)
EQDELAY	QUANT	5.00000E+000	Equil. Time (s)
SAMPLINGMODE	SELECTOR	1	Sampling Mode
AREA	QUANT	1.00000E+000	Sample Area (cm^2)
IRCOMP	SELECTOR	0	IRComp
PFCOR	QUANT	5.00000E+001	PF Corr. (ohm)
SEQUENCER	TOGGLE	TRUE	Run as Sequence
PSTATMODEL	IQUANT	64	Pstat Model
PSTATSECTION	LABEL	IFC1010-21051	Pstat Section
PSTATSERIALNO	LABEL	21051	Pstat Serial Number
CTRLMODE	IQUANT	1	Control Mode
ELECTROMETER	IQUANT	0	RE=0 or CS=1
IESTAB	IQUANT	0	I/E Stability
CASPEED	IQUANT	4	Control Amp Speed
CONVENTION	IQUANT	1	Current Convention
ICHRANGE	IQUANT	2	Ich Range
ICHRANGEMODE	TOGGLE	T	Ich Auto Range
ICHOFFSETENABLE	TOGGLE	F	Ich Offset Enable
ICHOFFSET	QUANT	0	Ich Offset (V)
ICHFILTER	IQUANT	3	Ich Filter
VCHRANGE	IQUANT	3	Vch Range
VCHRANGEMODE	TOGGLE	T	Vch Auto Range
VCHOFFSETENABLE	TOGGLE	F	Vch Offset Enable
VCHOFFSET	QUANT	0	Vch Offset (V)
VCHFILTER	IQUANT	3	Vch Filter
IERANGELOWERLIMIT	IQUANT	4	I/E Range Lower Limit
IERANGEMODE	TOGGLE	F	I/E AutoRange
IERANGE	IQUANT	9	I/E Range
ACHSELECT	IQUANT	0	Ach Select
ACHRANGE	IQUANT	2	Ach Range
ACHOFFSETENABLE	TOGGLE	F	Ach Offset Enable
ACHOFFSET	QUANT	0	Ach Offset (V)
ACHFILTER	IQUANT	1	Ach Filter
SENSECABLEID	IQUANT	14	Sense Cable ID
PWRCABLEID	IQUANT	14	Power Cable ID
DCCALDATE	LABEL	1/24/2022	DC Calibration Date
ACCALDATE	LABEL	4/2/2018	AC Calibration Date
FRAMEWORKVERSION	QUANT	7.06	Framework Version
INSTRUMENTVERSION	LABEL	4.30	Instrument Version
CURVE	TABLE	98
	Pt	T	Vf	Im	Vu	Sig	Ach	IERange	Over	Temp
	#	s	V vs. Ref.	A	V	V	V	#	bits	deg C
	0	-0.4	-1.03748E-003	-2.28823E-005	0.00000E+000	-6.72489E-005	0.00000E+000	9	...........	1426.13
	1	-0.3	-3.89006E-004	-2.28024E-005	0.00000E+000	-6.72489E-005	0.00000E+000	9	...........	1426.13
	2	-0.2	-2.25646E-004	-2.27242E-005	0.00000E+000	-6.72489E-005	0.00000E+000	9	...........	1426.13
	3	-0.1	-2.10561E-004	-2.26437E-005	0.00000E+000	-6.72489E-005	0.00000E+000	9	...........	1426.13
	4	0	-2.10139E-004	-2.25757E-005	0.00000E+000	-6.72489E-005	0.00000E+000	9	...........	1426.13
	5	0.1	-3.29270E-002	-9.08876E-004	0.00000E+000	-2.00066E-001	0.00000E+000	9	.........v.	1426.13
	6	0.2	-2.00248E-001	-7.50273E-004	0.00000E+000	-2.00066E-001	0.00000E+000	9	...........	1426.13
	7	0.3	-2.00247E-001	-6.43509E-004	0.00000E+000	-2.00066E-001	0.00000E+000	9	...........	1426.13
	8	0.4	-2.00249E-001	-5.64025E-004	0.00000E+000	-2.00066E-001	0.00000E+000	9	...........	1426.13
	9	0.5	-2.00247E-001	-5.01516E-004	0.00000E+000	-2.00066E-001	0.00000E+000	9	...........	1426.13
	10	0.6	-2.00248E-001	-4.50688E-004	0.00000E+000	-2.00066E-001	0.00000E+000	9	...........	1426.13
	11	0.7	-2.00250E-001	-4.08313E-004	0.00000E+000	-2.00066E-001	0.00000E+000	9	...........	1426.13
	12	0.8	-2.00249E-001	-3.72316E-004	0.00000E+000	-2.00066E-001	0.00000E+000	9	...........	1426.13
	13	0.9	-2.00249E-001	-3.41440E-004	0.00000E+000	-2.00066E-001	0.00000E+000	9	...........	1426.13
	14	1	-2.00252E-001	-3.14771E-004	0.00000E+000	-2.00066E-001	0.00000E+000	9	...........	1426.13
	15	1.1	-2.00251E-001	-2.91602E-004	0.00000E+000	-2.00066E-001	0.00000E+000	9	...........	1426.12
	16	1.2	-2.00252E-001	-2.71413E-004	0.00000E+000	-2.00066E-001	0.00000E+000	9	...........	1426.04
	17	1.3	-2.00252E-001	-2.53697E-004	0.00000E+000	-2.00066E-001	0.00000E+000	9	...........	1426.04
	18	1.4	-2.00251E-001	-2.38145E-004	0.00000E+000	-2.00066E-001	0.00000E+000	9	...........	1426.04
	19	1.5	-2.00251E-001	-2.24387E-004	0.00000E+000	-2.00066E-001	0.00000E+000	9	...........	1426.04
	20	1.6	-2.00254E-001	-2.12196E-004	0.00000E+000	-2.00066E-001	0.00000E+000	9	...........	1426.04
	21	1.7	-2.00252E-001	-2.01309E-004	0.00000E+000	-2.00066E-001	0.00000E+000	9	...........	1426.04
	22	1.8	-2.00251E-001	-1.91625E-004	0.00000E+000	-2.00066E-001	0.00000E+000	9	...........	1426.04
	23	1.9	-2.00253E-001	-1.82930E-004	0.00000E+000	-2.00066E-001	0.00000E+000	9	...........	1426.04
	24	2	-2.00252E-001	-1.75106E-004	0.00000E+000	-2.00066E-001	0.00000E+000	9	...........	1426.04
	25	2.1	-2.00252E-001	-1.68081E-004	0.00000E+000	-2.00066E-001	0.00000E+000	9	...........	1426.03
	26	2.2	-2.00255E-001	-1.61720E-004	0.00000E+000	-2.00066E-001	0.00000E+000	9	...........	1425.87
	27	2.3	-2.00254E-001	-1.55936E-004	0.00000E+000	-2.00066E-001	0.00000E+000	9	...........	1425.87
	28	2.4	-2.00253E-001	-1.50700E-004	0.00000E+000	-2.00066E-001	0.00000E+000	9	...........	1425.87
	29	2.5	-2.00254E-001	-1.45916E-004	0.00000E+000	-2.00066E-001	0.00000E+000	9	...........	1425.87
	30	2.6	-2.00253E-001	-1.41555E-004	0.00000E+000	-2.00066E-001	0.00000E+000	9	...........	1425.87
	31	2.7	-2.00254E-001	-1.37560E-004	0.00000E+000	-2.00066E-001	0.00000E+000	9	...........	1425.87
	32	2.8	-2.00253E-001	-1.33876E-004	0.00000E+000	-2.00066E-001	0.00000E+000	9	...........	1425.87
	33	2.9	-2.00254E-001	-1.30506E-004	0.00000E+000	-2.00066E-001	0.00000E+000	9	...........	1425.87
	34	3	-2.00253E-001	-1.27380E-004	0.00000E+000	-2.00066E-001	0.00000E+000	9	...........	1425.87
	35	3.1	-2.00254E-001	-1.24482E-004	0.00000E+000	-2.00066E-001	0.00000E+000	9	...........	1425.89
	36	3.2	-2.00255E-001	-1.21829E-004	0.00000E+000	-2.00066E-001	0.00000E+000	9	...........	1426.13
	37	3.3	-2.00253E-001	-1.19358E-004	0.00000E+000	-2.00066E-001	0.00000E+000	9	...........	1426.13
	38	3.4	-2.00252E-001	-1.17042E-004	0.00000E+000	-2.00066E-001	0.00000E+000	9	...........	1426.13
	39	3.5	-2.00252E-001	-1.14865E-004	0.00000E+000	-2.00066E-001	0.00000E+000	9	...........	1426.13
	40	3.6	-2.00252E-001	-1.12888E-004	0.00000E+000	-2.00066E-001	0.00000E+000	9	...........	1426.13
	41	3.7	-2.00254E-001	-1.11023E-004	0.00000E+000	-2.00066E-001	0.00000E+000	9	...........	1426.13
	42	3.8	-2.00253E-001	-1.09261E-004	0.00000E+000	-2.00066E-001	0.00000E+000	9	...........	1426.13
	43	3.9	-2.00253E-001	-1.07594E-004	0.00000E+000	-2.00066E-001	0.00000E+000	9	...........	1426.13
	44	4	-2.00252E-001	-1.06039E-004	0.00000E+000	-2.00066E-001	0.00000E+000	9	...........	1426.13
	45	4.1	-2.00254E-001	-1.04611E-004	0.00000E+000	-2.00066E-001	0.00000E+000	9	...........	1426.11
	46	4.2	-2.00255E-001	-1.03224E-004	0.00000E+000	-2.00066E-001	0.00000E+000	9	...........	1425.87
	47	4.3	-2.00253E-001	-1.01900E-004	0.00000E+000	-2.00066E-001	0.00000E+000	9	...........	1425.87
	48	4.4	-2.00252E-001	-1.00662E-004	0.00000E+000	-2.00066E-001	0.00000E+000	9	...........	1425.87
	49	4.5	-2.00253E-001	-9.94933E-005	0.00000E+000	-2.00066E-001	0.00000E+000	9	...........	1425.87
	50	4.6	-2.00252E-001	-9.83776E-005	0.00000E+000	-2.00066E-001	0.00000E+000	9	...........	1425.87
	51	4.7	-2.00252E-001	-9.73155E-005	0.00000E+000	-2.00066E-001	0.00000E+000	9	...........	1425.87
	52	4.8	-2.00252E-001	-9.62917E-005	0.00000E+000	-2.00066E-001	0.00000E+000	9	...........	1425.87
	53	4.9	-2.00254E-001	-9.53676E-005	0.00000E+000	-2.00066E-001	0.00000E+000	9	...........	1425.87
	54	5	-2.00254E-001	-9.44438E-005	0.00000E+000	-2.00066E-001	0.00000E+000	9	...........	1425.87
	55	5.1	-2.00254E-001	-9.35549E-005	0.00000E+000	-2.00066E-001	0.00000E+000	9	...........	1425.87
	56	5.2	-2.00254E-001	-9.27516E-005	0.00000E+000	-2.00066E-001	0.00000E+000	9	...........	1425.95
	57	5.3	-2.00254E-001	-9.19443E-005	0.00000E+000	-2.00066E-001	0.00000E+000	9	...........	1425.95
	58	5.4	-2.00253E-001	-9.11765E-005	0.00000E+000	-2.00066E-001	0.00000E+000	9	...........	1425.95
	59	5.5	-2.00254E-001	-9.04555E-005	0.00000E+000	-2.00066E-001	0.00000E+000	9	...........	1425.95
	60	5.6	-2.00253E-001	-8.97208E-005	0.00000E+000	-2.00066E-001	0.00000E+000	9	...........	1425.95
	61	5.7	-2.00253E-001	-8.90500E-005	0.00000E+000	-2.00066E-001	0.00000E+000	9	...........	1425.95
	62	5.8	-2.00254E-001	-8.84022E-005	0.00000E+000	-2.00066E-001	0.00000E+000	9	...........	1425.95
	63	5.9	-2.00253E-001	-8.77917E-005	0.00000E+000	-2.00066E-001	0.00000E+000	9	...........	1425.95
	64	6	-2.00254E-001	-8.71738E-005	0.00000E+000	-2.00066E-001	0.00000E+000	9	...........	1425.95
	65	6.1	-2.00253E-001	-8.65662E-005	0.00000E+000	-2.00066E-001	0.00000E+000	9	...........	1425.95
	66	7.1	-2.00254E-001	-8.16458E-005	0.00000E+000	-2.00066E-001	0.00000E+000	9	...........	1425.87
	67	8.1	-2.00256E-001	-7.79666E-005	0.00000E+000	-2.00066E-001	0.00000E+000	9	...........	1425.95
	68	9.1	-2.00254E-001	-7.50344E-005	0.00000E+000	-2.00066E-001	0.00000E+000	9	...........	1425.95
	69	10.1	-2.00255E-001	-7.26373E-005	0.00000E+000	-2.00066E-001	0.00000E+000	9	...........	1425.97
	70	11.1	-2.00256E-001	-7.06158E-005	0.00000E+000	-2.00066E-001	0.00000E+000	9	...........	1426.22
	71	12.1	-2.00254E-001	-6.89134E-005	0.00000E+000	-2.00066E-001	0.00000E+000	9	...........	1426.20
	72	13.1	-2.00256E-001	-6.74013E-005	0.00000E+000	-2.00066E-001	0.00000E+000	9	...........	1425.95
	73	14.1	-2.00256E-001	-6.60616E-005	0.00000E+000	-2.00066E-001	0.00000E+000	9	...........	1425.95
	74	15.1	-2.00257E-001	-6.48703E-005	0.00000E+000	-2.00066E-001	0.00000E+000	9	...........	1425.95
	75	16.1	-2.00255E-001	-6.38152E-005	0.00000E+000	-2.00066E-001	0.00000E+000	9	...........	1425.97
	76	26.1	-2.00254E-001	-5.70693E-005	0.00000E+000	-2.00066E-001	0.00000E+000	9	...........	1426.31
	77	36.1	-2.00254E-001	-5.31842E-005	0.00000E+000	-2.00066E-001	0.00000E+000	9	...........	1426.31
	78	46.1	-2.00255E-001	-5.04098E-005	0.00000E+000	-2.00066E-001	0.00000E+000	9	...........	1426.31
	79	56.1	-2.00256E-001	-4.82523E-005	0.00000E+000	-2.00066E-001	0.00000E+000	9	...........	1426.31
	80	66.1	-2.00255E-001	-4.64849E-005	0.00000E+000	-2.00066E-001	0.00000E+000	9	...........	1426.31
	81	76.1	-2.00256E-001	-4.51575E-005	0.00000E+000	-2.00066E-001	0.00000E+000	9	...........	1426.31
	82	86.1	-2.00253E-001	-4.41664E-005	0.00000E+000	-2.00066E-001	0.00000E+000	9	...........	1426.31
	83	96.1	-2.00255E-001	-4.32745E-005	0.00000E+000	-2.00066E-001	0.00000E+000	9	...........	1426.31
	84	106.1	-2.00259E-001	-4.25087E-005	0.00000E+000	-2.00066E-001	0.00000E+000	9	...........	1426.31
	85	116.1	-2.00255E-001	-4.18708E-005	0.00000E+000	-2.00066E-001	0.00000E+000	9	...........	1426.31
	86	216.1	-2.00255E-001	-3.82729E-005	0.00000E+000	-2.00066E-001	0.00000E+000	9	...........	1426.31
	87	300	-2.00255E-001	-3.70855E-005	0.00000E+000	-2.00066E-001	0.00000E+000	9	...........	1426.31
	88	300.1	-3.00256E-001	-4.72679E-004	0.00000E+000	-3.00066E-001	0.00000E+000	9	...........	1426.31
	89	300.2	-3.00424E-001	-3.80396E-004	0.00000E+000	-3.00066E-001	0.00000E+000	9	...........	1426.31
	90	300.3	-3.00439E-001	-3.19468E-004	0.00000E+000	-3.00066E-001	0.00000E+000	9	...........	1426.31
	91	300.4	-3.00427E-001	-2.76546E-004	0.00000E+000	-3.00066E-001	0.00000E+000	9	...........	1426.31
	92	300.5	-3.00431E-001	-2.45064E-004	0.00000E+000	-3.00066E-001	0.00000E+000	9	...........	1426.31
	93	300.6	-3.00409E-001	-2.21290E-004	0.00000E+000	-3.00066E-001	0.00000E+000	9	...........	1426.31
	94	300.7	-3.00417E-001	-2.02924E-004	0.00000E+000	-3.00066E-001	0.00000E+000	9	...........	1426.31
	95	300.8	-3.00411E-001	-1.88398E-004	0.00000E+000	-3.00066E-001	0.00000E+000	9	...........	1426.31
	96	300.9	-3.00435E-001	-1.76760E-004	0.00000E+000	-3.00066E-001	0.00000E+000	9	...........	1426.31
	97	301	-3.00426E-001	-1.67341E-004	0.00000E+000	-3.00066E-001	0.00000E+000	9	...........	1426.31
