Data from AgNPs_FTO_APTES_UA_0.1mM_CRN_100uM_NaF_0.1M_Addition_RamanShift__4__13-20-57-671.txt Node

Date: Mon Dec 20 13:20:57 GMT 2021
User: TCL
Spectrometer: QEP01345
Trigger mode: 4
Integration Time (sec): 7.000000E0
Scans to average: 10
Electric dark correction enabled: true
Nonlinearity correction enabled: false
Boxcar width: 0
XAxis mode: Raman Shifts
Number of Pixels in Spectrum: 1044
>>>>>Begin Spectral Data<<<<<
46.04893	0.9625
50.45542	-0.1375
54.85868	-1.6375
59.25871	0.3625
63.6555	30.0625
68.04907	31.3625
72.43941	34.7625
76.82654	34.0625
81.21044	32.4625
85.59113	40.7625
89.96862	37.6625
94.34289	41.6625
98.71396	42.0625
103.08183	42.5625
107.4465	42.3625
111.80798	47.9625
116.16626	46.5625
120.52136	48.9625
124.87327	49.9625
129.222	49.5625
133.56755	51.9625
137.90993	57.1625
142.24913	60.6625
146.58517	63.7625
150.91804	74.6625
155.24774	88.2625
159.57429	102.2625
163.89768	132.9625
168.21792	172.8625
172.53501	219.4625
176.84895	301.7625
181.15975	411.8625
185.46741	576.8625
189.77193	789.5625
194.07331	1055.3625
198.37157	1369.6625
202.6667	1705.4625
206.9587	2028.2625
211.24758	2358.5625
215.53334	2684.9625
219.81599	3030.6625
224.09553	3442.4625
228.37195	3857.3625
232.64527	4337.8625
236.91549	4813.9625
241.18261	5301.6625
245.44663	5711.3625
249.70755	6076.7625
253.96539	6366.4625
258.22014	6579.0625
262.4718	6746.6625
266.72039	6842.4625
270.96589	6859.6625
275.20832	6826.3625
279.44768	6742.4625
283.68397	6635.2625
287.91719	6559.3625
292.14735	6482.1625
296.37445	6437.0625
300.59849	6404.7625
304.81948	6388.7625
309.03742	6349.8625
313.25231	6289.0625
317.46415	6227.5625
321.67296	6119.4625
325.87872	6036.3625
330.08145	5990.1625
334.28114	5970.5625
338.47781	5976.9625
342.67145	6023.0625
346.86207	6078.2625
351.04966	6157.2625
355.23424	6248.5625
359.4158	6306.4625
363.59435	6379.5625
367.76989	6465.1625
371.94243	6515.3625
376.11196	6576.3625
380.27849	6648.6625
384.44203	6714.8625
388.60257	6761.3625
392.76012	6827.3625
396.91468	6905.5625
401.06626	6960.5625
405.21485	7008.0625
409.36047	7019.9625
413.50311	6961.1625
417.64277	6950.2625
421.77947	6925.1625
425.9132	6905.1625
430.04396	6939.9625
434.17176	6965.8625
438.2966	7010.6625
442.41849	7047.8625
446.53742	7138.4625
450.6534	7207.0625
454.76644	7287.9625
458.87653	7327.3625
462.98368	7324.3625
467.08789	7330.7625
471.18916	7339.9625
475.2875	7354.8625
479.38291	7413.0625
483.4754	7526.7625
487.56496	7628.4625
491.6516	7767.5625
495.73531	7887.9625
499.81612	7907.2625
503.89401	7850.1625
507.96899	7756.2625
512.04106	7651.8625
516.11023	7625.4625
520.1765	7612.0625
524.23987	7646.8625
528.30034	7690.6625
532.35792	7707.1625
536.41261	7691.4625
540.46441	7641.6625
544.51333	7531.2625
548.55936	7437.8625
552.60252	7409.7625
556.64279	7386.5625
560.6802	7420.1625
564.71473	7441.6625
568.7464	7466.8625
572.7752	7533.8625
576.80114	7562.8625
580.82422	7652.0625
584.84444	7784.1625
588.86181	7956.4625
592.87633	8043.0625
596.888	8043.6625
600.89682	7986.8625
604.9028	7995.5625
608.90594	8292.5625
612.90624	8703.2625
616.90371	8745.7625
620.89834	8436.9625
624.89015	8546.9625
628.87913	9083.8625
632.86528	9699.0625
636.84862	10159.9625
640.82913	10153.2625
644.80683	9774.7625
648.78172	9167.6625
652.75379	8650.1625
656.72306	8311.2625
660.68952	8102.7625
664.65319	7936.7625
668.61405	7789.2625
672.57211	7734.2625
676.52738	7750.0625
680.47986	7805.3625
684.42955	7816.5625
688.37646	7771.9625
692.32058	7692.3625
696.26192	7630.6625
700.20048	7603.0625
704.13626	7581.0625
708.06928	7550.4625
711.99952	7524.2625
715.927	7537.8625
719.85171	7610.3625
723.77365	7710.2625
727.69284	7764.2625
731.60928	7722.9625
735.52295	7613.1625
739.43388	7533.5625
743.34206	7500.8625
747.24749	7512.0625
751.15017	7499.4625
755.05012	7520.4625
758.94733	7569.4625
762.8418	7712.6625
766.73354	7918.9625
770.62254	8093.8625
774.50882	8175.7625
778.39237	8045.8625
782.27321	7783.5625
786.15132	7577.4625
790.02671	7448.3625
793.89938	7416.1625
797.76935	7411.6625
801.6366	7485.6625
805.50115	7683.0625
809.36299	7945.7625
813.22213	8132.3625
817.07857	8115.8625
820.93231	7926.6625
824.78336	7668.1625
828.63172	7422.9625
832.47738	7282.1625
836.32036	7197.1625
840.16066	7189.1625
843.99827	7173.9625
847.8332	7178.8625
851.66546	7160.3625
855.49504	7183.4625
859.32195	7182.4625
863.1462	7231.0625
866.96777	7295.4625
870.78668	7358.1625
874.60293	7534.7625
878.41652	7692.3625
882.22745	7871.2625
886.03573	8018.9625
889.84136	8119.0625
893.64433	8025.7625
897.44466	7826.3625
901.24235	7554.8625
905.0374	7343.4625
908.8298	7170.1625
912.61957	7087.4625
916.40671	7047.9625
920.19121	7038.7625
923.97308	7049.2625
927.75233	7021.5625
931.52895	7003.0625
935.30295	6964.5625
939.07433	6936.5625
942.84309	6862.0625
946.60924	6841.9625
950.37278	6832.9625
954.13371	6821.1625
957.89203	6830.3625
961.64774	6802.3625
965.40086	6770.6625
969.15137	6768.9625
972.89929	6733.1625
976.64461	6728.9625
980.38733	6714.6625
984.12747	6717.9625
987.86502	6751.5625
991.59999	6796.6625
995.33237	6847.9625
999.06217	6913.9625
1002.78939	7006.8625
1006.51404	7116.1625
1010.23611	7188.4625
1013.95561	7294.0625
1017.67255	7327.6625
1021.38692	7332.8625
1025.09872	7283.6625
1028.80796	7211.5625
1032.51465	7133.2625
1036.21877	7066.5625
1039.92035	7001.6625
1043.61937	6985.8625
1047.31584	6942.1625
1051.00976	6929.9625
1054.70114	6941.2625
1058.38998	6981.9625
1062.07627	7026.9625
1065.76003	7126.4625
1069.44126	7205.3625
1073.11995	7288.6625
1076.79611	7355.9625
1080.46974	7357.5625
1084.14085	7274.3625
1087.80943	7214.2625
1091.47549	7154.5625
1095.13903	7109.8625
1098.80005	7069.2625
1102.45857	7015.7625
1106.11456	7009.7625
1109.76805	7040.2625
1113.41903	7179.0625
1117.06751	7422.4625
1120.71348	7794.8625
1124.35696	8297.8625
1127.99793	8917.4625
1131.63641	9465.6625
1135.2724	9728.1625
1138.90589	9663.6625
1142.5369	9349.2625
1146.16542	8900.2625
1149.79145	8390.1625
1153.415	7939.1625
1157.03607	7565.4625
1160.65467	7370.4625
1164.27079	7304.2625
1167.88443	7295.0625
1171.49561	7400.2625
1175.10432	7588.5625
1178.71056	7809.9625
1182.31434	8064.4625
1185.91565	8232.0625
1189.51451	8313.4625
1193.11091	8347.6625
1196.70485	8399.4625
1200.29634	8469.7625
1203.88538	8541.3625
1207.47197	8518.5625
1211.05612	8424.9625
1214.63782	8236.5625
1218.21708	8013.3625
1221.79391	7789.6625
1225.36829	7592.7625
1228.94024	7478.2625
1232.50976	7375.8625
1236.07685	7331.6625
1239.6415	7306.0625
1243.20374	7346.4625
1246.76355	7416.4625
1250.32093	7486.8625
1253.8759	7543.4625
1257.42845	7623.9625
1260.97859	7714.6625
1264.52631	7779.3625
1268.07163	7849.9625
1271.61453	7881.8625
1275.15503	7905.5625
1278.69312	7938.3625
1282.22882	7928.5625
1285.76211	7993.3625
1289.29301	8022.3625
1292.82151	8127.6625
1296.34761	8264.6625
1299.87133	8444.7625
1303.39266	8636.9625
1306.9116	8863.4625
1310.42815	9098.2625
1313.94233	9273.9625
1317.45412	9295.1625
1320.96354	9240.8625
1324.47058	9169.9625
1327.97525	9085.6625
1331.47754	9041.1625
1334.97747	9035.8625
1338.47502	9067.8625
1341.97022	9152.7625
1345.46305	9261.3625
1348.95352	9403.8625
1352.44163	9548.8625
1355.92738	9800.5625
1359.41078	10103.8625
1362.89183	10421.2625
1366.37053	10427.8625
1369.84688	10004.0625
1373.32088	9456.6625
1376.79254	9081.0625
1380.26186	8831.4625
1383.72883	8686.1625
1387.19347	8524.9625
1390.65578	8369.7625
1394.11575	8231.3625
1397.57339	8133.4625
1401.0287	8053.0625
1404.48168	7977.0625
1407.93234	7864.6625
1411.38068	7740.9625
1414.82669	7561.8625
1418.27039	7426.8625
1421.71177	7266.8625
1425.15083	7113.7625
1428.58758	7036.8625
1432.02203	6981.0625
1435.45416	6986.5625
1438.88399	7020.9625
1442.31151	7017.9625
1445.73673	7041.6625
1449.15965	7075.4625
1452.58027	7093.3625
1455.9986	7085.8625
1459.41463	7102.1625
1462.82837	7121.8625
1466.23982	7182.8625
1469.64898	7255.3625
1473.05586	7284.6625
1476.46045	7317.6625
1479.86276	7322.9625
1483.26279	7364.9625
1486.66054	7387.0625
1490.05602	7454.5625
1493.44922	7544.5625
1496.84016	7681.1625
1500.22882	7900.7625
1503.61521	8159.4625
1506.99934	8426.9625
1510.38121	8667.9625
1513.76081	8711.9625
1517.13816	8576.4625
1520.51324	8297.3625
1523.88607	8054.3625
1527.25665	7941.8625
1530.62498	7911.9625
1533.99105	7909.7625
1537.35488	7949.8625
1540.71647	7951.4625
1544.07581	7964.2625
1547.4329	7966.3625
1550.78776	7967.6625
1554.14038	7918.3625
1557.49077	7927.2625
1560.83892	7921.2625
1564.18484	7969.2625
1567.52853	8001.4625
1570.86999	8036.4625
1574.20922	8073.7625
1577.54624	8115.0625
1580.88103	8094.4625
1584.2136	8038.4625
1587.54395	7972.0625
1590.87208	7971.2625
1594.19801	8058.7625
1597.52172	8210.2625
1600.84321	8250.3625
1604.16251	8160.5625
1607.47959	8016.2625
1610.79447	7852.3625
1614.10715	7708.2625
1617.41763	7566.5625
1620.7259	7506.7625
1624.03199	7481.5625
1627.33587	7511.1625
1630.63757	7575.8625
1633.93707	7731.1625
1637.23439	7961.7625
1640.52951	8277.9625
1643.82246	8699.4625
1647.11321	9085.0625
1650.40179	9284.7625
1653.68819	9155.2625
1656.97241	8764.2625
1660.25446	8337.9625
1663.53433	8006.4625
1666.81203	7789.2625
1670.08756	7665.3625
1673.36092	7585.6625
1676.63211	7564.1625
1679.90115	7536.4625
1683.16801	7503.3625
1686.43272	7424.5625
1689.69527	7340.8625
1692.95567	7262.0625
1696.2139	7164.8625
1699.46999	7028.1625
1702.72392	6921.1625
1705.97571	6768.8625
1709.22535	6574.2625
1712.47284	6407.1625
1715.71819	6266.0625
1718.96139	6125.8625
1722.20246	6028.3625
1725.44139	5937.2625
1728.67818	5887.9625
1731.91284	5799.5625
1735.14537	5751.4625
1738.37576	5717.8625
1741.60403	5696.4625
1744.83017	5675.1625
1748.05418	5624.2625
1751.27607	5627.1625
1754.49584	5600.6625
1757.71349	5617.1625
1760.92903	5594.0625
1764.14244	5584.9625
1767.35375	5578.6625
1770.56294	5540.0625
1773.77002	5534.7625
1776.97499	5517.7625
1780.17785	5502.6625
1783.37861	5476.1625
1786.57727	5485.3625
1789.77382	5451.5625
1792.96828	5437.7625
1796.16064	5394.6625
1799.3509	5412.6625
1802.53907	5371.2625
1805.72514	5363.4625
1808.90913	5367.7625
1812.09102	5354.7625
1815.27083	5333.0625
1818.44856	5333.9625
1821.6242	5322.4625
1824.79776	5286.8625
1827.96924	5293.5625
1831.13864	5279.7625
1834.30597	5290.3625
1837.47122	5293.0625
1840.6344	5269.8625
1843.7955	5274.3625
1846.95454	5267.7625
1850.11151	5262.8625
1853.26642	5240.0625
1856.41926	5243.2625
1859.57004	5238.7625
1862.71876	5253.9625
1865.86542	5242.7625
1869.01003	5222.8625
1872.15258	5222.0625
1875.29308	5227.6625
1878.43152	5209.5625
1881.56792	5214.8625
1884.70227	5189.0625
1887.83457	5180.8625
1890.96482	5174.4625
1894.09304	5172.5625
1897.21921	5164.2625
1900.34335	5149.1625
1903.46544	5130.4625
1906.58551	5136.2625
1909.70353	5131.9625
1912.81953	5125.4625
1915.93349	5131.8625
1919.04543	5103.2625
1922.15534	5091.8625
1925.26322	5091.2625
1928.36908	5083.0625
1931.47292	5071.9625
1934.57473	5048.8625
1937.67453	5045.0625
1940.77232	5042.9625
1943.86808	5025.4625
1946.96184	5002.7625
1950.05358	5008.3625
1953.14331	4968.5625
1956.23103	4971.7625
1959.31675	4948.9625
1962.40046	4936.8625
1965.48217	4923.1625
1968.56188	4925.4625
1971.63959	4900.2625
1974.7153	4873.7625
1977.78901	4860.7625
1980.86073	4858.3625
1983.93046	4841.1625
1986.99819	4822.4625
1990.06394	4811.3625
1993.1277	4786.6625
1996.18947	4798.3625
1999.24925	4780.4625
2002.30706	4766.4625
2005.36288	4745.1625
2008.41672	4735.8625
2011.46859	4733.1625
2014.51848	4703.7625
2017.56639	4687.3625
2020.61233	4681.9625
2023.6563	4678.7625
2026.6983	4671.2625
2029.73833	4650.7625
2032.7764	4632.6625
2035.8125	4625.4625
2038.84664	4612.6625
2041.87881	4614.6625
2044.90903	4601.9625
2047.93729	4599.2625
2050.96359	4580.6625
2053.98794	4580.2625
2057.01034	4581.3625
2060.03078	4561.3625
2063.04927	4565.3625
2066.06582	4564.6625
2069.08042	4551.0625
2072.09307	4552.1625
2075.10378	4549.2625
2078.11255	4556.5625
2081.11938	4551.0625
2084.12426	4554.7625
2087.12722	4546.1625
2090.12824	4564.1625
2093.12732	4571.8625
2096.12447	4561.1625
2099.11969	4541.8625
2102.11299	4559.8625
2105.10435	4553.2625
2108.09379	4554.1625
2111.08131	4567.7625
2114.0669	4561.8625
2117.05057	4563.4625
2120.03233	4570.9625
2123.01216	4590.4625
2125.99008	4587.7625
2128.96609	4571.7625
2131.94018	4585.0625
2134.91236	4587.0625
2137.88263	4589.3625
2140.851	4592.3625
2143.81746	4580.8625
2146.78201	4585.4625
2149.74466	4592.8625
2152.7054	4588.7625
2155.66425	4604.0625
2158.6212	4590.0625
2161.57625	4580.4625
2164.52941	4597.0625
2167.48067	4593.3625
2170.43004	4585.2625
2173.37752	4573.9625
2176.32311	4573.1625
2179.26681	4573.9625
2182.20863	4566.2625
2185.14856	4576.5625
2188.08661	4578.2625
2191.02278	4584.6625
2193.95707	4566.1625
2196.88948	4550.9625
2199.82001	4561.9625
2202.74867	4546.1625
2205.67545	4545.0625
2208.60037	4534.8625
2211.52341	4539.7625
2214.44458	4535.6625
2217.36388	4529.9625
2220.28132	4519.3625
2223.1969	4484.2625
2226.11061	4489.9625
2229.02246	4472.7625
2231.93245	4460.4625
2234.84058	4459.9625
2237.74686	4440.4625
2240.65128	4446.4625
2243.55385	4431.4625
2246.45456	4447.3625
2249.35343	4433.4625
2252.25044	4422.1625
2255.14561	4397.8625
2258.03893	4419.8625
2260.93041	4411.6625
2263.82004	4381.7625
2266.70783	4404.9625
2269.59378	4384.6625
2272.4779	4359.6625
2275.36017	4344.4625
2278.24061	4336.3625
2281.11922	4335.4625
2283.996	4328.0625
2286.87094	4332.4625
2289.74405	4329.0625
2292.61534	4318.2625
2295.4848	4309.2625
2298.35243	4305.2625
2301.21824	4280.5625
2304.08223	4297.8625
2306.94439	4287.0625
2309.80474	4293.2625
2312.66327	4297.0625
2315.51999	4278.8625
2318.37489	4279.2625
2321.22797	4262.5625
2324.07925	4282.4625
2326.92871	4277.2625
2329.77637	4260.6625
2332.62222	4240.8625
2335.46626	4228.5625
2338.3085	4243.0625
2341.14893	4233.4625
2343.98756	4205.7625
2346.8244	4220.2625
2349.65943	4212.1625
2352.49267	4213.2625
2355.32411	4213.5625
2358.15376	4200.3625
2360.98161	4196.6625
2363.80768	4208.1625
2366.63195	4190.8625
2369.45444	4187.1625
2372.27514	4185.6625
2375.09405	4175.1625
2377.91118	4158.4625
2380.72652	4163.9625
2383.54009	4149.4625
2386.35187	4148.3625
2389.16188	4141.6625
2391.97011	4155.0625
2394.77657	4116.2625
2397.58125	4112.4625
2400.38416	4121.4625
2403.18529	4093.9625
2405.98466	4098.4625
2408.78226	4106.2625
2411.57809	4090.3625
2414.37216	4080.4625
2417.16446	4079.4625
2419.955	4059.8625
2422.74378	4073.6625
2425.5308	4052.7625
2428.31606	4055.8625
2431.09956	4043.7625
2433.88131	4046.7625
2436.6613	4039.3625
2439.43954	4030.9625
2442.21603	4032.9625
2444.99077	4041.8625
2447.76377	4027.7625
2450.53501	4036.9625
2453.30451	4025.4625
2456.07226	4010.7625
2458.83827	3999.4625
2461.60254	4013.9625
2464.36507	3990.7625
2467.12586	3988.4625
2469.88492	4005.4625
2472.64224	3996.7625
2475.39782	3995.7625
2478.15167	3996.7625
2480.90379	4002.2625
2483.65417	3982.7625
2486.40283	3976.1625
2489.14976	3975.7625
2491.89497	3972.5625
2494.63845	3976.1625
2497.3802	3975.6625
2500.12024	3973.1625
2502.85855	3953.2625
2505.59514	3949.7625
2508.33002	3955.3625
2511.06318	3951.8625
2513.79462	3936.1625
2516.52435	3943.2625
2519.25237	3927.2625
2521.97867	3929.1625
2524.70327	3927.5625
2527.42616	3926.5625
2530.14734	3910.1625
2532.86681	3910.5625
2535.58458	3904.5625
2538.30065	3901.7625
2541.01501	3895.5625
2543.72768	3892.3625
2546.43864	3869.8625
2549.14791	3865.7625
2551.85548	3857.2625
2554.56136	3849.4625
2557.26554	3840.1625
2559.96803	3841.9625
2562.66883	3849.6625
2565.36794	3821.5625
2568.06536	3823.1625
2570.7611	3820.5625
2573.45514	3818.1625
2576.14751	3804.4625
2578.83819	3801.1625
2581.52719	3810.2625
2584.21451	3776.8625
2586.90015	3776.3625
2589.58411	3782.2625
2592.2664	3761.6625
2594.94701	3769.2625
2597.62594	3761.9625
2600.30321	3752.1625
2602.9788	3745.3625
2605.65273	3739.0625
2608.32498	3732.5625
2610.99557	3718.7625
2613.66449	3726.5625
2616.33175	3728.0625
2618.99734	3718.3625
2621.66128	3707.3625
2624.32355	3698.6625
2626.98416	3709.7625
2629.64311	3692.5625
2632.30041	3710.6625
2634.95605	3706.9625
2637.61004	3692.2625
2640.26238	3682.1625
2642.91306	3679.8625
2645.56209	3664.3625
2648.20948	3663.2625
2650.85521	3662.3625
2653.4993	3665.0625
2656.14175	3670.1625
2658.78255	3661.8625
2661.42171	3673.0625
2664.05923	3666.3625
2666.6951	3653.1625
2669.32934	3651.2625
2671.96194	3669.2625
2674.59291	3666.8625
2677.22224	3657.3625
2679.84993	3666.6625
2682.476	3645.7625
2685.10043	3655.9625
2687.72324	3667.1625
2690.34441	3652.5625
2692.96396	3660.9625
2695.58188	3669.5625
2698.19818	3656.6625
2700.81285	3673.8625
2703.4259	3667.0625
2706.03733	3680.1625
2708.64714	3678.3625
2711.25533	3677.5625
2713.86191	3670.6625
2716.46687	3670.1625
2719.07021	3660.2625
2721.67194	3671.2625
2724.27206	3659.0625
2726.87057	3675.2625
2729.46747	3670.9625
2732.06276	3662.7625
2734.65644	3671.6625
2737.24852	3659.3625
2739.83899	3659.3625
2742.42786	3651.2625
2745.01513	3641.5625
2747.60079	3650.3625
2750.18486	3640.2625
2752.76733	3634.2625
2755.3482	3630.5625
2757.92747	3648.1625
2760.50515	3632.8625
2763.08123	3624.5625
2765.65573	3602.0625
2768.22863	3628.1625
2770.79994	3606.3625
2773.36967	3604.2625
2775.9378	3597.1625
2778.50435	3592.0625
2781.06932	3599.3625
2783.6327	3588.8625
2786.1945	3590.6625
2788.75471	3589.8625
2791.31335	3545.9625
2793.87041	3563.0625
2796.42589	3548.4625
2798.97979	3541.9625
2801.53212	3542.9625
2804.08288	3532.2625
2806.63206	3520.1625
2809.17967	3517.9625
2811.72571	3511.2625
2814.27018	3498.0625
2816.81308	3493.1625
2819.35442	3507.2625
2821.89419	3488.4625
2824.43239	3491.2625
2826.96904	3492.2625
2829.50412	3499.6625
2832.03763	3474.7625
2834.56959	3493.3625
2837.1	3470.5625
2839.62884	3501.7625
2842.15613	3480.6625
2844.68186	3481.2625
2847.20604	3474.4625
2849.72867	3499.7625
2852.24974	3490.4625
2854.76927	3471.0625
2857.28724	3469.6625
2859.80367	3474.2625
2862.31855	3467.5625
2864.83189	3472.2625
2867.34368	3455.0625
2869.85393	3450.3625
2872.36264	3458.8625
2874.8698	3466.6625
2877.37543	3450.9625
2879.87952	3455.7625
2882.38207	3459.8625
2884.88308	3454.6625
2887.38256	3469.8625
2889.88051	3475.7625
2892.37692	3459.9625
2894.8718	3464.7625
2897.36515	3482.0625
2899.85698	3468.9625
2902.34727	3482.6625
2904.83604	3469.2625
2907.32328	3480.9625
2909.809	3478.1625
2912.29319	3474.8625
2914.77587	3481.0625
2917.25702	3480.5625
2919.73665	3468.9625
2922.21476	3477.6625
2924.69136	3478.3625
2927.16644	3503.2625
2929.64	3481.9625
2932.11205	3482.0625
2934.58258	3477.0625
2937.05161	3472.3625
2939.51912	3481.2625
2941.98513	3475.4625
2944.44962	3465.1625
2946.91261	3470.8625
2949.37409	3465.6625
2951.83407	3466.6625
2954.29254	3477.0625
2956.74951	3476.4625
2959.20498	3469.2625
2961.65895	3449.2625
2964.11142	3466.3625
2966.56239	3442.7625
2969.01186	3450.4625
2971.45984	3441.5625
2973.90632	3428.9625
2976.35131	3423.3625
2978.7948	3427.0625
2981.23681	3411.1625
2983.67732	3419.9625
2986.11635	3403.0625
2988.55388	3414.9625
2990.98993	3398.3625
2993.4245	3403.8625
2995.85758	3389.8625
2998.28917	3388.3625
3000.71928	3382.8625
3003.14791	3391.3625
3005.57506	3393.9625
3008.00073	3386.6625
3010.42493	3383.8625
3012.84764	3378.0625
3015.26888	3396.2625
3017.68865	3367.2625
3020.10694	3374.4625
3022.52376	3374.9625
3024.9391	3373.4625
3027.35298	3381.9625
3029.76539	3377.1625
3032.17632	3368.6625
3034.5858	3371.2625
3036.9938	3368.7625
3039.40034	3370.9625
3041.80542	3369.7625
3044.20903	3350.7625
3046.61118	3368.7625
3049.01187	3361.6625
3051.4111	3361.5625
3053.80888	3353.0625
3056.20519	3360.1625
3058.60005	3337.2625
3060.99345	3357.6625
3063.3854	3345.2625
3065.7759	3340.2625
3068.16494	3352.3625
3070.55254	3332.3625
3072.93868	3334.0625
3075.32338	3335.0625
3077.70662	3336.0625
3080.08842	3348.3625
3082.46878	3349.1625
3084.84769	3332.2625
3087.22515	3357.2625
3089.60118	3358.5625
3091.97576	3352.4625
3094.3489	3365.5625
3096.72061	3369.9625
3099.09087	3374.2625
3101.4597	3369.2625
3103.82709	3367.8625
3106.19305	3374.9625
3108.55757	3387.6625
3110.92066	3359.6625
3113.28232	3366.9625
3115.64255	3360.3625
3118.00134	3368.6625
3120.35871	3367.3625
3122.71466	3374.1625
3125.06917	3371.2625
3127.42226	3374.3625
3129.77393	3392.9625
3132.12417	3389.1625
3134.47299	3395.6625
3136.82039	3414.4625
3139.16636	3406.5625
3141.51092	3422.6625
3143.85406	3419.4625
3146.19579	3418.5625
3148.53609	3438.8625
3150.87499	3446.2625
3153.21246	3442.6625
3155.54853	3468.4625
3157.88318	3469.9625
3160.21642	3477.2625
3162.54826	3493.9625
3164.87868	3478.2625
3167.2077	3494.6625
3169.5353	3492.5625
3171.86151	3499.9625
3174.18631	3495.0625
3176.5097	3506.2625
3178.83169	3501.7625
3181.15228	3500.7625
3183.47147	3505.5625
3185.78926	3509.1625
3188.10565	3508.9625
3190.42065	3517.5625
3192.73424	3523.6625
3195.04645	3519.1625
3197.35725	3530.1625
3199.66667	3522.5625
3201.97469	3538.1625
3204.28132	3536.4625
3206.58656	3541.3625
3208.8904	3562.6625
3211.19287	3557.6625
3213.49394	3563.8625
3215.79363	3573.1625
3218.09193	3563.2625
3220.38884	3585.7625
3222.68438	3579.9625
3224.97853	3573.8625
3227.2713	3567.6625
3229.56269	3571.2625
3231.8527	3569.3625
3234.14133	3566.5625
3236.42858	3561.8625
3238.71446	3551.5625
3240.99896	3541.4625
3243.28209	3549.9625
3245.56384	3534.5625
3247.84423	3546.4625
3250.12324	3552.5625
3252.40088	3555.0625
3254.67715	3538.9625
3256.95205	3548.0625
3259.22558	3545.1625
3261.49775	3545.2625
3263.76855	3533.8625
3266.03799	3526.1625
3268.30606	3517.6625
3270.57277	3528.9625
3272.83812	3503.6625
3275.10211	3505.6625
3277.36474	3498.9625
3279.62601	3518.4625
3281.88593	3504.6625
3284.14448	3498.1625
3286.40168	3493.0625
3288.65753	3487.1625
3290.91202	3483.5625
3293.16516	3475.8625
3295.41695	3462.2625
3297.66738	3454.7625
3299.91647	3440.9625
3302.16421	3412.1625
3304.4106	3396.6625
3306.65564	3386.6625
3308.89933	3379.7625
3311.14169	3354.4625
3313.38269	3332.6625
3315.62236	3316.6625
3317.86068	3297.3625
3320.09766	3251.7625
3322.3333	3236.1625
3324.5676	3249.1625
3326.80056	3193.1625
3329.03219	3169.7625
3331.26248	0.2625
3333.49143	0.8625
3335.71905	-0.5375
