Data from AgNPs_FTO_APTES_UA_0.1mM_CRN_0uM_NaF_0.1M_Addition_RamanShift__50__11-00-57-512.txt Node

Date: Mon Dec 20 11:00:57 GMT 2021
User: TCL
Spectrometer: QEP01345
Trigger mode: 4
Integration Time (sec): 7.000000E0
Scans to average: 10
Electric dark correction enabled: true
Nonlinearity correction enabled: false
Boxcar width: 0
XAxis mode: Raman Shifts
Number of Pixels in Spectrum: 1044
>>>>>Begin Spectral Data<<<<<
46.04893	0.7375
50.45542	-1.0625
54.85868	-1.7625
59.25871	1.4375
63.6555	30.9375
68.04907	29.7375
72.43941	34.8375
76.82654	35.2375
81.21044	33.9375
85.59113	41.6375
89.96862	35.8375
94.34289	40.4375
98.71396	39.5375
103.08183	39.7375
107.4465	44.2375
111.80798	46.3375
116.16626	45.0375
120.52136	45.1375
124.87327	50.0375
129.222	48.3375
133.56755	51.4375
137.90993	53.4375
142.24913	58.0375
146.58517	62.2375
150.91804	72.6375
155.24774	83.4375
159.57429	98.6375
163.89768	126.8375
168.21792	166.1375
172.53501	220.2375
176.84895	303.7375
181.15975	417.2375
185.46741	578.7375
189.77193	788.9375
194.07331	1055.7375
198.37157	1367.8375
202.6667	1689.2375
206.9587	2023.2375
211.24758	2330.4375
215.53334	2653.8375
219.81599	2988.1375
224.09553	3321.1375
228.37195	3716.9375
232.64527	4138.7375
236.91549	4577.0375
241.18261	5025.0375
245.44663	5424.4375
249.70755	5788.3375
253.96539	6094.8375
258.22014	6333.8375
262.4718	6502.3375
266.72039	6600.3375
270.96589	6622.8375
275.20832	6602.5375
279.44768	6519.0375
283.68397	6396.6375
287.91719	6327.4375
292.14735	6231.7375
296.37445	6212.8375
300.59849	6190.3375
304.81948	6205.4375
309.03742	6165.2375
313.25231	6128.2375
317.46415	6029.0375
321.67296	5892.2375
325.87872	5791.0375
330.08145	5717.8375
334.28114	5682.0375
338.47781	5744.6375
342.67145	5774.9375
346.86207	5853.0375
351.04966	5946.0375
355.23424	6031.9375
359.4158	6138.6375
363.59435	6226.7375
367.76989	6304.1375
371.94243	6366.2375
376.11196	6409.3375
380.27849	6477.8375
384.44203	6564.6375
388.60257	6601.4375
392.76012	6671.8375
396.91468	6730.5375
401.06626	6813.8375
405.21485	6874.0375
409.36047	6866.5375
413.50311	6789.2375
417.64277	6724.8375
421.77947	6702.5375
425.9132	6684.1375
430.04396	6697.7375
434.17176	6735.3375
438.2966	6772.8375
442.41849	6823.5375
446.53742	6932.0375
450.6534	7021.3375
454.76644	7133.7375
458.87653	7180.7375
462.98368	7177.2375
467.08789	7178.9375
471.18916	7154.8375
475.2875	7141.7375
479.38291	7180.3375
483.4754	7250.7375
487.56496	7359.6375
491.6516	7468.9375
495.73531	7576.9375
499.81612	7582.5375
503.89401	7544.9375
507.96899	7463.5375
512.04106	7383.1375
516.11023	7332.3375
520.1765	7321.6375
524.23987	7339.6375
528.30034	7344.1375
532.35792	7356.5375
536.41261	7299.8375
540.46441	7210.1375
544.51333	7134.3375
548.55936	7073.7375
552.60252	7079.8375
556.64279	7109.1375
560.6802	7116.9375
564.71473	7120.9375
568.7464	7166.5375
572.7752	7235.2375
576.80114	7310.8375
580.82422	7374.4375
584.84444	7479.8375
588.86181	7640.2375
592.87633	7726.3375
596.888	7767.2375
600.89682	7722.5375
604.9028	7811.4375
608.90594	8284.1375
612.90624	8948.4375
616.90371	8838.3375
620.89834	8085.5375
624.89015	7941.6375
628.87913	8252.5375
632.86528	8713.9375
636.84862	9009.7375
640.82913	8993.7375
644.80683	8723.5375
648.78172	8315.4375
652.75379	7976.2375
656.72306	7789.2375
660.68952	7687.8375
664.65319	7626.2375
668.61405	7532.5375
672.57211	7551.6375
676.52738	7616.4375
680.47986	7639.4375
684.42955	7605.3375
688.37646	7578.0375
692.32058	7529.9375
696.26192	7442.6375
700.20048	7344.1375
704.13626	7281.9375
708.06928	7238.6375
711.99952	7150.0375
715.927	7086.8375
719.85171	7088.6375
723.77365	7114.5375
727.69284	7109.4375
731.60928	7075.1375
735.52295	7016.4375
739.43388	7004.8375
743.34206	7017.9375
747.24749	7043.5375
751.15017	7031.8375
755.05012	7053.5375
758.94733	7113.1375
762.8418	7329.2375
766.73354	7672.0375
770.62254	8083.2375
774.50882	8275.8375
778.39237	8154.0375
782.27321	7704.0375
786.15132	7318.9375
790.02671	7109.4375
793.89938	6992.8375
797.76935	6982.3375
801.6366	7051.3375
805.50115	7186.1375
809.36299	7350.8375
813.22213	7400.6375
817.07857	7287.5375
820.93231	7098.1375
824.78336	6900.4375
828.63172	6734.7375
832.47738	6670.8375
836.32036	6637.6375
840.16066	6624.3375
843.99827	6608.2375
847.8332	6607.3375
851.66546	6581.0375
855.49504	6589.7375
859.32195	6590.0375
863.1462	6634.4375
866.96777	6673.8375
870.78668	6744.0375
874.60293	6836.4375
878.41652	6932.3375
882.22745	7065.2375
886.03573	7125.6375
889.84136	7133.9375
893.64433	7054.6375
897.44466	6881.0375
901.24235	6711.2375
905.0374	6573.2375
908.8298	6472.6375
912.61957	6417.1375
916.40671	6387.5375
920.19121	6411.7375
923.97308	6423.6375
927.75233	6415.7375
931.52895	6397.4375
935.30295	6354.2375
939.07433	6294.5375
942.84309	6250.5375
946.60924	6237.1375
950.37278	6229.4375
954.13371	6230.9375
957.89203	6213.3375
961.64774	6200.6375
965.40086	6158.3375
969.15137	6122.4375
972.89929	6095.7375
976.64461	6062.6375
980.38733	6049.4375
984.12747	6027.9375
987.86502	6064.6375
991.59999	6111.0375
995.33237	6153.1375
999.06217	6246.5375
1002.78939	6344.5375
1006.51404	6445.0375
1010.23611	6552.1375
1013.95561	6618.7375
1017.67255	6667.9375
1021.38692	6625.2375
1025.09872	6538.0375
1028.80796	6443.2375
1032.51465	6412.0375
1036.21877	6384.6375
1039.92035	6390.7375
1043.61937	6350.9375
1047.31584	6313.7375
1051.00976	6289.9375
1054.70114	6288.3375
1058.38998	6305.9375
1062.07627	6365.3375
1065.76003	6443.4375
1069.44126	6484.8375
1073.11995	6528.5375
1076.79611	6589.1375
1080.46974	6556.4375
1084.14085	6558.7375
1087.80943	6538.4375
1091.47549	6520.2375
1095.13903	6489.8375
1098.80005	6431.7375
1102.45857	6354.9375
1106.11456	6326.3375
1109.76805	6342.1375
1113.41903	6462.4375
1117.06751	6597.0375
1120.71348	6842.4375
1124.35696	7216.4375
1127.99793	7620.5375
1131.63641	8034.1375
1135.2724	8259.6375
1138.90589	8280.2375
1142.5369	8106.4375
1146.16542	7796.7375
1149.79145	7424.0375
1153.415	7074.6375
1157.03607	6827.1375
1160.65467	6717.0375
1164.27079	6704.1375
1167.88443	6833.5375
1171.49561	7025.5375
1175.10432	7311.3375
1178.71056	7678.0375
1182.31434	8087.7375
1185.91565	8267.9375
1189.51451	8335.7375
1193.11091	8345.5375
1196.70485	8308.5375
1200.29634	8241.2375
1203.88538	8170.9375
1207.47197	8041.0375
1211.05612	7851.0375
1214.63782	7617.1375
1218.21708	7418.1375
1221.79391	7226.0375
1225.36829	7093.1375
1228.94024	7002.3375
1232.50976	6886.6375
1236.07685	6793.7375
1239.6415	6784.6375
1243.20374	6774.7375
1246.76355	6804.1375
1250.32093	6865.7375
1253.8759	6946.1375
1257.42845	7053.3375
1260.97859	7156.5375
1264.52631	7275.6375
1268.07163	7368.7375
1271.61453	7479.8375
1275.15503	7569.5375
1278.69312	7664.7375
1282.22882	7766.8375
1285.76211	7874.2375
1289.29301	8008.5375
1292.82151	8196.4375
1296.34761	8453.9375
1299.87133	8789.8375
1303.39266	9147.1375
1306.9116	9543.8375
1310.42815	9928.1375
1313.94233	10173.6375
1317.45412	10207.1375
1320.96354	10063.2375
1324.47058	9878.0375
1327.97525	9675.0375
1331.47754	9548.5375
1334.97747	9505.9375
1338.47502	9528.7375
1341.97022	9613.7375
1345.46305	9696.6375
1348.95352	9821.7375
1352.44163	10093.9375
1355.92738	10459.4375
1359.41078	10924.3375
1362.89183	11343.7375
1366.37053	11206.7375
1369.84688	10451.8375
1373.32088	9559.0375
1376.79254	8932.1375
1380.26186	8621.3375
1383.72883	8475.7375
1387.19347	8337.9375
1390.65578	8242.6375
1394.11575	8129.3375
1397.57339	8050.4375
1401.0287	8060.5375
1404.48168	8047.1375
1407.93234	7961.8375
1411.38068	7829.4375
1414.82669	7640.4375
1418.27039	7396.2375
1421.71177	7177.9375
1425.15083	6956.1375
1428.58758	6835.7375
1432.02203	6810.1375
1435.45416	6839.1375
1438.88399	6900.3375
1442.31151	7006.1375
1445.73673	7045.1375
1449.15965	7140.9375
1452.58027	7199.0375
1455.9986	7233.7375
1459.41463	7284.1375
1462.82837	7368.5375
1466.23982	7456.4375
1469.64898	7553.2375
1473.05586	7614.1375
1476.46045	7667.3375
1479.86276	7645.4375
1483.26279	7639.5375
1486.66054	7666.1375
1490.05602	7696.7375
1493.44922	7785.7375
1496.84016	7906.9375
1500.22882	8085.4375
1503.61521	8386.0375
1506.99934	8710.1375
1510.38121	8965.9375
1513.76081	9075.5375
1517.13816	8882.4375
1520.51324	8481.1375
1523.88607	8113.3375
1527.25665	7889.6375
1530.62498	7795.0375
1533.99105	7767.5375
1537.35488	7767.3375
1540.71647	7748.9375
1544.07581	7746.1375
1547.4329	7730.6375
1550.78776	7714.4375
1554.14038	7724.4375
1557.49077	7774.1375
1560.83892	7800.7375
1564.18484	7860.6375
1567.52853	7894.2375
1570.86999	7907.0375
1574.20922	7955.2375
1577.54624	7962.1375
1580.88103	7907.4375
1584.2136	7818.3375
1587.54395	7825.5375
1590.87208	7937.5375
1594.19801	8184.8375
1597.52172	8484.1375
1600.84321	8643.6375
1604.16251	8517.6375
1607.47959	8239.3375
1610.79447	7913.3375
1614.10715	7630.5375
1617.41763	7370.4375
1620.7259	7189.8375
1624.03199	7115.9375
1627.33587	7134.2375
1630.63757	7224.7375
1633.93707	7433.3375
1637.23439	7750.6375
1640.52951	8225.8375
1643.82246	8852.6375
1647.11321	9403.9375
1650.40179	9665.3375
1653.68819	9467.4375
1656.97241	8789.0375
1660.25446	8074.8375
1663.53433	7489.8375
1666.81203	7108.4375
1670.08756	6840.5375
1673.36092	6620.1375
1676.63211	6503.7375
1679.90115	6385.7375
1683.16801	6254.2375
1686.43272	6141.9375
1689.69527	5982.4375
1692.95567	5860.9375
1696.2139	5750.8375
1699.46999	5632.1375
1702.72392	5526.1375
1705.97571	5425.8375
1709.22535	5334.4375
1712.47284	5285.7375
1715.71819	5243.0375
1718.96139	5159.8375
1722.20246	5099.0375
1725.44139	5049.3375
1728.67818	4985.6375
1731.91284	4916.8375
1735.14537	4881.1375
1738.37576	4826.5375
1741.60403	4787.6375
1744.83017	4742.6375
1748.05418	4762.5375
1751.27607	4727.8375
1754.49584	4746.3375
1757.71349	4720.2375
1760.92903	4699.1375
1764.14244	4692.7375
1767.35375	4688.4375
1770.56294	4752.4375
1773.77002	4646.7375
1776.97499	4622.7375
1780.17785	4589.0375
1783.37861	4552.3375
1786.57727	4537.0375
1789.77382	4522.6375
1792.96828	4512.2375
1796.16064	4487.2375
1799.3509	4461.1375
1802.53907	4445.3375
1805.72514	4433.2375
1808.90913	4426.0375
1812.09102	4421.3375
1815.27083	4396.9375
1818.44856	4375.2375
1821.6242	4368.6375
1824.79776	4363.4375
1827.96924	4344.9375
1831.13864	4339.1375
1834.30597	4355.0375
1837.47122	4337.1375
1840.6344	4328.3375
1843.7955	4316.7375
1846.95454	4324.3375
1850.11151	4321.5375
1853.26642	4306.8375
1856.41926	4308.2375
1859.57004	4303.0375
1862.71876	4294.8375
1865.86542	4289.9375
1869.01003	4281.6375
1872.15258	4281.3375
1875.29308	4274.2375
1878.43152	4269.3375
1881.56792	4265.1375
1884.70227	4262.0375
1887.83457	4261.5375
1890.96482	4256.8375
1894.09304	4241.3375
1897.21921	4220.7375
1900.34335	4216.4375
1903.46544	4218.6375
1906.58551	4216.6375
1909.70353	4212.1375
1912.81953	4214.3375
1915.93349	4184.5375
1919.04543	4193.6375
1922.15534	4169.0375
1925.26322	4161.4375
1928.36908	4166.2375
1931.47292	4131.2375
1934.57473	4128.0375
1937.67453	4124.3375
1940.77232	4118.8375
1943.86808	4110.2375
1946.96184	4093.4375
1950.05358	4075.1375
1953.14331	4074.4375
1956.23103	4049.3375
1959.31675	4031.7375
1962.40046	4043.3375
1965.48217	4019.2375
1968.56188	4003.0375
1971.63959	3989.8375
1974.7153	3975.2375
1977.78901	3968.1375
1980.86073	3950.8375
1983.93046	3942.9375
1986.99819	3920.4375
1990.06394	3902.2375
1993.1277	3904.9375
1996.18947	3895.9375
1999.24925	3889.3375
2002.30706	3873.0375
2005.36288	3857.7375
2008.41672	3846.4375
2011.46859	3836.0375
2014.51848	3822.8375
2017.56639	3811.3375
2020.61233	3796.5375
2023.6563	3799.9375
2026.6983	3784.1375
2029.73833	3772.7375
2032.7764	3774.9375
2035.8125	3762.7375
2038.84664	3754.9375
2041.87881	3766.3375
2044.90903	3722.7375
2047.93729	3740.4375
2050.96359	3728.2375
2053.98794	3725.1375
2057.01034	3711.2375
2060.03078	3718.7375
2063.04927	3710.4375
2066.06582	3719.6375
2069.08042	3707.7375
2072.09307	3697.3375
2075.10378	3690.0375
2078.11255	3697.3375
2081.11938	3675.3375
2084.12426	3688.9375
2087.12722	3694.3375
2090.12824	3680.0375
2093.12732	3692.6375
2096.12447	3693.7375
2099.11969	3683.1375
2102.11299	3693.7375
2105.10435	3688.1375
2108.09379	3677.9375
2111.08131	3689.2375
2114.0669	3688.1375
2117.05057	3700.1375
2120.03233	3693.7375
2123.01216	3701.1375
2125.99008	3697.6375
2128.96609	3711.2375
2131.94018	3695.5375
2134.91236	3709.1375
2137.88263	3705.7375
2140.851	3708.0375
2143.81746	3705.0375
2146.78201	3704.9375
2149.74466	3709.1375
2152.7054	3699.1375
2155.66425	3702.8375
2158.6212	3700.0375
2161.57625	3694.2375
2164.52941	3695.0375
2167.48067	3696.2375
2170.43004	3677.9375
2173.37752	3679.2375
2176.32311	3681.9375
2179.26681	3680.0375
2182.20863	3679.8375
2185.14856	3674.8375
2188.08661	3687.9375
2191.02278	3676.6375
2193.95707	3669.1375
2196.88948	3670.3375
2199.82001	3654.8375
2202.74867	3656.9375
2205.67545	3656.3375
2208.60037	3641.8375
2211.52341	3633.3375
2214.44458	3634.4375
2217.36388	3629.2375
2220.28132	3625.7375
2223.1969	3604.2375
2226.11061	3617.3375
2229.02246	3604.8375
2231.93245	3600.3375
2234.84058	3595.2375
2237.74686	3579.3375
2240.65128	3558.6375
2243.55385	3563.1375
2246.45456	3565.6375
2249.35343	3551.6375
2252.25044	3559.3375
2255.14561	3539.7375
2258.03893	3548.4375
2260.93041	3545.8375
2263.82004	3529.0375
2266.70783	3523.8375
2269.59378	3501.8375
2272.4779	3502.5375
2275.36017	3489.8375
2278.24061	3487.7375
2281.11922	3464.2375
2283.996	3474.3375
2286.87094	3481.6375
2289.74405	3452.3375
2292.61534	3454.1375
2295.4848	3444.7375
2298.35243	3440.6375
2301.21824	3427.5375
2304.08223	3429.4375
2306.94439	3436.9375
2309.80474	3436.0375
2312.66327	3432.4375
2315.51999	3421.1375
2318.37489	3425.2375
2321.22797	3412.7375
2324.07925	3402.9375
2326.92871	3417.1375
2329.77637	3392.6375
2332.62222	3396.1375
2335.46626	3391.0375
2338.3085	3382.7375
2341.14893	3386.8375
2343.98756	3379.9375
2346.8244	3365.6375
2349.65943	3373.0375
2352.49267	3377.8375
2355.32411	3377.8375
2358.15376	3377.6375
2360.98161	3364.4375
2363.80768	3363.1375
2366.63195	3360.7375
2369.45444	3353.9375
2372.27514	3343.2375
2375.09405	3354.7375
2377.91118	3339.8375
2380.72652	3339.8375
2383.54009	3319.1375
2386.35187	3321.2375
2389.16188	3310.4375
2391.97011	3310.4375
2394.77657	3288.5375
2397.58125	3298.4375
2400.38416	3307.4375
2403.18529	3287.5375
2405.98466	3277.1375
2408.78226	3278.7375
2411.57809	3274.6375
2414.37216	3253.7375
2417.16446	3261.4375
2419.955	3249.4375
2422.74378	3246.7375
2425.5308	3228.6375
2428.31606	3228.3375
2431.09956	3218.1375
2433.88131	3220.4375
2436.6613	3215.5375
2439.43954	3228.2375
2442.21603	3211.6375
2444.99077	3208.1375
2447.76377	3219.4375
2450.53501	3211.1375
2453.30451	3227.1375
2456.07226	3202.1375
2458.83827	3201.4375
2461.60254	3197.9375
2464.36507	3197.7375
2467.12586	3180.3375
2469.88492	3202.8375
2472.64224	3175.5375
2475.39782	3190.2375
2478.15167	3194.3375
2480.90379	3189.7375
2483.65417	3187.8375
2486.40283	3178.6375
2489.14976	3181.6375
2491.89497	3172.5375
2494.63845	3179.7375
2497.3802	3183.2375
2500.12024	3183.4375
2502.85855	3180.1375
2505.59514	3162.4375
2508.33002	3149.6375
2511.06318	3157.2375
2513.79462	3152.1375
2516.52435	3159.5375
2519.25237	3144.8375
2521.97867	3144.3375
2524.70327	3143.8375
2527.42616	3138.9375
2530.14734	3127.6375
2532.86681	3119.6375
2535.58458	3119.0375
2538.30065	3113.0375
2541.01501	3106.2375
2543.72768	3110.9375
2546.43864	3088.0375
2549.14791	3089.9375
2551.85548	3087.6375
2554.56136	3076.1375
2557.26554	3084.9375
2559.96803	3079.4375
2562.66883	3072.8375
2565.36794	3060.2375
2568.06536	3062.3375
2570.7611	3063.1375
2573.45514	3065.1375
2576.14751	3068.6375
2578.83819	3053.7375
2581.52719	3054.7375
2584.21451	3032.7375
2586.90015	3031.5375
2589.58411	3030.0375
2592.2664	3026.2375
2594.94701	3011.1375
2597.62594	3024.7375
2600.30321	3011.3375
2602.9788	3006.3375
2605.65273	3003.4375
2608.32498	2995.7375
2610.99557	3000.0375
2613.66449	2988.9375
2616.33175	2997.5375
2618.99734	2996.8375
2621.66128	2979.0375
2624.32355	2980.3375
2626.98416	2992.0375
2629.64311	2987.5375
2632.30041	2989.5375
2634.95605	2971.3375
2637.61004	2961.9375
2640.26238	2967.5375
2642.91306	2964.7375
2645.56209	2968.2375
2648.20948	2965.2375
2650.85521	2958.7375
2653.4993	2962.6375
2656.14175	2961.4375
2658.78255	2965.9375
2661.42171	2941.8375
2664.05923	2952.9375
2666.6951	2960.0375
2669.32934	2960.3375
2671.96194	2955.7375
2674.59291	2969.0375
2677.22224	2957.8375
2679.84993	2952.6375
2682.476	2950.3375
2685.10043	2960.6375
2687.72324	2943.1375
2690.34441	2954.8375
2692.96396	2964.8375
2695.58188	2961.5375
2698.19818	2946.4375
2700.81285	2948.4375
2703.4259	2971.0375
2706.03733	2973.8375
2708.64714	2964.3375
2711.25533	2964.7375
2713.86191	2955.0375
2716.46687	2969.4375
2719.07021	2975.5375
2721.67194	2974.9375
2724.27206	2951.0375
2726.87057	2965.5375
2729.46747	2959.3375
2732.06276	2957.7375
2734.65644	2958.5375
2737.24852	2965.5375
2739.83899	2947.1375
2742.42786	2957.2375
2745.01513	2938.7375
2747.60079	2963.0375
2750.18486	2947.1375
2752.76733	2955.3375
2755.3482	2948.3375
2757.92747	2941.2375
2760.50515	2927.4375
2763.08123	2925.2375
2765.65573	2928.8375
2768.22863	2928.2375
2770.79994	2920.0375
2773.36967	2912.8375
2775.9378	2914.7375
2778.50435	2921.1375
2781.06932	2901.5375
2783.6327	2911.9375
2786.1945	2906.0375
2788.75471	2906.9375
2791.31335	2899.6375
2793.87041	2895.9375
2796.42589	2879.0375
2798.97979	2870.0375
2801.53212	2882.4375
2804.08288	2873.3375
2806.63206	2867.0375
2809.17967	2846.5375
2811.72571	2850.0375
2814.27018	2862.7375
2816.81308	2851.7375
2819.35442	2851.3375
2821.89419	2839.7375
2824.43239	2835.2375
2826.96904	2832.9375
2829.50412	2839.5375
2832.03763	2843.6375
2834.56959	2842.2375
2837.1	2833.2375
2839.62884	2832.0375
2842.15613	2836.0375
2844.68186	2823.0375
2847.20604	2843.5375
2849.72867	2836.7375
2852.24974	2822.8375
2854.76927	2826.3375
2857.28724	2835.8375
2859.80367	2842.6375
2862.31855	2822.8375
2864.83189	2832.8375
2867.34368	2812.1375
2869.85393	2831.4375
2872.36264	2817.4375
2874.8698	2828.5375
2877.37543	2826.1375
2879.87952	2840.0375
2882.38207	2837.3375
2884.88308	2833.6375
2887.38256	2829.5375
2889.88051	2825.8375
2892.37692	2841.2375
2894.8718	2840.2375
2897.36515	2846.4375
2899.85698	2843.7375
2902.34727	2842.3375
2904.83604	2842.3375
2907.32328	2850.9375
2909.809	2859.1375
2912.29319	2854.5375
2914.77587	2853.7375
2917.25702	2860.6375
2919.73665	2869.5375
2922.21476	2849.0375
2924.69136	2848.8375
2927.16644	2844.2375
2929.64	2842.4375
2932.11205	2837.6375
2934.58258	2856.0375
2937.05161	2846.6375
2939.51912	2841.0375
2941.98513	2849.5375
2944.44962	2842.4375
2946.91261	2839.5375
2949.37409	2829.2375
2951.83407	2836.3375
2954.29254	2828.1375
2956.74951	2827.6375
2959.20498	2816.4375
2961.65895	2802.0375
2964.11142	2819.8375
2966.56239	2820.5375
2969.01186	2812.4375
2971.45984	2809.0375
2973.90632	2794.0375
2976.35131	2796.6375
2978.7948	2787.4375
2981.23681	2783.8375
2983.67732	2785.7375
2986.11635	2776.1375
2988.55388	2773.7375
2990.98993	2766.7375
2993.4245	2753.2375
2995.85758	2761.2375
2998.28917	2762.9375
3000.71928	2745.0375
3003.14791	2755.7375
3005.57506	2755.5375
3008.00073	2734.7375
3010.42493	2739.6375
3012.84764	2752.5375
3015.26888	2753.7375
3017.68865	2729.0375
3020.10694	2743.5375
3022.52376	2742.7375
3024.9391	2739.8375
3027.35298	2737.7375
3029.76539	2737.2375
3032.17632	2742.1375
3034.5858	2740.4375
3036.9938	2738.9375
3039.40034	2737.6375
3041.80542	2723.5375
3044.20903	2738.1375
3046.61118	2745.5375
3049.01187	2726.4375
3051.4111	2731.8375
3053.80888	2724.9375
3056.20519	2736.7375
3058.60005	2725.4375
3060.99345	2723.2375
3063.3854	2730.5375
3065.7759	2715.0375
3068.16494	2720.4375
3070.55254	2709.2375
3072.93868	2714.3375
3075.32338	2716.3375
3077.70662	2714.9375
3080.08842	2705.2375
3082.46878	2729.4375
3084.84769	2714.8375
3087.22515	2722.3375
3089.60118	2739.6375
3091.97576	2724.8375
3094.3489	2720.0375
3096.72061	2735.6375
3099.09087	2753.8375
3101.4597	2737.4375
3103.82709	2742.8375
3106.19305	2741.5375
3108.55757	2749.7375
3110.92066	2747.3375
3113.28232	2751.8375
3115.64255	2752.5375
3118.00134	2751.7375
3120.35871	2739.6375
3122.71466	2751.6375
3125.06917	2739.4375
3127.42226	2750.6375
3129.77393	2754.3375
3132.12417	2764.6375
3134.47299	2771.1375
3136.82039	2774.2375
3139.16636	2770.2375
3141.51092	2782.8375
3143.85406	2785.5375
3146.19579	2792.7375
3148.53609	2801.3375
3150.87499	2792.1375
3153.21246	2813.2375
3155.54853	2829.5375
3157.88318	2822.0375
3160.21642	2840.6375
3162.54826	2854.1375
3164.87868	2836.7375
3167.2077	2838.2375
3169.5353	2847.6375
3171.86151	2851.9375
3174.18631	2871.0375
3176.5097	2860.3375
3178.83169	2852.8375
3181.15228	2856.6375
3183.47147	2858.4375
3185.78926	2875.4375
3188.10565	2866.9375
3190.42065	2882.8375
3192.73424	2890.4375
3195.04645	2885.3375
3197.35725	2887.4375
3199.66667	2894.8375
3201.97469	2904.6375
3204.28132	2914.3375
3206.58656	2919.5375
3208.8904	2918.6375
3211.19287	2926.8375
3213.49394	2928.7375
3215.79363	2918.4375
3218.09193	2935.8375
3220.38884	2946.5375
3222.68438	2946.5375
3224.97853	2927.2375
3227.2713	2934.4375
3229.56269	2934.6375
3231.8527	2939.8375
3234.14133	2936.2375
3236.42858	2928.2375
3238.71446	2933.9375
3240.99896	2932.8375
3243.28209	2927.5375
3245.56384	2929.7375
3247.84423	2921.5375
3250.12324	2922.5375
3252.40088	2917.7375
3254.67715	2920.5375
3256.95205	2924.1375
3259.22558	2923.8375
3261.49775	2923.1375
3263.76855	2912.1375
3266.03799	2907.8375
3268.30606	2911.7375
3270.57277	2901.8375
3272.83812	2901.6375
3275.10211	2888.6375
3277.36474	2893.1375
3279.62601	2899.2375
3281.88593	2888.3375
3284.14448	2890.4375
3286.40168	2901.7375
3288.65753	2881.6375
3290.91202	2880.1375
3293.16516	2873.9375
3295.41695	2877.2375
3297.66738	2848.3375
3299.91647	2837.6375
3302.16421	2840.6375
3304.4106	2828.1375
3306.65564	2809.0375
3308.89933	2792.0375
3311.14169	2779.8375
3313.38269	2760.9375
3315.62236	2746.0375
3317.86068	2728.1375
3320.09766	2709.0375
3322.3333	2686.7375
3324.5676	2684.3375
3326.80056	2632.9375
3329.03219	2636.4375
3331.26248	0.3375
3333.49143	0.7375
3335.71905	-1.7625
