Data from AgNPs_FTO_APTES_UA_0.1mM_CRN_0uM_NaF_0.1M_Addition_RamanShift__48__10-58-37-509.txt Node

Date: Mon Dec 20 10:58:37 GMT 2021
User: TCL
Spectrometer: QEP01345
Trigger mode: 4
Integration Time (sec): 7.000000E0
Scans to average: 10
Electric dark correction enabled: true
Nonlinearity correction enabled: false
Boxcar width: 0
XAxis mode: Raman Shifts
Number of Pixels in Spectrum: 1044
>>>>>Begin Spectral Data<<<<<
46.04893	1.3
50.45542	-1.4
54.85868	-1.9
59.25871	1.1
63.6555	28.4
68.04907	31.8
72.43941	34.8
76.82654	30.6
81.21044	37.5
85.59113	40.4
89.96862	40.5
94.34289	43.1
98.71396	42.4
103.08183	43.6
107.4465	46
111.80798	45
116.16626	44.9
120.52136	49.4
124.87327	49.5
129.222	50.9
133.56755	53.8
137.90993	59.3
142.24913	59.4
146.58517	61.5
150.91804	72.3
155.24774	86.4
159.57429	99.9
163.89768	131.8
168.21792	169.4
172.53501	214.6
176.84895	294
181.15975	405.4
185.46741	555
189.77193	769.3
194.07331	1022.7
198.37157	1317.6
202.6667	1622.3
206.9587	1953.3
211.24758	2270.7
215.53334	2586.5
219.81599	2909.9
224.09553	3247
228.37195	3639.6
232.64527	4067.2
236.91549	4512
241.18261	4933.3
245.44663	5340.4
249.70755	5684
253.96539	5958.1
258.22014	6172.4
262.4718	6338.2
266.72039	6414.3
270.96589	6411.8
275.20832	6366.4
279.44768	6269.8
283.68397	6154
287.91719	6058.1
292.14735	5974
296.37445	5913.5
300.59849	5903.5
304.81948	5910.1
309.03742	5891.6
313.25231	5819.6
317.46415	5731.4
321.67296	5603.6
325.87872	5495
330.08145	5445.9
334.28114	5421.7
338.47781	5430.8
342.67145	5485.3
346.86207	5538.2
351.04966	5621.5
355.23424	5712.7
359.4158	5803.1
363.59435	5885.3
367.76989	5962.6
371.94243	6023.6
376.11196	6060.8
380.27849	6141.2
384.44203	6180.7
388.60257	6242.1
392.76012	6294.8
396.91468	6381.6
401.06626	6447.6
405.21485	6509.8
409.36047	6507.9
413.50311	6422.5
417.64277	6348.1
421.77947	6330
425.9132	6327.4
430.04396	6348.5
434.17176	6353.1
438.2966	6405.1
442.41849	6463.6
446.53742	6541.4
450.6534	6640.4
454.76644	6732.1
458.87653	6788
462.98368	6801
467.08789	6778.5
471.18916	6772.7
475.2875	6766.6
479.38291	6794.4
483.4754	6868.4
487.56496	6943
491.6516	7049.9
495.73531	7150.5
499.81612	7176.1
503.89401	7175.2
507.96899	7098.2
512.04106	7027.7
516.11023	6979.6
520.1765	6940.4
524.23987	6938.3
528.30034	6953.1
532.35792	6945.3
536.41261	6911.9
540.46441	6846.7
544.51333	6772.3
548.55936	6739.7
552.60252	6719.3
556.64279	6745.7
560.6802	6759.3
564.71473	6743.7
568.7464	6800.2
572.7752	6856.3
576.80114	6913.1
580.82422	6978.1
584.84444	7121.9
588.86181	7262.9
592.87633	7360.8
596.888	7383.9
600.89682	7314.4
604.9028	7410.2
608.90594	7870.5
612.90624	8484.7
616.90371	8359.3
620.89834	7624.3
624.89015	7424.5
628.87913	7689.2
632.86528	8113.2
636.84862	8434.4
640.82913	8445.1
644.80683	8219
648.78172	7853.3
652.75379	7573.7
656.72306	7377.9
660.68952	7300.4
664.65319	7210.1
668.61405	7156.9
672.57211	7176.4
676.52738	7223.5
680.47986	7252.5
684.42955	7263.2
688.37646	7235.8
692.32058	7151.3
696.26192	7059.6
700.20048	6971.6
704.13626	6934.3
708.06928	6851.2
711.99952	6811.1
715.927	6724.8
719.85171	6715.6
723.77365	6751
727.69284	6754.2
731.60928	6699.3
735.52295	6670.4
739.43388	6637.6
743.34206	6658.1
747.24749	6678.3
751.15017	6671.7
755.05012	6675.6
758.94733	6746.4
762.8418	6958.2
766.73354	7271.2
770.62254	7677.6
774.50882	7884.7
778.39237	7773.5
782.27321	7335.3
786.15132	6947.6
790.02671	6718.6
793.89938	6622.4
797.76935	6587.6
801.6366	6645
805.50115	6748.9
809.36299	6862.9
813.22213	6927.1
817.07857	6828.1
820.93231	6670.9
824.78336	6487.3
828.63172	6364.2
832.47738	6293.2
836.32036	6252.7
840.16066	6224
843.99827	6214.8
847.8332	6217.1
851.66546	6199.3
855.49504	6200
859.32195	6219.5
863.1462	6242.3
866.96777	6294.1
870.78668	6367.6
874.60293	6434.3
878.41652	6543.7
882.22745	6616.1
886.03573	6677.1
889.84136	6724.8
893.64433	6642.5
897.44466	6501.1
901.24235	6338.5
905.0374	6208.7
908.8298	6140.9
912.61957	6083.3
916.40671	6060.7
920.19121	6076.4
923.97308	6103.9
927.75233	6088
931.52895	6066.9
935.30295	6021.5
939.07433	5968.3
942.84309	5935.3
946.60924	5914.4
950.37278	5897.4
954.13371	5904.3
957.89203	5910.7
961.64774	5872
965.40086	5848.1
969.15137	5803.4
972.89929	5751.9
976.64461	5742.7
980.38733	5735
984.12747	5721.7
987.86502	5752
991.59999	5782.8
995.33237	5830.3
999.06217	5900.1
1002.78939	6008.4
1006.51404	6112.8
1010.23611	6181.7
1013.95561	6284.7
1017.67255	6310.1
1021.38692	6283.3
1025.09872	6173.9
1028.80796	6114.3
1032.51465	6057
1036.21877	6046.7
1039.92035	6025.3
1043.61937	6034.8
1047.31584	6006.9
1051.00976	5998
1054.70114	6011.5
1058.38998	6030.1
1062.07627	6074.7
1065.76003	6129.9
1069.44126	6187.1
1073.11995	6240
1076.79611	6295.8
1080.46974	6284.1
1084.14085	6297.2
1087.80943	6270.2
1091.47549	6257.3
1095.13903	6235.7
1098.80005	6173.5
1102.45857	6117.7
1106.11456	6067.7
1109.76805	6100.8
1113.41903	6183.3
1117.06751	6341.9
1120.71348	6590.2
1124.35696	6934.2
1127.99793	7346.7
1131.63641	7709
1135.2724	7956.4
1138.90589	7962
1142.5369	7797.2
1146.16542	7485.9
1149.79145	7157.3
1153.415	6830.8
1157.03607	6597.5
1160.65467	6478.9
1164.27079	6491.7
1167.88443	6608.2
1171.49561	6783.7
1175.10432	7055
1178.71056	7411
1182.31434	7765.8
1185.91565	7963
1189.51451	8019.9
1193.11091	8011.6
1196.70485	7922.2
1200.29634	7860.7
1203.88538	7774.5
1207.47197	7668.3
1211.05612	7499.1
1214.63782	7309.1
1218.21708	7136.4
1221.79391	6976.2
1225.36829	6862.1
1228.94024	6747.1
1232.50976	6667.4
1236.07685	6581.8
1239.6415	6584.5
1243.20374	6544.1
1246.76355	6572.3
1250.32093	6633.3
1253.8759	6713.7
1257.42845	6826.7
1260.97859	6956.4
1264.52631	7069.7
1268.07163	7192.5
1271.61453	7305.3
1275.15503	7411.4
1278.69312	7523.5
1282.22882	7602.5
1285.76211	7725.1
1289.29301	7879.7
1292.82151	8081.9
1296.34761	8327.5
1299.87133	8639.1
1303.39266	8986
1306.9116	9311.5
1310.42815	9681.1
1313.94233	9892.7
1317.45412	9907.9
1320.96354	9761.6
1324.47058	9590
1327.97525	9408.9
1331.47754	9279.4
1334.97747	9226.2
1338.47502	9233.3
1341.97022	9292.3
1345.46305	9359.1
1348.95352	9543.9
1352.44163	9802.5
1355.92738	10198.3
1359.41078	10643.9
1362.89183	10984.2
1366.37053	10855.3
1369.84688	10161.5
1373.32088	9306.4
1376.79254	8686
1380.26186	8363.1
1383.72883	8252.9
1387.19347	8131.1
1390.65578	8021.3
1394.11575	7883.3
1397.57339	7804.5
1401.0287	7793.7
1404.48168	7790
1407.93234	7689.2
1411.38068	7564.8
1414.82669	7335
1418.27039	7153.4
1421.71177	6921
1425.15083	6747.1
1428.58758	6633.7
1432.02203	6611.9
1435.45416	6632.5
1438.88399	6720
1442.31151	6826.5
1445.73673	6896
1449.15965	6971.1
1452.58027	7031.6
1455.9986	7073.9
1459.41463	7143.1
1462.82837	7226.9
1466.23982	7359.2
1469.64898	7434.1
1473.05586	7502.9
1476.46045	7527.4
1479.86276	7535.2
1483.26279	7462.4
1486.66054	7460.7
1490.05602	7507.6
1493.44922	7566.5
1496.84016	7675.7
1500.22882	7881.2
1503.61521	8148.7
1506.99934	8468.1
1510.38121	8768.3
1513.76081	8810.2
1517.13816	8613.2
1520.51324	8236.1
1523.88607	7886.7
1527.25665	7711.7
1530.62498	7594.7
1533.99105	7587.3
1537.35488	7550.6
1540.71647	7546.5
1544.07581	7536.6
1547.4329	7489.2
1550.78776	7492.3
1554.14038	7502.7
1557.49077	7553
1560.83892	7573.9
1564.18484	7632.5
1567.52853	7660.4
1570.86999	7718.2
1574.20922	7746.9
1577.54624	7757.3
1580.88103	7684
1584.2136	7585.8
1587.54395	7588.4
1590.87208	7712.1
1594.19801	7907.4
1597.52172	8202.9
1600.84321	8364.8
1604.16251	8232.6
1607.47959	7936.5
1610.79447	7626.7
1614.10715	7335
1617.41763	7112
1620.7259	6941.5
1624.03199	6867.9
1627.33587	6875.3
1630.63757	6964.1
1633.93707	7172.7
1637.23439	7510.6
1640.52951	7985.1
1643.82246	8614.4
1647.11321	9144
1650.40179	9416.3
1653.68819	9164.3
1656.97241	8521.2
1660.25446	7816.8
1663.53433	7285
1666.81203	6896.7
1670.08756	6659.5
1673.36092	6491.6
1676.63211	6376.9
1679.90115	6271.3
1683.16801	6142.3
1686.43272	6012.6
1689.69527	5878
1692.95567	5729.8
1696.2139	5606.8
1699.46999	5498.1
1702.72392	5374.5
1705.97571	5279.1
1709.22535	5192.2
1712.47284	5139.8
1715.71819	5079.5
1718.96139	5031.1
1722.20246	4971.4
1725.44139	4918.6
1728.67818	4854.6
1731.91284	4792.5
1735.14537	4733.9
1738.37576	4690.6
1741.60403	4660.2
1744.83017	4617.7
1748.05418	4585.1
1751.27607	4561.6
1754.49584	4544.7
1757.71349	4528.8
1760.92903	4518.8
1764.14244	4518.4
1767.35375	4487.6
1770.56294	4491.9
1773.77002	4476.4
1776.97499	4448.7
1780.17785	4425.4
1783.37861	4424.9
1786.57727	4404.6
1789.77382	4377.3
1792.96828	4362.2
1796.16064	4343.4
1799.3509	4329.5
1802.53907	4331
1805.72514	4302.8
1808.90913	4289.5
1812.09102	4277.7
1815.27083	4263.4
1818.44856	4253.5
1821.6242	4246.4
1824.79776	4238.1
1827.96924	4238.8
1831.13864	4228.4
1834.30597	4210.3
1837.47122	4198.1
1840.6344	4207.1
1843.7955	4194.2
1846.95454	4200.1
1850.11151	4190.2
1853.26642	4182.3
1856.41926	4167.7
1859.57004	4169.1
1862.71876	4190.6
1865.86542	4158.4
1869.01003	4163.2
1872.15258	4144.7
1875.29308	4156.1
1878.43152	4136.5
1881.56792	4138.2
1884.70227	4142.2
1887.83457	4120
1890.96482	4123.3
1894.09304	4111.6
1897.21921	4099.7
1900.34335	4107.3
1903.46544	4097.3
1906.58551	4099.4
1909.70353	4096.6
1912.81953	4093.1
1915.93349	4062
1919.04543	4059.1
1922.15534	4054.2
1925.26322	4049.7
1928.36908	4039.2
1931.47292	4029.8
1934.57473	4012.7
1937.67453	3995.4
1940.77232	3986.9
1943.86808	3962
1946.96184	3969.9
1950.05358	3950
1953.14331	3936.6
1956.23103	3932
1959.31675	3919.7
1962.40046	3911
1965.48217	3895.9
1968.56188	3889.6
1971.63959	3881.7
1974.7153	3860.3
1977.78901	3851.7
1980.86073	3846.8
1983.93046	3843.6
1986.99819	3829.6
1990.06394	3795.4
1993.1277	3792.1
1996.18947	3777.3
1999.24925	3784.8
2002.30706	3772
2005.36288	3762.2
2008.41672	3749.8
2011.46859	3719.1
2014.51848	3726.3
2017.56639	3694.8
2020.61233	3698.5
2023.6563	3696.4
2026.6983	3678.8
2029.73833	3662
2032.7764	3654
2035.8125	3644.2
2038.84664	3637.1
2041.87881	3641.4
2044.90903	3625.2
2047.93729	3625.2
2050.96359	3619.7
2053.98794	3625.1
2057.01034	3613.3
2060.03078	3600.3
2063.04927	3599.9
2066.06582	3608
2069.08042	3602.9
2072.09307	3599.6
2075.10378	3595.9
2078.11255	3593.9
2081.11938	3587.6
2084.12426	3578.2
2087.12722	3595.6
2090.12824	3587.6
2093.12732	3585.4
2096.12447	3587.4
2099.11969	3577.6
2102.11299	3584.8
2105.10435	3588.1
2108.09379	3587.2
2111.08131	3587.4
2114.0669	3575.1
2117.05057	3595.1
2120.03233	3597.1
2123.01216	3598.1
2125.99008	3601.4
2128.96609	3598
2131.94018	3589.7
2134.91236	3597.5
2137.88263	3605.4
2140.851	3601.4
2143.81746	3603.6
2146.78201	3613.7
2149.74466	3610.7
2152.7054	3600.8
2155.66425	3595.8
2158.6212	3603.4
2161.57625	3589.4
2164.52941	3586.8
2167.48067	3589.8
2170.43004	3585.8
2173.37752	3591.5
2176.32311	3599.6
2179.26681	3581.8
2182.20863	3578.8
2185.14856	3584.5
2188.08661	3592.8
2191.02278	3576.7
2193.95707	3564.5
2196.88948	3567.5
2199.82001	3562.4
2202.74867	3550.4
2205.67545	3550
2208.60037	3546.1
2211.52341	3542.6
2214.44458	3538.9
2217.36388	3521.6
2220.28132	3533.1
2223.1969	3510.5
2226.11061	3510.1
2229.02246	3493
2231.93245	3494.3
2234.84058	3500.8
2237.74686	3564.4
2240.65128	3496.2
2243.55385	3465.9
2246.45456	3463.8
2249.35343	3450.7
2252.25044	3454
2255.14561	3442.2
2258.03893	3457.3
2260.93041	3444
2263.82004	3422.9
2266.70783	3416.7
2269.59378	3396.5
2272.4779	3407.3
2275.36017	3402.6
2278.24061	3377.8
2281.11922	3371.3
2283.996	3382.4
2286.87094	3386.8
2289.74405	3382.8
2292.61534	3345.4
2295.4848	3356.5
2298.35243	3359.1
2301.21824	3352.1
2304.08223	3339.3
2306.94439	3330.8
2309.80474	3345.8
2312.66327	3347.8
2315.51999	3324.4
2318.37489	3325.3
2321.22797	3315.2
2324.07925	3314.4
2326.92871	3312.1
2329.77637	3307.1
2332.62222	3300.9
2335.46626	3307.5
2338.3085	3297.2
2341.14893	3291.7
2343.98756	3282.3
2346.8244	3279.8
2349.65943	3275.5
2352.49267	3280.3
2355.32411	3276.2
2358.15376	3277.6
2360.98161	3274.6
2363.80768	3277.5
2366.63195	3273.7
2369.45444	3268.5
2372.27514	3258.5
2375.09405	3258
2377.91118	3260.1
2380.72652	3241.1
2383.54009	3227.1
2386.35187	3249.4
2389.16188	3216.8
2391.97011	3218.8
2394.77657	3215.6
2397.58125	3201
2400.38416	3206.3
2403.18529	3202.9
2405.98466	3212.2
2408.78226	3192.3
2411.57809	3186.5
2414.37216	3170.5
2417.16446	3172.2
2419.955	3166.7
2422.74378	3167.7
2425.5308	3162.7
2428.31606	3147.2
2431.09956	3153.7
2433.88131	3156.8
2436.6613	3146.4
2439.43954	3146.4
2442.21603	3146
2444.99077	3124.5
2447.76377	3122.5
2450.53501	3131
2453.30451	3127.4
2456.07226	3128.9
2458.83827	3126.6
2461.60254	3107.2
2464.36507	3108.6
2467.12586	3111.7
2469.88492	3109
2472.64224	3105.6
2475.39782	3110.8
2478.15167	3110.5
2480.90379	3111.9
2483.65417	3104.9
2486.40283	3104.4
2489.14976	3099.9
2491.89497	3096.8
2494.63845	3100.1
2497.3802	3084.4
2500.12024	3085.6
2502.85855	3095.8
2505.59514	3096.4
2508.33002	3076.9
2511.06318	3076.2
2513.79462	3071.1
2516.52435	3071.4
2519.25237	3066
2521.97867	3059.1
2524.70327	3047.9
2527.42616	3048.2
2530.14734	3049.4
2532.86681	3054.5
2535.58458	3031
2538.30065	3029.6
2541.01501	3029.6
2543.72768	3023.2
2546.43864	3012.4
2549.14791	3014.6
2551.85548	3025.3
2554.56136	2999.2
2557.26554	3010.8
2559.96803	2997.6
2562.66883	2998.2
2565.36794	2991.4
2568.06536	2986.9
2570.7611	2986.3
2573.45514	2982.9
2576.14751	2985
2578.83819	2974.5
2581.52719	2985.4
2584.21451	2960.8
2586.90015	2956.2
2589.58411	2958.2
2592.2664	2948.7
2594.94701	2937.3
2597.62594	2949.4
2600.30321	2947.8
2602.9788	2943.7
2605.65273	2925.9
2608.32498	2933.8
2610.99557	2924.1
2613.66449	2926
2616.33175	2927.1
2618.99734	2916.5
2621.66128	2912.7
2624.32355	2904.3
2626.98416	2917.2
2629.64311	2909.5
2632.30041	2911.8
2634.95605	2901.1
2637.61004	2902.1
2640.26238	2904.7
2642.91306	2894.7
2645.56209	2889.7
2648.20948	2902.7
2650.85521	2881.2
2653.4993	2893.6
2656.14175	2875.3
2658.78255	2878.2
2661.42171	2881.6
2664.05923	2876.5
2666.6951	2892.6
2669.32934	2890.3
2671.96194	2874
2674.59291	2889.3
2677.22224	2892
2679.84993	2884.9
2682.476	2883.8
2685.10043	2880.5
2687.72324	2883.9
2690.34441	2880.2
2692.96396	2883.3
2695.58188	2882
2698.19818	2881.1
2700.81285	2894.8
2703.4259	2882.3
2706.03733	2904.7
2708.64714	2898.9
2711.25533	2896.4
2713.86191	2895.3
2716.46687	2903.3
2719.07021	2912.1
2721.67194	2895.4
2724.27206	2890.7
2726.87057	2887.5
2729.46747	2896.1
2732.06276	2892.4
2734.65644	2890.5
2737.24852	2888.1
2739.83899	2896.7
2742.42786	2883.3
2745.01513	2873.5
2747.60079	2888.3
2750.18486	2888
2752.76733	2876
2755.3482	2869.4
2757.92747	2872.8
2760.50515	2869.9
2763.08123	2872.1
2765.65573	2852
2768.22863	2867.3
2770.79994	2857.8
2773.36967	2854.6
2775.9378	2852.3
2778.50435	2850
2781.06932	2846.3
2783.6327	2849.8
2786.1945	2849.3
2788.75471	2835.3
2791.31335	2825.4
2793.87041	2826.8
2796.42589	2824.2
2798.97979	2806.6
2801.53212	2817.9
2804.08288	2804.8
2806.63206	2796.2
2809.17967	2786.4
2811.72571	2781.4
2814.27018	2783.6
2816.81308	2789.4
2819.35442	2788.7
2821.89419	2769.8
2824.43239	2778
2826.96904	2770.1
2829.50412	2773.1
2832.03763	2776.5
2834.56959	2774.6
2837.1	2757.8
2839.62884	2766.9
2842.15613	2758.4
2844.68186	2759
2847.20604	2769.6
2849.72867	2760.5
2852.24974	2750.4
2854.76927	2775.6
2857.28724	2764.7
2859.80367	2762.3
2862.31855	2765.2
2864.83189	2767.1
2867.34368	2754.8
2869.85393	2773.3
2872.36264	2763.6
2874.8698	2772.9
2877.37543	2758.8
2879.87952	2766.9
2882.38207	2779.1
2884.88308	2772.4
2887.38256	2774.8
2889.88051	2764.9
2892.37692	2768.5
2894.8718	2774.2
2897.36515	2774.6
2899.85698	2786.3
2902.34727	2803.2
2904.83604	2782.6
2907.32328	2789
2909.809	2789.4
2912.29319	2790.4
2914.77587	2789.6
2917.25702	2799.6
2919.73665	2783.2
2922.21476	2786.2
2924.69136	2781.7
2927.16644	2788.2
2929.64	2776
2932.11205	2787.3
2934.58258	2782.9
2937.05161	2791.7
2939.51912	2788
2941.98513	2788.2
2944.44962	2768.9
2946.91261	2762.6
2949.37409	2771
2951.83407	2766.6
2954.29254	2762
2956.74951	2751
2959.20498	2756.8
2961.65895	2743.2
2964.11142	2751.4
2966.56239	2743.3
2969.01186	2751.4
2971.45984	2744.8
2973.90632	2735.9
2976.35131	2728.6
2978.7948	2733.4
2981.23681	2717
2983.67732	2718.3
2986.11635	2706.1
2988.55388	2698.9
2990.98993	2708.6
2993.4245	2693
2995.85758	2691
2998.28917	2688.5
3000.71928	2693.4
3003.14791	2695.1
3005.57506	2678.4
3008.00073	2690.5
3010.42493	2680.5
3012.84764	2687
3015.26888	2687.1
3017.68865	2695.2
3020.10694	2682.6
3022.52376	2684.2
3024.9391	2687.5
3027.35298	2679.9
3029.76539	2687.4
3032.17632	2679.6
3034.5858	2662.1
3036.9938	2679.9
3039.40034	2680.5
3041.80542	2678.9
3044.20903	2669.6
3046.61118	2677.7
3049.01187	2674.4
3051.4111	2669.9
3053.80888	2672.2
3056.20519	2658.5
3058.60005	2646.1
3060.99345	2658.3
3063.3854	2665.4
3065.7759	2662.4
3068.16494	2671
3070.55254	2653.3
3072.93868	2665.6
3075.32338	2650.8
3077.70662	2651.8
3080.08842	2660.3
3082.46878	2651.5
3084.84769	2656.6
3087.22515	2656.5
3089.60118	2671
3091.97576	2665.1
3094.3489	2677.2
3096.72061	2679.1
3099.09087	2686
3101.4597	2687
3103.82709	2684
3106.19305	2692.1
3108.55757	2696.4
3110.92066	2679
3113.28232	2697.9
3115.64255	2683.9
3118.00134	2694.8
3120.35871	2685.4
3122.71466	2695.6
3125.06917	2690.1
3127.42226	2694.1
3129.77393	2697.2
3132.12417	2695.3
3134.47299	2708.7
3136.82039	2712.7
3139.16636	2725
3141.51092	2734.5
3143.85406	2732.1
3146.19579	2757
3148.53609	2743.7
3150.87499	2756.7
3153.21246	2753
3155.54853	2774.2
3157.88318	2767.7
3160.21642	2789.9
3162.54826	2785.3
3164.87868	2786.1
3167.2077	2784.2
3169.5353	2793.1
3171.86151	2804.6
3174.18631	2796.1
3176.5097	2810
3178.83169	2808.1
3181.15228	2812.5
3183.47147	2803.7
3185.78926	2807.3
3188.10565	2814.3
3190.42065	2823.9
3192.73424	2819.2
3195.04645	2826.2
3197.35725	2834.2
3199.66667	2842.1
3201.97469	2842.9
3204.28132	2851.3
3206.58656	2871.6
3208.8904	2866.2
3211.19287	2864.2
3213.49394	2877.4
3215.79363	2877.8
3218.09193	2881.9
3220.38884	2887
3222.68438	2883.6
3224.97853	2884.9
3227.2713	2883.3
3229.56269	2892.9
3231.8527	2878.3
3234.14133	2877
3236.42858	2876.7
3238.71446	2858.7
3240.99896	2881.6
3243.28209	2877.7
3245.56384	2871.2
3247.84423	2866.3
3250.12324	2872.1
3252.40088	2870.6
3254.67715	2873.9
3256.95205	2865
3259.22558	2868.9
3261.49775	2851.1
3263.76855	2868.6
3266.03799	2844.3
3268.30606	2847.8
3270.57277	2827.9
3272.83812	2841.1
3275.10211	2845.4
3277.36474	2830.5
3279.62601	2840.7
3281.88593	2833
3284.14448	2853.2
3286.40168	2833.1
3288.65753	2835.9
3290.91202	2840.1
3293.16516	2820
3295.41695	2818.5
3297.66738	2808.8
3299.91647	2775.8
3302.16421	2771.1
3304.4106	2774.1
3306.65564	2763.8
3308.89933	2747.8
3311.14169	2731.9
3313.38269	2706.1
3315.62236	2699.5
3317.86068	2667.7
3320.09766	2647.9
3322.3333	2632.4
3324.5676	2650.1
3326.80056	2596.6
3329.03219	2578.5
3331.26248	1.1
3333.49143	0.7
3335.71905	-0.7
