Data from AgNPs_FTO_APTES_UA_0.1mM_CRN_10uM_NaF_0.1M_Addition_RamanShift__9__11-28-57-544.txt Node

Date: Mon Dec 20 11:28:57 GMT 2021
User: TCL
Spectrometer: QEP01345
Trigger mode: 4
Integration Time (sec): 7.000000E0
Scans to average: 10
Electric dark correction enabled: true
Nonlinearity correction enabled: false
Boxcar width: 0
XAxis mode: Raman Shifts
Number of Pixels in Spectrum: 1044
>>>>>Begin Spectral Data<<<<<
46.04893	0.2625
50.45542	-0.1375
54.85868	-1.8375
59.25871	1.2625
63.6555	29.0625
68.04907	29.6625
72.43941	32.9625
76.82654	32.8625
81.21044	34.5625
85.59113	41.1625
89.96862	35.5625
94.34289	41.6625
98.71396	38.7625
103.08183	40.0625
107.4465	42.1625
111.80798	46.2625
116.16626	43.4625
120.52136	44.3625
124.87327	48.9625
129.222	47.1625
133.56755	47.0625
137.90993	52.4625
142.24913	56.2625
146.58517	53.9625
150.91804	64.1625
155.24774	78.5625
159.57429	89.0625
163.89768	111.5625
168.21792	142.9625
172.53501	179.2625
176.84895	250.8625
181.15975	342.7625
185.46741	470.0625
189.77193	651.4625
194.07331	857.0625
198.37157	1116.7625
202.6667	1377.9625
206.9587	1641.4625
211.24758	1904.7625
215.53334	2175.2625
219.81599	2479.3625
224.09553	2785.9625
228.37195	3141.2625
232.64527	3539.1625
236.91549	3936.0625
241.18261	4341.4625
245.44663	4693.8625
249.70755	4991.3625
253.96539	5216.4625
258.22014	5374.1625
262.4718	5473.2625
266.72039	5505.1625
270.96589	5511.5625
275.20832	5453.8625
279.44768	5352.1625
283.68397	5286.2625
287.91719	5201.2625
292.14735	5124.3625
296.37445	5073.8625
300.59849	5064.5625
304.81948	5032.8625
309.03742	5018.7625
313.25231	4976.8625
317.46415	4903.5625
321.67296	4795.4625
325.87872	4722.9625
330.08145	4659.5625
334.28114	4649.0625
338.47781	4637.3625
342.67145	4667.4625
346.86207	4703.4625
351.04966	4764.4625
355.23424	4818.5625
359.4158	4883.6625
363.59435	4911.9625
367.76989	4956.3625
371.94243	5011.7625
376.11196	5034.3625
380.27849	5091.3625
384.44203	5134.6625
388.60257	5184.1625
392.76012	5227.2625
396.91468	5278.9625
401.06626	5352.0625
405.21485	5384.6625
409.36047	5381.5625
413.50311	5346.2625
417.64277	5324.0625
421.77947	5303.4625
425.9132	5306.9625
430.04396	5338.6625
434.17176	5344.2625
438.2966	5381.4625
442.41849	5403.2625
446.53742	5448.1625
450.6534	5504.3625
454.76644	5551.1625
458.87653	5613.9625
462.98368	5603.5625
467.08789	5607.9625
471.18916	5623.2625
475.2875	5618.0625
479.38291	5658.8625
483.4754	5713.6625
487.56496	5784.1625
491.6516	5872.8625
495.73531	5977.2625
499.81612	6018.4625
503.89401	6015.0625
507.96899	5952.2625
512.04106	5872.8625
516.11023	5812.3625
520.1765	5766.0625
524.23987	5755.7625
528.30034	5736.0625
532.35792	5731.1625
536.41261	5698.2625
540.46441	5654.9625
544.51333	5595.1625
548.55936	5567.1625
552.60252	5559.2625
556.64279	5599.5625
560.6802	5622.2625
564.71473	5607.6625
568.7464	5654.3625
572.7752	5742.8625
576.80114	5801.8625
580.82422	5901.0625
584.84444	6025.3625
588.86181	6171.3625
592.87633	6256.4625
596.888	6212.4625
600.89682	6142.1625
604.9028	6131.0625
608.90594	6382.6625
612.90624	6731.0625
616.90371	6688.9625
620.89834	6205.5625
624.89015	6165.9625
628.87913	6481.0625
632.86528	6886.0625
636.84862	7213.9625
640.82913	7265.5625
644.80683	7035.3625
648.78172	6713.6625
652.75379	6395.8625
656.72306	6194.5625
660.68952	6041.7625
664.65319	5917.4625
668.61405	5777.9625
672.57211	5730.1625
676.52738	5734.7625
680.47986	5762.7625
684.42955	5776.2625
688.37646	5762.7625
692.32058	5703.3625
696.26192	5630.6625
700.20048	5589.9625
704.13626	5574.3625
708.06928	5565.1625
711.99952	5549.7625
715.927	5529.1625
719.85171	5564.6625
723.77365	5604.3625
727.69284	5636.0625
731.60928	5581.5625
735.52295	5515.6625
739.43388	5461.5625
743.34206	5464.3625
747.24749	5480.1625
751.15017	5477.1625
755.05012	5516.7625
758.94733	5599.4625
762.8418	5734.2625
766.73354	5956.6625
770.62254	6160.3625
774.50882	6243.7625
778.39237	6047.1625
782.27321	5784.2625
786.15132	5564.0625
790.02671	5436.2625
793.89938	5391.3625
797.76935	5403.8625
801.6366	5460.5625
805.50115	5551.6625
809.36299	5721.8625
813.22213	5843.9625
817.07857	5798.0625
820.93231	5650.7625
824.78336	5491.5625
828.63172	5333.9625
832.47738	5240.1625
836.32036	5188.0625
840.16066	5173.4625
843.99827	5152.9625
847.8332	5157.9625
851.66546	5151.2625
855.49504	5151.5625
859.32195	5166.3625
863.1462	5162.3625
866.96777	5205.5625
870.78668	5256.3625
874.60293	5346.3625
878.41652	5454.9625
882.22745	5561.9625
886.03573	5641.7625
889.84136	5686.8625
893.64433	5633.0625
897.44466	5521.6625
901.24235	5366.9625
905.0374	5256.6625
908.8298	5157.3625
912.61957	5091.9625
916.40671	5083.1625
920.19121	5096.3625
923.97308	5084.2625
927.75233	5063.0625
931.52895	5048.7625
935.30295	4991.1625
939.07433	4958.5625
942.84309	4906.2625
946.60924	4858.8625
950.37278	4866.4625
954.13371	4844.4625
957.89203	4829.4625
961.64774	4826.3625
965.40086	4821.0625
969.15137	4805.1625
972.89929	4790.5625
976.64461	4772.4625
980.38733	4760.1625
984.12747	4750.5625
987.86502	4769.0625
991.59999	4772.8625
995.33237	4819.9625
999.06217	4854.5625
1002.78939	4934.2625
1006.51404	5001.0625
1010.23611	5059.2625
1013.95561	5122.1625
1017.67255	5144.3625
1021.38692	5129.2625
1025.09872	5079.8625
1028.80796	5043.8625
1032.51465	4991.2625
1036.21877	4936.1625
1039.92035	4901.0625
1043.61937	4909.2625
1047.31584	4896.7625
1051.00976	4893.3625
1054.70114	4913.1625
1058.38998	4920.5625
1062.07627	4985.8625
1065.76003	5037.4625
1069.44126	5081.2625
1073.11995	5158.2625
1076.79611	5224.2625
1080.46974	5224.4625
1084.14085	5199.2625
1087.80943	5181.1625
1091.47549	5164.3625
1095.13903	5122.5625
1098.80005	5077.0625
1102.45857	5033.1625
1106.11456	4981.8625
1109.76805	5001.6625
1113.41903	5096.5625
1117.06751	5273.6625
1120.71348	5566.1625
1124.35696	5949.5625
1127.99793	6365.0625
1131.63641	6709.7625
1135.2724	6842.5625
1138.90589	6797.1625
1142.5369	6606.2625
1146.16542	6328.2625
1149.79145	6015.1625
1153.415	5698.5625
1157.03607	5471.2625
1160.65467	5355.3625
1164.27079	5313.9625
1167.88443	5367.2625
1171.49561	5499.7625
1175.10432	5653.2625
1178.71056	5896.5625
1182.31434	6139.1625
1185.91565	6268.7625
1189.51451	6303.4625
1193.11091	6306.5625
1196.70485	6317.4625
1200.29634	6319.8625
1203.88538	6308.4625
1207.47197	6274.6625
1211.05612	6175.4625
1214.63782	6039.2625
1218.21708	5863.6625
1221.79391	5700.8625
1225.36829	5565.7625
1228.94024	5459.2625
1232.50976	5389.1625
1236.07685	5340.7625
1239.6415	5321.8625
1243.20374	5323.2625
1246.76355	5367.9625
1250.32093	5412.0625
1253.8759	5483.1625
1257.42845	5544.8625
1260.97859	5641.1625
1264.52631	5711.6625
1268.07163	5786.9625
1271.61453	5831.7625
1275.15503	5882.0625
1278.69312	5924.9625
1282.22882	5955.5625
1285.76211	6005.7625
1289.29301	6123.3625
1292.82151	6267.4625
1296.34761	6444.9625
1299.87133	6634.2625
1303.39266	6836.2625
1306.9116	7072.5625
1310.42815	7292.3625
1313.94233	7420.5625
1317.45412	7433.1625
1320.96354	7356.3625
1324.47058	7276.9625
1327.97525	7216.8625
1331.47754	7192.4625
1334.97747	7177.2625
1338.47502	7147.0625
1341.97022	7186.2625
1345.46305	7274.3625
1348.95352	7365.8625
1352.44163	7492.5625
1355.92738	7681.0625
1359.41078	7988.5625
1362.89183	8306.5625
1366.37053	8314.1625
1369.84688	7888.9625
1373.32088	7337.0625
1376.79254	6946.4625
1380.26186	6715.3625
1383.72883	6633.9625
1387.19347	6520.8625
1390.65578	6413.6625
1394.11575	6313.8625
1397.57339	6215.1625
1401.0287	6145.4625
1404.48168	6089.3625
1407.93234	5967.7625
1411.38068	5832.6625
1414.82669	5688.7625
1418.27039	5510.6625
1421.71177	5358.4625
1425.15083	5221.2625
1428.58758	5127.7625
1432.02203	5125.3625
1435.45416	5153.9625
1438.88399	5187.4625
1442.31151	5221.4625
1445.73673	5240.1625
1449.15965	5291.8625
1452.58027	5325.0625
1455.9986	5308.2625
1459.41463	5334.9625
1462.82837	5397.6625
1466.23982	5453.8625
1469.64898	5528.8625
1473.05586	5578.7625
1476.46045	5590.7625
1479.86276	5602.4625
1483.26279	5617.8625
1486.66054	5651.4625
1490.05602	5716.4625
1493.44922	5816.3625
1496.84016	5971.7625
1500.22882	6151.1625
1503.61521	6442.6625
1506.99934	6717.8625
1510.38121	6941.8625
1513.76081	6969.1625
1517.13816	6802.1625
1520.51324	6562.9625
1523.88607	6342.9625
1527.25665	6203.3625
1530.62498	6158.7625
1533.99105	6131.1625
1537.35488	6115.5625
1540.71647	6079.4625
1544.07581	6044.2625
1547.4329	5990.8625
1550.78776	5953.7625
1554.14038	5951.0625
1557.49077	5932.0625
1560.83892	5941.0625
1564.18484	5994.7625
1567.52853	6027.4625
1570.86999	6051.3625
1574.20922	6078.8625
1577.54624	6094.7625
1580.88103	6053.5625
1584.2136	5983.3625
1587.54395	5948.8625
1590.87208	5982.9625
1594.19801	6074.7625
1597.52172	6205.7625
1600.84321	6282.6625
1604.16251	6172.8625
1607.47959	5997.3625
1610.79447	5813.6625
1614.10715	5630.6625
1617.41763	5493.5625
1620.7259	5372.5625
1624.03199	5333.8625
1627.33587	5364.7625
1630.63757	5440.2625
1633.93707	5598.9625
1637.23439	5846.7625
1640.52951	6222.9625
1643.82246	6644.1625
1647.11321	7047.0625
1650.40179	7301.4625
1653.68819	7181.5625
1656.97241	6769.9625
1660.25446	6290.2625
1663.53433	5904.7625
1666.81203	5640.1625
1670.08756	5472.3625
1673.36092	5371.8625
1676.63211	5303.4625
1679.90115	5261.1625
1683.16801	5196.2625
1686.43272	5119.9625
1689.69527	5049.9625
1692.95567	4951.1625
1696.2139	4850.7625
1699.46999	4787.9625
1702.72392	4708.9625
1705.97571	4601.6625
1709.22535	4481.9625
1712.47284	4367.6625
1715.71819	4254.3625
1718.96139	4142.1625
1722.20246	4047.5625
1725.44139	3984.7625
1728.67818	3911.2625
1731.91284	3840.7625
1735.14537	3798.6625
1738.37576	3757.6625
1741.60403	3722.6625
1744.83017	3693.8625
1748.05418	3672.9625
1751.27607	3652.5625
1754.49584	3640.1625
1757.71349	3639.6625
1760.92903	3625.1625
1764.14244	3613.2625
1767.35375	3607.7625
1770.56294	3604.9625
1773.77002	3586.8625
1776.97499	3572.2625
1780.17785	3554.4625
1783.37861	3536.3625
1786.57727	3525.0625
1789.77382	3512.9625
1792.96828	3511.0625
1796.16064	3495.6625
1799.3509	3488.7625
1802.53907	3474.8625
1805.72514	3445.9625
1808.90913	3438.5625
1812.09102	3431.3625
1815.27083	3419.7625
1818.44856	3417.4625
1821.6242	3402.9625
1824.79776	3401.3625
1827.96924	3393.9625
1831.13864	3385.8625
1834.30597	3370.3625
1837.47122	3380.3625
1840.6344	3371.2625
1843.7955	3366.5625
1846.95454	3362.5625
1850.11151	3375.7625
1853.26642	3348.5625
1856.41926	3346.5625
1859.57004	3337.4625
1862.71876	3333.7625
1865.86542	3324.5625
1869.01003	3325.7625
1872.15258	3326.6625
1875.29308	3324.6625
1878.43152	3301.1625
1881.56792	3306.1625
1884.70227	3294.6625
1887.83457	3277.3625
1890.96482	3277.2625
1894.09304	3277.1625
1897.21921	3270.7625
1900.34335	3259.9625
1903.46544	3261.7625
1906.58551	3255.0625
1909.70353	3252.4625
1912.81953	3236.1625
1915.93349	3234.1625
1919.04543	3234.0625
1922.15534	3213.2625
1925.26322	3208.1625
1928.36908	3187.9625
1931.47292	3192.5625
1934.57473	3181.9625
1937.67453	3178.5625
1940.77232	3156.3625
1943.86808	3172.5625
1946.96184	3146.1625
1950.05358	3132.8625
1953.14331	3123.5625
1956.23103	3109.3625
1959.31675	3103.4625
1962.40046	3093.8625
1965.48217	3088.2625
1968.56188	3074.2625
1971.63959	3063.4625
1974.7153	3061.5625
1977.78901	3045.2625
1980.86073	3028.0625
1983.93046	3032.4625
1986.99819	3013.7625
1990.06394	3000.4625
1993.1277	2997.7625
1996.18947	2975.1625
1999.24925	2959.3625
2002.30706	2978.4625
2005.36288	2938.7625
2008.41672	2945.1625
2011.46859	2936.6625
2014.51848	2929.3625
2017.56639	2914.9625
2020.61233	2911.1625
2023.6563	2895.3625
2026.6983	2897.8625
2029.73833	2869.5625
2032.7764	2879.8625
2035.8125	2868.1625
2038.84664	2868.0625
2041.87881	2859.0625
2044.90903	2839.6625
2047.93729	2838.9625
2050.96359	2841.1625
2053.98794	2834.7625
2057.01034	2830.5625
2060.03078	2822.8625
2063.04927	2819.6625
2066.06582	2819.7625
2069.08042	2814.6625
2072.09307	2817.1625
2075.10378	2803.7625
2078.11255	2805.2625
2081.11938	2793.9625
2084.12426	2802.4625
2087.12722	2796.2625
2090.12824	2806.3625
2093.12732	2790.1625
2096.12447	2791.4625
2099.11969	2789.6625
2102.11299	2789.7625
2105.10435	2795.8625
2108.09379	2801.9625
2111.08131	2792.2625
2114.0669	2796.7625
2117.05057	2791.5625
2120.03233	2800.3625
2123.01216	2800.2625
2125.99008	2790.6625
2128.96609	2795.8625
2131.94018	2793.0625
2134.91236	2795.8625
2137.88263	2781.9625
2140.851	2795.3625
2143.81746	2799.7625
2146.78201	2799.1625
2149.74466	2790.4625
2152.7054	2785.5625
2155.66425	2786.0625
2158.6212	2776.4625
2161.57625	2777.7625
2164.52941	2779.6625
2167.48067	2773.1625
2170.43004	2771.8625
2173.37752	2768.8625
2176.32311	2756.1625
2179.26681	2773.1625
2182.20863	2752.5625
2185.14856	2772.3625
2188.08661	2759.7625
2191.02278	2770.1625
2193.95707	2748.7625
2196.88948	2737.6625
2199.82001	2750.9625
2202.74867	2729.4625
2205.67545	2733.2625
2208.60037	2721.3625
2211.52341	2718.7625
2214.44458	2701.2625
2217.36388	2704.0625
2220.28132	2701.8625
2223.1969	2685.3625
2226.11061	2685.6625
2229.02246	2678.8625
2231.93245	2676.4625
2234.84058	2663.2625
2237.74686	2657.6625
2240.65128	2651.7625
2243.55385	2651.0625
2246.45456	2651.9625
2249.35343	2636.2625
2252.25044	2633.9625
2255.14561	2638.3625
2258.03893	2631.8625
2260.93041	2626.2625
2263.82004	2612.6625
2266.70783	2593.8625
2269.59378	2604.6625
2272.4779	2590.7625
2275.36017	2590.4625
2278.24061	2590.5625
2281.11922	2568.1625
2283.996	2573.7625
2286.87094	2565.7625
2289.74405	2567.1625
2292.61534	2546.8625
2295.4848	2543.1625
2298.35243	2536.7625
2301.21824	2526.8625
2304.08223	2543.7625
2306.94439	2540.3625
2309.80474	2523.0625
2312.66327	2527.4625
2315.51999	2515.5625
2318.37489	2520.7625
2321.22797	2508.5625
2324.07925	2506.0625
2326.92871	2508.6625
2329.77637	2494.2625
2332.62222	2490.0625
2335.46626	2487.0625
2338.3085	2484.5625
2341.14893	2486.6625
2343.98756	2460.0625
2346.8244	2472.3625
2349.65943	2467.6625
2352.49267	2464.2625
2355.32411	2459.4625
2358.15376	2462.8625
2360.98161	2451.5625
2363.80768	2460.0625
2366.63195	2450.2625
2369.45444	2451.6625
2372.27514	2444.8625
2375.09405	2447.2625
2377.91118	2440.8625
2380.72652	2429.9625
2383.54009	2409.5625
2386.35187	2427.7625
2389.16188	2416.3625
2391.97011	2408.3625
2394.77657	2402.0625
2397.58125	2392.9625
2400.38416	2386.6625
2403.18529	2382.4625
2405.98466	2383.4625
2408.78226	2384.4625
2411.57809	2375.0625
2414.37216	2348.3625
2417.16446	2362.6625
2419.955	2351.0625
2422.74378	2351.5625
2425.5308	2347.7625
2428.31606	2349.3625
2431.09956	2334.8625
2433.88131	2328.3625
2436.6613	2336.3625
2439.43954	2332.6625
2442.21603	2337.3625
2444.99077	2325.5625
2447.76377	2327.5625
2450.53501	2320.7625
2453.30451	2321.1625
2456.07226	2301.4625
2458.83827	2308.2625
2461.60254	2307.0625
2464.36507	2301.6625
2467.12586	2291.2625
2469.88492	2301.5625
2472.64224	2287.0625
2475.39782	2293.3625
2478.15167	2290.7625
2480.90379	2295.3625
2483.65417	2275.2625
2486.40283	2279.8625
2489.14976	2279.8625
2491.89497	2288.7625
2494.63845	2279.4625
2497.3802	2270.9625
2500.12024	2265.8625
2502.85855	2270.0625
2505.59514	2266.1625
2508.33002	2262.1625
2511.06318	2250.5625
2513.79462	2260.6625
2516.52435	2251.4625
2519.25237	2231.4625
2521.97867	2236.3625
2524.70327	2229.3625
2527.42616	2236.8625
2530.14734	2235.4625
2532.86681	2217.2625
2535.58458	2217.6625
2538.30065	2205.5625
2541.01501	2200.8625
2543.72768	2206.8625
2546.43864	2189.3625
2549.14791	2192.5625
2551.85548	2193.2625
2554.56136	2185.9625
2557.26554	2175.4625
2559.96803	2171.2625
2562.66883	2170.9625
2565.36794	2174.3625
2568.06536	2168.5625
2570.7611	2171.1625
2573.45514	2163.3625
2576.14751	2147.1625
2578.83819	2142.4625
2581.52719	2138.0625
2584.21451	2137.2625
2586.90015	2141.6625
2589.58411	2134.8625
2592.2664	2129.9625
2594.94701	2132.6625
2597.62594	2123.8625
2600.30321	2100.7625
2602.9788	2112.5625
2605.65273	2116.9625
2608.32498	2098.8625
2610.99557	2095.5625
2613.66449	2104.6625
2616.33175	2101.8625
2618.99734	2092.4625
2621.66128	2083.7625
2624.32355	2078.9625
2626.98416	2089.8625
2629.64311	2082.2625
2632.30041	2078.4625
2634.95605	2069.8625
2637.61004	2081.4625
2640.26238	2070.7625
2642.91306	2064.0625
2645.56209	2073.2625
2648.20948	2059.4625
2650.85521	2067.3625
2653.4993	2059.4625
2656.14175	2058.1625
2658.78255	2052.0625
2661.42171	2049.6625
2664.05923	2041.9625
2666.6951	2052.3625
2669.32934	2055.6625
2671.96194	2053.1625
2674.59291	2053.8625
2677.22224	2050.5625
2679.84993	2053.4625
2682.476	2044.3625
2685.10043	2052.3625
2687.72324	2048.2625
2690.34441	2046.1625
2692.96396	2054.5625
2695.58188	2049.4625
2698.19818	2048.1625
2700.81285	2052.3625
2703.4259	2072.6625
2706.03733	2062.3625
2708.64714	2060.6625
2711.25533	2044.6625
2713.86191	2050.4625
2716.46687	2046.1625
2719.07021	2056.6625
2721.67194	2050.1625
2724.27206	2037.8625
2726.87057	2056.1625
2729.46747	2050.6625
2732.06276	2044.3625
2734.65644	2045.1625
2737.24852	2031.9625
2739.83899	2036.6625
2742.42786	2037.3625
2745.01513	2026.1625
2747.60079	2035.0625
2750.18486	2021.8625
2752.76733	2015.8625
2755.3482	2025.5625
2757.92747	2014.1625
2760.50515	2018.3625
2763.08123	2017.5625
2765.65573	2004.6625
2768.22863	2011.7625
2770.79994	2002.7625
2773.36967	2001.9625
2775.9378	1991.1625
2778.50435	1990.1625
2781.06932	1993.6625
2783.6327	1991.0625
2786.1945	1980.3625
2788.75471	1975.9625
2791.31335	1983.5625
2793.87041	1968.5625
2796.42589	1964.5625
2798.97979	1966.6625
2801.53212	1952.1625
2804.08288	1944.5625
2806.63206	1946.6625
2809.17967	1948.9625
2811.72571	1949.2625
2814.27018	1939.0625
2816.81308	1930.8625
2819.35442	1937.4625
2821.89419	1930.5625
2824.43239	1935.6625
2826.96904	1917.9625
2829.50412	1921.9625
2832.03763	1920.5625
2834.56959	1922.9625
2837.1	1924.5625
2839.62884	1919.4625
2842.15613	1914.6625
2844.68186	1924.4625
2847.20604	1928.0625
2849.72867	1923.0625
2852.24974	1925.8625
2854.76927	1916.6625
2857.28724	1925.9625
2859.80367	1925.4625
2862.31855	1922.2625
2864.83189	1922.4625
2867.34368	1913.3625
2869.85393	1917.6625
2872.36264	1919.5625
2874.8698	1925.8625
2877.37543	1923.5625
2879.87952	1928.9625
2882.38207	1922.9625
2884.88308	1924.0625
2887.38256	1922.5625
2889.88051	1919.5625
2892.37692	1924.1625
2894.8718	1922.3625
2897.36515	1934.0625
2899.85698	1929.9625
2902.34727	1926.5625
2904.83604	1923.9625
2907.32328	1943.3625
2909.809	1933.2625
2912.29319	1936.0625
2914.77587	1935.9625
2917.25702	1931.4625
2919.73665	1927.9625
2922.21476	1937.8625
2924.69136	1935.2625
2927.16644	1933.7625
2929.64	1931.2625
2932.11205	1923.3625
2934.58258	1927.0625
2937.05161	1928.2625
2939.51912	1920.5625
2941.98513	1923.8625
2944.44962	1927.7625
2946.91261	1922.2625
2949.37409	1923.9625
2951.83407	1914.0625
2954.29254	1921.7625
2956.74951	1911.5625
2959.20498	1908.3625
2961.65895	1894.4625
2964.11142	1904.4625
2966.56239	1901.2625
2969.01186	1901.8625
2971.45984	1887.5625
2973.90632	1869.9625
2976.35131	1881.5625
2978.7948	1883.8625
2981.23681	1872.8625
2983.67732	1881.3625
2986.11635	1868.7625
2988.55388	1858.3625
2990.98993	1861.7625
2993.4245	1858.7625
2995.85758	1853.5625
2998.28917	1846.6625
3000.71928	1847.1625
3003.14791	1849.8625
3005.57506	1846.6625
3008.00073	1852.4625
3010.42493	1842.4625
3012.84764	1845.1625
3015.26888	1850.8625
3017.68865	1844.4625
3020.10694	1845.0625
3022.52376	1846.8625
3024.9391	1847.5625
3027.35298	1833.1625
3029.76539	1836.1625
3032.17632	1838.8625
3034.5858	1843.3625
3036.9938	1835.9625
3039.40034	1828.3625
3041.80542	1835.8625
3044.20903	1842.9625
3046.61118	1835.4625
3049.01187	1835.2625
3051.4111	1835.2625
3053.80888	1847.9625
3056.20519	1845.1625
3058.60005	1837.8625
3060.99345	1844.3625
3063.3854	1838.2625
3065.7759	1839.5625
3068.16494	1842.9625
3070.55254	1831.2625
3072.93868	1826.7625
3075.32338	1835.1625
3077.70662	1843.0625
3080.08842	1850.6625
3082.46878	1845.5625
3084.84769	1849.1625
3087.22515	1854.0625
3089.60118	1852.4625
3091.97576	1867.3625
3094.3489	1865.8625
3096.72061	1871.6625
3099.09087	1864.3625
3101.4597	1866.6625
3103.82709	1875.3625
3106.19305	1873.1625
3108.55757	1878.9625
3110.92066	1880.3625
3113.28232	1878.3625
3115.64255	1886.5625
3118.00134	1885.9625
3120.35871	1883.6625
3122.71466	1888.4625
3125.06917	1888.4625
3127.42226	1890.2625
3129.77393	1907.8625
3132.12417	1901.5625
3134.47299	1908.5625
3136.82039	1920.1625
3139.16636	1917.8625
3141.51092	1917.8625
3143.85406	1933.1625
3146.19579	1934.0625
3148.53609	1943.0625
3150.87499	1943.5625
3153.21246	1949.5625
3155.54853	1966.1625
3157.88318	1970.9625
3160.21642	1965.1625
3162.54826	1983.3625
3164.87868	1984.2625
3167.2077	1984.5625
3169.5353	1997.5625
3171.86151	1990.4625
3174.18631	1996.8625
3176.5097	2003.8625
3178.83169	1997.2625
3181.15228	2009.6625
3183.47147	2008.4625
3185.78926	2027.9625
3188.10565	2014.1625
3190.42065	2028.9625
3192.73424	2035.2625
3195.04645	2037.8625
3197.35725	2037.5625
3199.66667	2034.6625
3201.97469	2046.3625
3204.28132	2052.0625
3206.58656	2067.3625
3208.8904	2062.7625
3211.19287	2064.3625
3213.49394	2068.8625
3215.79363	2061.8625
3218.09193	2071.8625
3220.38884	2075.5625
3222.68438	2084.6625
3224.97853	2074.5625
3227.2713	2080.4625
3229.56269	2079.4625
3231.8527	2075.0625
3234.14133	2066.8625
3236.42858	2076.2625
3238.71446	2062.2625
3240.99896	2069.6625
3243.28209	2066.1625
3245.56384	2070.6625
3247.84423	2066.0625
3250.12324	2063.8625
3252.40088	2070.6625
3254.67715	2073.4625
3256.95205	2066.3625
3259.22558	2062.6625
3261.49775	2066.4625
3263.76855	2052.1625
3266.03799	2051.8625
3268.30606	2041.7625
3270.57277	2045.4625
3272.83812	2036.8625
3275.10211	2048.2625
3277.36474	2029.8625
3279.62601	2042.9625
3281.88593	2031.8625
3284.14448	2042.2625
3286.40168	2038.3625
3288.65753	2037.6625
3290.91202	2035.2625
3293.16516	2021.5625
3295.41695	2017.1625
3297.66738	2007.4625
3299.91647	1997.1625
3302.16421	1991.5625
3304.4106	1980.6625
3306.65564	1975.2625
3308.89933	1960.9625
3311.14169	1952.7625
3313.38269	1943.6625
3315.62236	1919.1625
3317.86068	1909.6625
3320.09766	1894.2625
3322.3333	1888.3625
3324.5676	1891.3625
3326.80056	1858.0625
3329.03219	1850.6625
3331.26248	1.6625
3333.49143	-0.0375
3335.71905	-0.3375
