Data from AgNPs_FTO_APTES_UA_0.1mM_CRN_500uM_NaF_0.1M_Addition_RamanShift__6__14-41-27-761.txt Node

Date: Mon Dec 20 14:41:27 GMT 2021
User: TCL
Spectrometer: QEP01345
Trigger mode: 4
Integration Time (sec): 7.000000E0
Scans to average: 10
Electric dark correction enabled: true
Nonlinearity correction enabled: false
Boxcar width: 0
XAxis mode: Raman Shifts
Number of Pixels in Spectrum: 1044
>>>>>Begin Spectral Data<<<<<
46.04893	1.2
50.45542	-1
54.85868	-0.8
59.25871	1.4
63.6555	22.7
68.04907	24.7
72.43941	29.6
76.82654	30.1
81.21044	31.9
85.59113	34.9
89.96862	32.3
94.34289	36.5
98.71396	36.2
103.08183	36.8
107.4465	35.6
111.80798	39.4
116.16626	39.9
120.52136	39.1
124.87327	38.7
129.222	41.7
133.56755	40.5
137.90993	45.3
142.24913	43.6
146.58517	43.2
150.91804	50.5
155.24774	59.1
159.57429	67.6
163.89768	81.8
168.21792	104
172.53501	130.5
176.84895	177.9
181.15975	232.6
185.46741	317.8
189.77193	440.9
194.07331	578.8
198.37157	751.3
202.6667	931.8
206.9587	1116.2
211.24758	1297.4
215.53334	1490
219.81599	1692.4
224.09553	1917
228.37195	2168.7
232.64527	2463.3
236.91549	2727.2
241.18261	3001.8
245.44663	3248.5
249.70755	3436.7
253.96539	3561.2
258.22014	3642.7
262.4718	3685.6
266.72039	3659.6
270.96589	3627.9
275.20832	3585.2
279.44768	3495.2
283.68397	3418.9
287.91719	3355.1
292.14735	3285.2
296.37445	3235.1
300.59849	3198.6
304.81948	3167.9
309.03742	3151.5
313.25231	3109.5
317.46415	3078.8
321.67296	3044.4
325.87872	3011.6
330.08145	2973.7
334.28114	2975.7
338.47781	2967.8
342.67145	2983.2
346.86207	3009.5
351.04966	3024.6
355.23424	3059.9
359.4158	3089.3
363.59435	3131
367.76989	3146.5
371.94243	3202.6
376.11196	3222.8
380.27849	3273.7
384.44203	3307.9
388.60257	3337.4
392.76012	3365
396.91468	3404.5
401.06626	3423.1
405.21485	3447.8
409.36047	3459.4
413.50311	3458
417.64277	3442.9
421.77947	3440
425.9132	3439.5
430.04396	3450.4
434.17176	3470.9
438.2966	3465.8
442.41849	3473.1
446.53742	3483.3
450.6534	3504.4
454.76644	3537.3
458.87653	3548.2
462.98368	3565
467.08789	3573.2
471.18916	3600.3
475.2875	3608.4
479.38291	3637.4
483.4754	3712.1
487.56496	3792.8
491.6516	3900.4
495.73531	4015.9
499.81612	4049.5
503.89401	4027.4
507.96899	3952.7
512.04106	3887.1
516.11023	3832
520.1765	3822.7
524.23987	3815
528.30034	3840.9
532.35792	3840.9
536.41261	3838.2
540.46441	3800.6
544.51333	3739.8
548.55936	3698.8
552.60252	3656.2
556.64279	3629.9
560.6802	3627.8
564.71473	3611.1
568.7464	3626.1
572.7752	3642.8
576.80114	3658.5
580.82422	3713.2
584.84444	3810.3
588.86181	3917.1
592.87633	3968.2
596.888	3945.3
600.89682	3902.4
604.9028	3890.6
608.90594	3980.4
612.90624	4134
616.90371	4198.7
620.89834	4168.1
624.89015	4313.4
628.87913	4639.9
632.86528	5029.2
636.84862	5315.4
640.82913	5378.4
644.80683	5186.3
648.78172	4879
652.75379	4584.3
656.72306	4343.7
660.68952	4195.3
664.65319	4102.5
668.61405	4022.7
672.57211	4014.7
676.52738	4050.9
680.47986	4060
684.42955	4077
688.37646	4039.3
692.32058	3972.9
696.26192	3880.9
700.20048	3834.1
704.13626	3792.3
708.06928	3770.1
711.99952	3732.3
715.927	3766.3
719.85171	3777.8
723.77365	3821.2
727.69284	3859
731.60928	3848.7
735.52295	3766.6
739.43388	3723.6
743.34206	3708.2
747.24749	3701.6
751.15017	3712.9
755.05012	3727.8
758.94733	3736.9
762.8418	3785.8
766.73354	3838.4
770.62254	3881.5
774.50882	3881.7
778.39237	3832.8
782.27321	3762
786.15132	3686.3
790.02671	3656.8
793.89938	3643.4
797.76935	3661.9
801.6366	3718.6
805.50115	3827.4
809.36299	4003.5
813.22213	4097.7
817.07857	4064.3
820.93231	3938
824.78336	3787.8
828.63172	3634.1
832.47738	3544
836.32036	3498.6
840.16066	3493.8
843.99827	3481.2
847.8332	3476.7
851.66546	3462.1
855.49504	3472.7
859.32195	3477.5
863.1462	3499.2
866.96777	3532
870.78668	3587.2
874.60293	3655.7
878.41652	3763.8
882.22745	3860.3
886.03573	3938.7
889.84136	3972.4
893.64433	3918.3
897.44466	3815.2
901.24235	3670.7
905.0374	3540
908.8298	3451.7
912.61957	3401.7
916.40671	3368.4
920.19121	3356.5
923.97308	3349.1
927.75233	3336.5
931.52895	3315.6
935.30295	3302.2
939.07433	3291
942.84309	3273.8
946.60924	3255.5
950.37278	3242
954.13371	3233.1
957.89203	3245.4
961.64774	3232.4
965.40086	3219.7
969.15137	3222
972.89929	3200
976.64461	3190.7
980.38733	3178.1
984.12747	3179.6
987.86502	3176.6
991.59999	3196.6
995.33237	3223.3
999.06217	3243
1002.78939	3294
1006.51404	3339.7
1010.23611	3379.9
1013.95561	3413
1017.67255	3438.2
1021.38692	3437.6
1025.09872	3437.2
1028.80796	3379.8
1032.51465	3338.8
1036.21877	3302.2
1039.92035	3257.3
1043.61937	3253.1
1047.31584	3225.1
1051.00976	3234.5
1054.70114	3231.7
1058.38998	3253.3
1062.07627	3294.3
1065.76003	3334
1069.44126	3370.4
1073.11995	3404.6
1076.79611	3420.2
1080.46974	3416.2
1084.14085	3369.5
1087.80943	3317.5
1091.47549	3290.6
1095.13903	3262
1098.80005	3225
1102.45857	3238.6
1106.11456	3226.7
1109.76805	3264.6
1113.41903	3359
1117.06751	3517
1120.71348	3764
1124.35696	4091.8
1127.99793	4456.6
1131.63641	4752.3
1135.2724	4916.4
1138.90589	4860.5
1142.5369	4661.4
1146.16542	4372.3
1149.79145	4068.4
1153.415	3772.3
1157.03607	3554.2
1160.65467	3405.2
1164.27079	3322.3
1167.88443	3279.4
1171.49561	3284.5
1175.10432	3341.1
1178.71056	3399.5
1182.31434	3489.6
1185.91565	3541.2
1189.51451	3591.2
1193.11091	3620.7
1196.70485	3700.4
1200.29634	3776.7
1203.88538	3822.7
1207.47197	3850.6
1211.05612	3802.1
1214.63782	3714.8
1218.21708	3614.4
1221.79391	3511.5
1225.36829	3401.7
1228.94024	3349.4
1232.50976	3301
1236.07685	3288.4
1239.6415	3269
1243.20374	3275.7
1246.76355	3303
1250.32093	3332.4
1253.8759	3358.8
1257.42845	3385.2
1260.97859	3415.2
1264.52631	3448.1
1268.07163	3457.7
1271.61453	3461.8
1275.15503	3449
1278.69312	3428.9
1282.22882	3416.1
1285.76211	3400.6
1289.29301	3395.8
1292.82151	3404.7
1296.34761	3434
1299.87133	3474.7
1303.39266	3537.2
1306.9116	3619
1310.42815	3699.3
1313.94233	3773.7
1317.45412	3798.9
1320.96354	3802.7
1324.47058	3784.6
1327.97525	3785.7
1331.47754	3795.9
1334.97747	3824.1
1338.47502	3837.5
1341.97022	3900.3
1345.46305	3959.1
1348.95352	4039.5
1352.44163	4134
1355.92738	4226.6
1359.41078	4351
1362.89183	4470.7
1366.37053	4511.4
1369.84688	4396.5
1373.32088	4243.8
1376.79254	4093
1380.26186	3987.7
1383.72883	3896.1
1387.19347	3821.4
1390.65578	3734.4
1394.11575	3646.8
1397.57339	3575.2
1401.0287	3511.7
1404.48168	3442
1407.93234	3375.3
1411.38068	3314.9
1414.82669	3237.8
1418.27039	3175.2
1421.71177	3084.6
1425.15083	3049
1428.58758	2997.9
1432.02203	2968.7
1435.45416	2949.4
1438.88399	2921.6
1442.31151	2929.5
1445.73673	2942
1449.15965	2927.4
1452.58027	2938.8
1455.9986	2945.1
1459.41463	2946.4
1462.82837	2963.2
1466.23982	2969.3
1469.64898	2995.2
1473.05586	3010.6
1476.46045	3030.8
1479.86276	3030.1
1483.26279	3048.6
1486.66054	3074.5
1490.05602	3101.4
1493.44922	3147.8
1496.84016	3219.2
1500.22882	3305.4
1503.61521	3395.1
1506.99934	3497.9
1510.38121	3582.8
1513.76081	3581.9
1517.13816	3525.2
1520.51324	3434.9
1523.88607	3334.8
1527.25665	3292
1530.62498	3290.8
1533.99105	3302.3
1537.35488	3329.6
1540.71647	3358.7
1544.07581	3380.2
1547.4329	3416.8
1550.78776	3444.8
1554.14038	3457.2
1557.49077	3463.2
1560.83892	3475.1
1564.18484	3473.6
1567.52853	3483.3
1570.86999	3484
1574.20922	3471.7
1577.54624	3478.9
1580.88103	3433.7
1584.2136	3410.7
1587.54395	3338.3
1590.87208	3321.6
1594.19801	3324
1597.52172	3342.6
1600.84321	3369.6
1604.16251	3359.5
1607.47959	3333.2
1610.79447	3312.5
1614.10715	3298.2
1617.41763	3288.3
1620.7259	3289.1
1624.03199	3293.4
1627.33587	3318.6
1630.63757	3361.5
1633.93707	3446.8
1637.23439	3542.7
1640.52951	3642
1643.82246	3803.3
1647.11321	3930
1650.40179	4044.1
1653.68819	4058.9
1656.97241	3968.1
1660.25446	3845.5
1663.53433	3732.8
1666.81203	3683
1670.08756	3623.5
1673.36092	3611.4
1676.63211	3577.7
1679.90115	3575.2
1683.16801	3546.2
1686.43272	3510.6
1689.69527	3455.7
1692.95567	3399.6
1696.2139	3351.2
1699.46999	3292.7
1702.72392	3236
1705.97571	3134.3
1709.22535	3032.8
1712.47284	2899.7
1715.71819	2797.4
1718.96139	2691.7
1722.20246	2608
1725.44139	2552.3
1728.67818	2476.8
1731.91284	2419.5
1735.14537	2373.8
1738.37576	2343.6
1741.60403	2316.3
1744.83017	2300.6
1748.05418	2283.2
1751.27607	2268.1
1754.49584	2276.8
1757.71349	2277.4
1760.92903	2263.2
1764.14244	2254.8
1767.35375	2248.8
1770.56294	2239
1773.77002	2228
1776.97499	2209.3
1780.17785	2193
1783.37861	2174.9
1786.57727	2159.5
1789.77382	2161.2
1792.96828	2140.2
1796.16064	2128
1799.3509	2121.2
1802.53907	2111.9
1805.72514	2101.4
1808.90913	2095.9
1812.09102	2080.5
1815.27083	2076.4
1818.44856	2079
1821.6242	2070.1
1824.79776	2050
1827.96924	2056
1831.13864	2042.5
1834.30597	2040.1
1837.47122	2042.3
1840.6344	2026.5
1843.7955	2027.4
1846.95454	2023.7
1850.11151	2018.2
1853.26642	2019.7
1856.41926	2011.2
1859.57004	2008.6
1862.71876	1998.4
1865.86542	2000.8
1869.01003	2001
1872.15258	1998.4
1875.29308	1983.2
1878.43152	1984.5
1881.56792	1965.3
1884.70227	1972.4
1887.83457	1973.5
1890.96482	1962.3
1894.09304	1957.5
1897.21921	1944.6
1900.34335	1939.5
1903.46544	1943.6
1906.58551	1942.6
1909.70353	1933.2
1912.81953	1936.1
1915.93349	1926.2
1919.04543	1917.4
1922.15534	1902.2
1925.26322	1917.8
1928.36908	1899.3
1931.47292	1901
1934.57473	1892.7
1937.67453	1888.1
1940.77232	1877.6
1943.86808	1876.2
1946.96184	1875.3
1950.05358	1854.8
1953.14331	1864.3
1956.23103	1850.5
1959.31675	1846.2
1962.40046	1830.3
1965.48217	1825.3
1968.56188	1834.3
1971.63959	1798.2
1974.7153	1818.8
1977.78901	1798.6
1980.86073	1788.5
1983.93046	1792.1
1986.99819	1777.7
1990.06394	1775.5
1993.1277	1758.6
1996.18947	1761.6
1999.24925	1766.3
2002.30706	1751.9
2005.36288	1739.1
2008.41672	1734.9
2011.46859	1729.5
2014.51848	1724.1
2017.56639	1717.5
2020.61233	1707.5
2023.6563	1712
2026.6983	1710.1
2029.73833	1687.2
2032.7764	1691.7
2035.8125	1692.9
2038.84664	1679.7
2041.87881	1672.6
2044.90903	1664.6
2047.93729	1668.3
2050.96359	1673.8
2053.98794	1667.8
2057.01034	1662.5
2060.03078	1650.8
2063.04927	1645.1
2066.06582	1650.4
2069.08042	1652.4
2072.09307	1648.3
2075.10378	1647.1
2078.11255	1637.9
2081.11938	1645.7
2084.12426	1639
2087.12722	1630.6
2090.12824	1644.8
2093.12732	1634.4
2096.12447	1631.4
2099.11969	1628.6
2102.11299	1631.1
2105.10435	1626.5
2108.09379	1635.4
2111.08131	1629.3
2114.0669	1627
2117.05057	1630.7
2120.03233	1628.8
2123.01216	1624.3
2125.99008	1627.7
2128.96609	1624.4
2131.94018	1621.5
2134.91236	1619.4
2137.88263	1628.9
2140.851	1627.8
2143.81746	1630
2146.78201	1608.8
2149.74466	1623.2
2152.7054	1613.3
2155.66425	1616.8
2158.6212	1630.1
2161.57625	1608.2
2164.52941	1615.7
2167.48067	1608.6
2170.43004	1602
2173.37752	1600.4
2176.32311	1606.2
2179.26681	1605.1
2182.20863	1595.9
2185.14856	1599.8
2188.08661	1597.7
2191.02278	1596.5
2193.95707	1588.7
2196.88948	1581.8
2199.82001	1584.5
2202.74867	1577.2
2205.67545	1570.6
2208.60037	1572.3
2211.52341	1563.9
2214.44458	1565.3
2217.36388	1560.4
2220.28132	1558
2223.1969	1537.1
2226.11061	1542.8
2229.02246	1530.6
2231.93245	1539.3
2234.84058	1536.7
2237.74686	1519.4
2240.65128	1528.1
2243.55385	1526
2246.45456	1515.6
2249.35343	1514.8
2252.25044	1512.2
2255.14561	1500.9
2258.03893	1512.3
2260.93041	1512.7
2263.82004	1501.7
2266.70783	1492
2269.59378	1491.7
2272.4779	1481.8
2275.36017	1474.9
2278.24061	1480.5
2281.11922	1472.3
2283.996	1462.9
2286.87094	1470.2
2289.74405	1462.7
2292.61534	1453.5
2295.4848	1454.5
2298.35243	1440.2
2301.21824	1448.8
2304.08223	1442.8
2306.94439	1442.7
2309.80474	1449
2312.66327	1433.6
2315.51999	1431.1
2318.37489	1432.3
2321.22797	1424.4
2324.07925	1431.6
2326.92871	1422.7
2329.77637	1420.5
2332.62222	1416.7
2335.46626	1410.1
2338.3085	1403
2341.14893	1399.9
2343.98756	1391.9
2346.8244	1398.8
2349.65943	1389
2352.49267	1393.4
2355.32411	1393.6
2358.15376	1398.8
2360.98161	1384.6
2363.80768	1377.2
2366.63195	1375.8
2369.45444	1378.5
2372.27514	1378.5
2375.09405	1376.2
2377.91118	1371.3
2380.72652	1371.2
2383.54009	1363.7
2386.35187	1367.7
2389.16188	1360.1
2391.97011	1358.5
2394.77657	1343.2
2397.58125	1350.7
2400.38416	1344.7
2403.18529	1333.6
2405.98466	1350
2408.78226	1335.6
2411.57809	1331.1
2414.37216	1327.6
2417.16446	1323.2
2419.955	1319.9
2422.74378	1317.7
2425.5308	1315.5
2428.31606	1315.9
2431.09956	1303.7
2433.88131	1308.9
2436.6613	1306.3
2439.43954	1301.8
2442.21603	1300.8
2444.99077	1292.9
2447.76377	1290.9
2450.53501	1301.1
2453.30451	1296.6
2456.07226	1290.7
2458.83827	1289.2
2461.60254	1276.9
2464.36507	1271
2467.12586	1274.3
2469.88492	1273.3
2472.64224	1272.2
2475.39782	1283.5
2478.15167	1275.1
2480.90379	1274.6
2483.65417	1269.3
2486.40283	1269.5
2489.14976	1262.3
2491.89497	1274.6
2494.63845	1270.5
2497.3802	1261.7
2500.12024	1260.3
2502.85855	1254.4
2505.59514	1260.9
2508.33002	1249.9
2511.06318	1247.9
2513.79462	1253.3
2516.52435	1239.8
2519.25237	1234.2
2521.97867	1232.1
2524.70327	1225.5
2527.42616	1228.2
2530.14734	1224.6
2532.86681	1221.2
2535.58458	1224.8
2538.30065	1218.1
2541.01501	1215.7
2543.72768	1217.8
2546.43864	1213.1
2549.14791	1203.5
2551.85548	1203.1
2554.56136	1200.8
2557.26554	1195.8
2559.96803	1196.4
2562.66883	1188.4
2565.36794	1185.7
2568.06536	1183.4
2570.7611	1186.2
2573.45514	1178.8
2576.14751	1175.7
2578.83819	1175.4
2581.52719	1175.6
2584.21451	1173.4
2586.90015	1162.1
2589.58411	1158.1
2592.2664	1154
2594.94701	1160
2597.62594	1157.9
2600.30321	1151.7
2602.9788	1151.1
2605.65273	1147.1
2608.32498	1144.3
2610.99557	1140.1
2613.66449	1139.1
2616.33175	1142
2618.99734	1131.5
2621.66128	1135.7
2624.32355	1124.2
2626.98416	1132.7
2629.64311	1127.6
2632.30041	1125
2634.95605	1133.2
2637.61004	1116.8
2640.26238	1119.4
2642.91306	1116.7
2645.56209	1112.9
2648.20948	1121.4
2650.85521	1113.3
2653.4993	1117.7
2656.14175	1115.4
2658.78255	1110.7
2661.42171	1109.3
2664.05923	1112.9
2666.6951	1107
2669.32934	1109.5
2671.96194	1104.6
2674.59291	1109.4
2677.22224	1105.2
2679.84993	1101.3
2682.476	1108.7
2685.10043	1108
2687.72324	1108.9
2690.34441	1105.7
2692.96396	1098.7
2695.58188	1106.6
2698.19818	1108.7
2700.81285	1102.4
2703.4259	1119.4
2706.03733	1134.4
2708.64714	1118.6
2711.25533	1111.8
2713.86191	1106.4
2716.46687	1107.5
2719.07021	1101.8
2721.67194	1104.5
2724.27206	1097.7
2726.87057	1104.5
2729.46747	1098.4
2732.06276	1104.2
2734.65644	1095.1
2737.24852	1094.5
2739.83899	1092.7
2742.42786	1094.1
2745.01513	1084.7
2747.60079	1092.4
2750.18486	1084.7
2752.76733	1076.6
2755.3482	1083.2
2757.92747	1080.8
2760.50515	1076
2763.08123	1070.7
2765.65573	1074.5
2768.22863	1069
2770.79994	1067.5
2773.36967	1072.7
2775.9378	1068.7
2778.50435	1056.9
2781.06932	1057.4
2783.6327	1058.3
2786.1945	1057.4
2788.75471	1055.1
2791.31335	1056.6
2793.87041	1053
2796.42589	1050.7
2798.97979	1044.3
2801.53212	1039.4
2804.08288	1041.6
2806.63206	1030.5
2809.17967	1031
2811.72571	1036.4
2814.27018	1032.4
2816.81308	1029.3
2819.35442	1023.1
2821.89419	1021.6
2824.43239	1028.7
2826.96904	1019.2
2829.50412	1031.7
2832.03763	1026
2834.56959	1019.5
2837.1	1021.8
2839.62884	1022
2842.15613	1027
2844.68186	1021.1
2847.20604	1020.6
2849.72867	1031
2852.24974	1031.2
2854.76927	1025.1
2857.28724	1032.8
2859.80367	1024.9
2862.31855	1019.3
2864.83189	1021.4
2867.34368	1030.5
2869.85393	1029.7
2872.36264	1017.4
2874.8698	1024.1
2877.37543	1027
2879.87952	1030.8
2882.38207	1031.3
2884.88308	1028.1
2887.38256	1027.8
2889.88051	1018.1
2892.37692	1031.4
2894.8718	1036.8
2897.36515	1032.2
2899.85698	1033.2
2902.34727	1036.7
2904.83604	1037.7
2907.32328	1044.6
2909.809	1035.7
2912.29319	1043
2914.77587	1043.1
2917.25702	1045.3
2919.73665	1038.9
2922.21476	1042.8
2924.69136	1046.1
2927.16644	1046.4
2929.64	1052.1
2932.11205	1046.1
2934.58258	1056.7
2937.05161	1053.9
2939.51912	1045
2941.98513	1053.4
2944.44962	1048.4
2946.91261	1043.9
2949.37409	1054.8
2951.83407	1051.2
2954.29254	1050.6
2956.74951	1044.7
2959.20498	1045.9
2961.65895	1039.6
2964.11142	1037.4
2966.56239	1030.9
2969.01186	1041.8
2971.45984	1037.7
2973.90632	1028.6
2976.35131	1019.9
2978.7948	1026.7
2981.23681	1023.5
2983.67732	1019.9
2986.11635	1016.4
2988.55388	1016.6
2990.98993	1013.6
2993.4245	1015
2995.85758	1016.4
2998.28917	1017.5
3000.71928	1013.7
3003.14791	1022.1
3005.57506	1019
3008.00073	1019.6
3010.42493	1017.1
3012.84764	1019.6
3015.26888	1026.9
3017.68865	1029.3
3020.10694	1030.1
3022.52376	1027.4
3024.9391	1029.7
3027.35298	1024.9
3029.76539	1021.8
3032.17632	1026.9
3034.5858	1020.8
3036.9938	1028.9
3039.40034	1036.1
3041.80542	1026.3
3044.20903	1028.6
3046.61118	1027.5
3049.01187	1032.3
3051.4111	1041.7
3053.80888	1041.6
3056.20519	1041.3
3058.60005	1037.2
3060.99345	1048.6
3063.3854	1050.3
3065.7759	1047.9
3068.16494	1051.3
3070.55254	1053.3
3072.93868	1055.4
3075.32338	1058.8
3077.70662	1053.8
3080.08842	1063.6
3082.46878	1076.2
3084.84769	1075.5
3087.22515	1076.6
3089.60118	1077.3
3091.97576	1082.5
3094.3489	1086.6
3096.72061	1099.7
3099.09087	1102.9
3101.4597	1099.5
3103.82709	1111.8
3106.19305	1113.1
3108.55757	1121.4
3110.92066	1116.8
3113.28232	1127.3
3115.64255	1129.2
3118.00134	1142
3120.35871	1135.6
3122.71466	1146.1
3125.06917	1150.5
3127.42226	1145
3129.77393	1164.1
3132.12417	1167.2
3134.47299	1164.5
3136.82039	1173.4
3139.16636	1175.5
3141.51092	1188.4
3143.85406	1190.1
3146.19579	1206.1
3148.53609	1215.6
3150.87499	1211.8
3153.21246	1229.2
3155.54853	1224.5
3157.88318	1238.6
3160.21642	1249.3
3162.54826	1253
3164.87868	1252
3167.2077	1268.6
3169.5353	1270.6
3171.86151	1271.4
3174.18631	1282.5
3176.5097	1293.2
3178.83169	1294.4
3181.15228	1300.4
3183.47147	1299
3185.78926	1305.5
3188.10565	1311.3
3190.42065	1324.3
3192.73424	1330.5
3195.04645	1323.4
3197.35725	1330.7
3199.66667	1336.2
3201.97469	1337.2
3204.28132	1349.7
3206.58656	1356.7
3208.8904	1359.2
3211.19287	1365.9
3213.49394	1365.4
3215.79363	1371.1
3218.09193	1371.5
3220.38884	1386
3222.68438	1391.7
3224.97853	1379.7
3227.2713	1383.3
3229.56269	1385.9
3231.8527	1396.9
3234.14133	1384.3
3236.42858	1383.9
3238.71446	1383
3240.99896	1384.5
3243.28209	1387.5
3245.56384	1382.6
3247.84423	1383.4
3250.12324	1395.6
3252.40088	1392.4
3254.67715	1384.2
3256.95205	1388.5
3259.22558	1383.7
3261.49775	1388
3263.76855	1383.6
3266.03799	1386.8
3268.30606	1385.5
3270.57277	1382.1
3272.83812	1374.7
3275.10211	1375.4
3277.36474	1374.1
3279.62601	1376.7
3281.88593	1368.6
3284.14448	1387.6
3286.40168	1377
3288.65753	1386.8
3290.91202	1381.4
3293.16516	1368
3295.41695	1354.8
3297.66738	1357.7
3299.91647	1350.7
3302.16421	1351.3
3304.4106	1340.5
3306.65564	1336.1
3308.89933	1336.7
3311.14169	1324.3
3313.38269	1326.1
3315.62236	1315.3
3317.86068	1306.8
3320.09766	1285.9
3322.3333	1281.9
3324.5676	1287
3326.80056	1279.4
3329.03219	1260.4
3331.26248	-0.5
3333.49143	-0.4
3335.71905	-0.1
