Data from AgNPs_FTO_APTES_UA_0.1mM_CRN_0uM_NaF_0.1M_Addition_RamanShift__56__11-07-57-520.txt Node

Date: Mon Dec 20 11:07:57 GMT 2021
User: TCL
Spectrometer: QEP01345
Trigger mode: 4
Integration Time (sec): 7.000000E0
Scans to average: 10
Electric dark correction enabled: true
Nonlinearity correction enabled: false
Boxcar width: 0
XAxis mode: Raman Shifts
Number of Pixels in Spectrum: 1044
>>>>>Begin Spectral Data<<<<<
46.04893	1.2375
50.45542	-0.0625
54.85868	-2.6625
59.25871	1.0375
63.6555	31.6375
68.04907	32.9375
72.43941	39.9375
76.82654	36.3375
81.21044	38.7375
85.59113	45.2375
89.96862	41.4375
94.34289	41.3375
98.71396	45.8375
103.08183	45.9375
107.4465	47.3375
111.80798	48.7375
116.16626	51.1375
120.52136	49.4375
124.87327	56.1375
129.222	53.1375
133.56755	55.9375
137.90993	60.7375
142.24913	64.5375
146.58517	68.5375
150.91804	80.9375
155.24774	96.7375
159.57429	108.2375
163.89768	143.2375
168.21792	182.9375
172.53501	241.0375
176.84895	330.1375
181.15975	451.7375
185.46741	627.3375
189.77193	862.0375
194.07331	1140.0375
198.37157	1487.1375
202.6667	1841.8375
206.9587	2190.5375
211.24758	2540.3375
215.53334	2879.9375
219.81599	3236.8375
224.09553	3591.6375
228.37195	3991.5375
232.64527	4448.1375
236.91549	4887.6375
241.18261	5325.0375
245.44663	5761.7375
249.70755	6123.2375
253.96539	6457.3375
258.22014	6736.5375
262.4718	6923.0375
266.72039	7038.3375
270.96589	7102.2375
275.20832	7087.4375
279.44768	7013.9375
283.68397	6934.2375
287.91719	6841.8375
292.14735	6773.0375
296.37445	6758.3375
300.59849	6775.2375
304.81948	6824.0375
309.03742	6862.1375
313.25231	6800.8375
317.46415	6686.5375
321.67296	6477.6375
325.87872	6284.7375
330.08145	6208.4375
334.28114	6200.7375
338.47781	6242.3375
342.67145	6311.0375
346.86207	6416.8375
351.04966	6550.9375
355.23424	6729.4375
359.4158	6868.8375
363.59435	6979.0375
367.76989	7058.2375
371.94243	7116.0375
376.11196	7180.8375
380.27849	7219.3375
384.44203	7290.2375
388.60257	7344.8375
392.76012	7400.9375
396.91468	7457.0375
401.06626	7580.5375
405.21485	7648.7375
409.36047	7625.0375
413.50311	7501.6375
417.64277	7408.5375
421.77947	7350.6375
425.9132	7324.8375
430.04396	7347.1375
434.17176	7409.7375
438.2966	7462.2375
442.41849	7550.4375
446.53742	7703.2375
450.6534	7850.0375
454.76644	7965.8375
458.87653	8002.2375
462.98368	7949.2375
467.08789	7880.0375
471.18916	7828.4375
475.2875	7808.3375
479.38291	7834.7375
483.4754	7886.7375
487.56496	8002.2375
491.6516	8142.1375
495.73531	8189.0375
499.81612	8117.7375
503.89401	8023.4375
507.96899	7941.3375
512.04106	7864.1375
516.11023	7838.2375
520.1765	7868.9375
524.23987	7954.1375
528.30034	7972.6375
532.35792	7967.3375
536.41261	7868.7375
540.46441	7735.1375
544.51333	7591.9375
548.55936	7564.7375
552.60252	7574.1375
556.64279	7637.5375
560.6802	7692.2375
564.71473	7748.3375
568.7464	7861.7375
572.7752	7963.4375
576.80114	8010.9375
580.82422	7998.6375
584.84444	8117.4375
588.86181	8320.3375
592.87633	8480.3375
596.888	8542.2375
600.89682	8469.2375
604.9028	8576.5375
608.90594	9270.4375
612.90624	10280.6375
616.90371	10286.9375
620.89834	9289.4375
624.89015	9078.8375
628.87913	9535.5375
632.86528	10037.7375
636.84862	10289.2375
640.82913	10089.4375
644.80683	9573.5375
648.78172	8989.2375
652.75379	8545.5375
656.72306	8317.1375
660.68952	8245.7375
664.65319	8141.6375
668.61405	8026.2375
672.57211	7994.6375
676.52738	7992.8375
680.47986	7955.8375
684.42955	7951.0375
688.37646	7926.0375
692.32058	7908.3375
696.26192	7869.9375
700.20048	7852.6375
704.13626	7821.5375
708.06928	7742.9375
711.99952	7671.7375
715.927	7648.4375
719.85171	7691.0375
723.77365	7713.0375
727.69284	7704.1375
731.60928	7634.7375
735.52295	7542.5375
739.43388	7498.8375
743.34206	7522.7375
747.24749	7545.7375
751.15017	7584.5375
755.05012	7598.2375
758.94733	7719.8375
762.8418	7972.2375
766.73354	8446.1375
770.62254	8910.2375
774.50882	9129.5375
778.39237	8920.1375
782.27321	8415.5375
786.15132	7958.9375
790.02671	7696.7375
793.89938	7610.6375
797.76935	7655.1375
801.6366	7775.6375
805.50115	8031.8375
809.36299	8351.6375
813.22213	8451.4375
817.07857	8287.2375
820.93231	8012.5375
824.78336	7671.2375
828.63172	7472.3375
832.47738	7355.3375
836.32036	7289.8375
840.16066	7244.0375
843.99827	7233.6375
847.8332	7206.3375
851.66546	7184.8375
855.49504	7160.2375
859.32195	7172.1375
863.1462	7192.6375
866.96777	7247.7375
870.78668	7358.6375
874.60293	7528.9375
878.41652	7761.9375
882.22745	7942.1375
886.03573	8048.8375
889.84136	8013.1375
893.64433	7836.4375
897.44466	7586.1375
901.24235	7299.0375
905.0374	7109.1375
908.8298	6977.8375
912.61957	6914.6375
916.40671	6878.4375
920.19121	6893.4375
923.97308	6908.5375
927.75233	6892.9375
931.52895	6904.2375
935.30295	6865.8375
939.07433	6793.4375
942.84309	6730.7375
946.60924	6693.5375
950.37278	6685.4375
954.13371	6680.7375
957.89203	6660.9375
961.64774	6628.9375
965.40086	6613.2375
969.15137	6557.8375
972.89929	6523.9375
976.64461	6480.9375
980.38733	6499.0375
984.12747	6498.9375
987.86502	6505.8375
991.59999	6599.3375
995.33237	6657.8375
999.06217	6794.9375
1002.78939	6981.6375
1006.51404	7143.0375
1010.23611	7301.2375
1013.95561	7410.7375
1017.67255	7399.7375
1021.38692	7336.7375
1025.09872	7196.5375
1028.80796	7077.0375
1032.51465	6996.8375
1036.21877	6985.7375
1039.92035	6947.4375
1043.61937	6866.5375
1047.31584	6805.9375
1051.00976	6748.8375
1054.70114	6748.9375
1058.38998	6774.9375
1062.07627	6836.4375
1065.76003	6899.1375
1069.44126	6940.5375
1073.11995	7012.0375
1076.79611	7031.4375
1080.46974	7005.2375
1084.14085	6994.5375
1087.80943	6965.7375
1091.47549	6962.1375
1095.13903	6880.0375
1098.80005	6797.8375
1102.45857	6705.0375
1106.11456	6691.5375
1109.76805	6712.5375
1113.41903	6836.9375
1117.06751	7045.4375
1120.71348	7354.4375
1124.35696	7770.0375
1127.99793	8315.0375
1131.63641	8753.0375
1135.2724	9003.8375
1138.90589	9008.7375
1142.5369	8754.0375
1146.16542	8365.2375
1149.79145	7918.5375
1153.415	7524.8375
1157.03607	7225.6375
1160.65467	7080.6375
1164.27079	7125.6375
1167.88443	7243.9375
1171.49561	7459.2375
1175.10432	7861.7375
1178.71056	8443.3375
1182.31434	8940.7375
1185.91565	9210.3375
1189.51451	9290.3375
1193.11091	9259.3375
1196.70485	9273.3375
1200.29634	9281.8375
1203.88538	9247.4375
1207.47197	9040.1375
1211.05612	8713.4375
1214.63782	8367.9375
1218.21708	8054.8375
1221.79391	7812.4375
1225.36829	7624.0375
1228.94024	7467.7375
1232.50976	7288.8375
1236.07685	7196.3375
1239.6415	7154.7375
1243.20374	7175.5375
1246.76355	7198.0375
1250.32093	7272.1375
1253.8759	7338.6375
1257.42845	7483.2375
1260.97859	7582.2375
1264.52631	7682.9375
1268.07163	7761.1375
1271.61453	7874.3375
1275.15503	7957.2375
1278.69312	8017.1375
1282.22882	8105.2375
1285.76211	8220.1375
1289.29301	8410.0375
1292.82151	8652.0375
1296.34761	8945.2375
1299.87133	9332.0375
1303.39266	9839.8375
1306.9116	10443.7375
1310.42815	11090.5375
1313.94233	11575.7375
1317.45412	11627.0375
1320.96354	11373.7375
1324.47058	11005.7375
1327.97525	10674.9375
1331.47754	10459.7375
1334.97747	10419.9375
1338.47502	10485.5375
1341.97022	10557.5375
1345.46305	10609.2375
1348.95352	10771.5375
1352.44163	11028.0375
1355.92738	11479.9375
1359.41078	12201.8375
1362.89183	12907.2375
1366.37053	12835.4375
1369.84688	11810.8375
1373.32088	10627.3375
1376.79254	9768.3375
1380.26186	9360.9375
1383.72883	9200.5375
1387.19347	9098.3375
1390.65578	8913.7375
1394.11575	8817.1375
1397.57339	8819.1375
1401.0287	8885.0375
1404.48168	8938.8375
1407.93234	8920.6375
1411.38068	8780.8375
1414.82669	8524.8375
1418.27039	8220.8375
1421.71177	7915.2375
1425.15083	7584.2375
1428.58758	7407.6375
1432.02203	7359.7375
1435.45416	7425.7375
1438.88399	7509.9375
1442.31151	7571.7375
1445.73673	7636.7375
1449.15965	7705.2375
1452.58027	7736.8375
1455.9986	7712.6375
1459.41463	7711.8375
1462.82837	7759.3375
1466.23982	7848.8375
1469.64898	7986.2375
1473.05586	8072.1375
1476.46045	8109.0375
1479.86276	8146.9375
1483.26279	8182.1375
1486.66054	8231.1375
1490.05602	8297.9375
1493.44922	8413.3375
1496.84016	8550.0375
1500.22882	8764.1375
1503.61521	9103.7375
1506.99934	9558.2375
1510.38121	10013.4375
1513.76081	10187.0375
1517.13816	9967.5375
1520.51324	9412.7375
1523.88607	8815.9375
1527.25665	8450.1375
1530.62498	8297.6375
1533.99105	8264.6375
1537.35488	8253.3375
1540.71647	8280.0375
1544.07581	8315.4375
1547.4329	8314.8375
1550.78776	8274.9375
1554.14038	8229.6375
1557.49077	8257.7375
1560.83892	8272.0375
1564.18484	8315.1375
1567.52853	8366.3375
1570.86999	8433.3375
1574.20922	8492.3375
1577.54624	8552.7375
1580.88103	8470.5375
1584.2136	8361.9375
1587.54395	8387.8375
1590.87208	8600.3375
1594.19801	8957.9375
1597.52172	9416.3375
1600.84321	9699.1375
1604.16251	9587.7375
1607.47959	9173.5375
1610.79447	8667.1375
1614.10715	8200.5375
1617.41763	7866.4375
1620.7259	7637.9375
1624.03199	7544.4375
1627.33587	7576.3375
1630.63757	7698.8375
1633.93707	7970.7375
1637.23439	8366.8375
1640.52951	8963.6375
1643.82246	9731.9375
1647.11321	10487.5375
1650.40179	10889.2375
1653.68819	10622.0375
1656.97241	9798.6375
1660.25446	8774.5375
1663.53433	8011.8375
1666.81203	7481.7375
1670.08756	7093.1375
1673.36092	6845.1375
1676.63211	6675.1375
1679.90115	6545.2375
1683.16801	6403.3375
1686.43272	6295.1375
1689.69527	6171.9375
1692.95567	6065.0375
1696.2139	5997.6375
1699.46999	5882.1375
1702.72392	5785.2375
1705.97571	5676.2375
1709.22535	5582.6375
1712.47284	5504.5375
1715.71819	5431.1375
1718.96139	5378.2375
1722.20246	5331.1375
1725.44139	5264.4375
1728.67818	5204.3375
1731.91284	5129.4375
1735.14537	5086.0375
1738.37576	5026.6375
1741.60403	4993.8375
1744.83017	4960.5375
1748.05418	4970.1375
1751.27607	4944.1375
1754.49584	4921.1375
1757.71349	4923.2375
1760.92903	4916.4375
1764.14244	4877.8375
1767.35375	4875.7375
1770.56294	4848.4375
1773.77002	4818.4375
1776.97499	4796.3375
1780.17785	4778.0375
1783.37861	4760.1375
1786.57727	4724.3375
1789.77382	4706.9375
1792.96828	4686.8375
1796.16064	4675.6375
1799.3509	4653.6375
1802.53907	4637.8375
1805.72514	4628.1375
1808.90913	4610.4375
1812.09102	4586.6375
1815.27083	4582.7375
1818.44856	4556.0375
1821.6242	4537.3375
1824.79776	4550.7375
1827.96924	4532.7375
1831.13864	4517.0375
1834.30597	4525.3375
1837.47122	4527.0375
1840.6344	4506.2375
1843.7955	4502.4375
1846.95454	4504.3375
1850.11151	4489.6375
1853.26642	4475.9375
1856.41926	4480.1375
1859.57004	4481.5375
1862.71876	4459.7375
1865.86542	4474.8375
1869.01003	4442.1375
1872.15258	4452.2375
1875.29308	4438.3375
1878.43152	4437.6375
1881.56792	4428.6375
1884.70227	4419.8375
1887.83457	4438.3375
1890.96482	4431.5375
1894.09304	4412.1375
1897.21921	4399.3375
1900.34335	4402.9375
1903.46544	4391.3375
1906.58551	4387.5375
1909.70353	4373.4375
1912.81953	4366.3375
1915.93349	4361.9375
1919.04543	4356.8375
1922.15534	4356.7375
1925.26322	4333.1375
1928.36908	4326.9375
1931.47292	4311.1375
1934.57473	4283.4375
1937.67453	4283.1375
1940.77232	4270.9375
1943.86808	4269.7375
1946.96184	4254.1375
1950.05358	4226.9375
1953.14331	4218.4375
1956.23103	4204.7375
1959.31675	4199.0375
1962.40046	4180.0375
1965.48217	4179.9375
1968.56188	4166.7375
1971.63959	4154.6375
1974.7153	4128.9375
1977.78901	4114.6375
1980.86073	4107.6375
1983.93046	4100.6375
1986.99819	4078.0375
1990.06394	4058.1375
1993.1277	4031.0375
1996.18947	4030.4375
1999.24925	4025.2375
2002.30706	4027.1375
2005.36288	4002.9375
2008.41672	4000.1375
2011.46859	3980.1375
2014.51848	3956.0375
2017.56639	3948.8375
2020.61233	3953.8375
2023.6563	3937.6375
2026.6983	3921.2375
2029.73833	3909.1375
2032.7764	3909.3375
2035.8125	3881.4375
2038.84664	3880.7375
2041.87881	3886.6375
2044.90903	3873.3375
2047.93729	3864.8375
2050.96359	3875.4375
2053.98794	3857.2375
2057.01034	3864.4375
2060.03078	3845.0375
2063.04927	3849.7375
2066.06582	3838.5375
2069.08042	3828.3375
2072.09307	3825.4375
2075.10378	3831.3375
2078.11255	3823.1375
2081.11938	3815.9375
2084.12426	3831.7375
2087.12722	3799.7375
2090.12824	3818.4375
2093.12732	3817.0375
2096.12447	3806.3375
2099.11969	3798.4375
2102.11299	3798.3375
2105.10435	3806.0375
2108.09379	3810.8375
2111.08131	3804.2375
2114.0669	3806.0375
2117.05057	3813.5375
2120.03233	3809.6375
2123.01216	3806.1375
2125.99008	3801.5375
2128.96609	3814.2375
2131.94018	3819.5375
2134.91236	3809.5375
2137.88263	3819.8375
2140.851	3810.5375
2143.81746	3822.4375
2146.78201	3811.2375
2149.74466	3824.2375
2152.7054	3816.1375
2155.66425	3814.8375
2158.6212	3821.7375
2161.57625	3816.2375
2164.52941	3792.9375
2167.48067	3816.2375
2170.43004	3791.5375
2173.37752	3794.4375
2176.32311	3797.7375
2179.26681	3805.8375
2182.20863	3794.1375
2185.14856	3797.6375
2188.08661	3784.4375
2191.02278	3790.3375
2193.95707	3778.8375
2196.88948	3761.7375
2199.82001	3768.4375
2202.74867	3776.4375
2205.67545	3765.0375
2208.60037	3765.8375
2211.52341	3759.6375
2214.44458	3740.7375
2217.36388	3737.1375
2220.28132	3739.7375
2223.1969	3712.4375
2226.11061	3711.3375
2229.02246	3705.7375
2231.93245	3703.0375
2234.84058	3693.9375
2237.74686	3681.6375
2240.65128	3685.2375
2243.55385	3674.6375
2246.45456	3665.7375
2249.35343	3672.2375
2252.25044	3636.3375
2255.14561	3645.7375
2258.03893	3639.7375
2260.93041	3633.6375
2263.82004	3636.8375
2266.70783	3629.0375
2269.59378	3618.4375
2272.4779	3612.0375
2275.36017	3607.2375
2278.24061	3589.1375
2281.11922	3572.0375
2283.996	3580.2375
2286.87094	3570.7375
2289.74405	3552.7375
2292.61534	3550.4375
2295.4848	3547.3375
2298.35243	3541.4375
2301.21824	3545.2375
2304.08223	3545.4375
2306.94439	3533.0375
2309.80474	3526.5375
2312.66327	3533.2375
2315.51999	3515.3375
2318.37489	3509.8375
2321.22797	3515.4375
2324.07925	3504.4375
2326.92871	3498.8375
2329.77637	3498.0375
2332.62222	3480.1375
2335.46626	3483.1375
2338.3085	3497.1375
2341.14893	3488.7375
2343.98756	3476.2375
2346.8244	3467.4375
2349.65943	3462.3375
2352.49267	3476.3375
2355.32411	3475.8375
2358.15376	3463.5375
2360.98161	3463.8375
2363.80768	3461.6375
2366.63195	3456.2375
2369.45444	3465.0375
2372.27514	3462.7375
2375.09405	3456.1375
2377.91118	3446.5375
2380.72652	3429.3375
2383.54009	3415.7375
2386.35187	3417.6375
2389.16188	3400.5375
2391.97011	3407.3375
2394.77657	3399.2375
2397.58125	3396.0375
2400.38416	3379.5375
2403.18529	3385.5375
2405.98466	3373.8375
2408.78226	3360.9375
2411.57809	3361.5375
2414.37216	3337.7375
2417.16446	3354.2375
2419.955	3330.9375
2422.74378	3326.1375
2425.5308	3323.9375
2428.31606	3314.0375
2431.09956	3298.9375
2433.88131	3296.6375
2436.6613	3304.1375
2439.43954	3293.3375
2442.21603	3291.6375
2444.99077	3291.9375
2447.76377	3304.1375
2450.53501	3296.9375
2453.30451	3302.4375
2456.07226	3279.7375
2458.83827	3279.4375
2461.60254	3276.7375
2464.36507	3257.4375
2467.12586	3265.7375
2469.88492	3260.8375
2472.64224	3253.2375
2475.39782	3265.8375
2478.15167	3257.8375
2480.90379	3272.2375
2483.65417	3255.4375
2486.40283	3261.9375
2489.14976	3265.7375
2491.89497	3263.3375
2494.63845	3261.5375
2497.3802	3256.7375
2500.12024	3252.6375
2502.85855	3247.0375
2505.59514	3244.6375
2508.33002	3230.0375
2511.06318	3243.1375
2513.79462	3224.8375
2516.52435	3219.3375
2519.25237	3215.3375
2521.97867	3218.7375
2524.70327	3206.4375
2527.42616	3198.5375
2530.14734	3210.9375
2532.86681	3189.2375
2535.58458	3180.2375
2538.30065	3181.5375
2541.01501	3183.8375
2543.72768	3174.0375
2546.43864	3152.8375
2549.14791	3168.9375
2551.85548	3165.4375
2554.56136	3152.9375
2557.26554	3141.5375
2559.96803	3144.3375
2562.66883	3132.9375
2565.36794	3118.3375
2568.06536	3123.7375
2570.7611	3122.7375
2573.45514	3122.9375
2576.14751	3124.1375
2578.83819	3099.7375
2581.52719	3119.0375
2584.21451	3100.7375
2586.90015	3110.1375
2589.58411	3088.2375
2592.2664	3095.6375
2594.94701	3091.0375
2597.62594	3074.9375
2600.30321	3068.7375
2602.9788	3067.2375
2605.65273	3067.1375
2608.32498	3078.5375
2610.99557	3059.2375
2613.66449	3056.4375
2616.33175	3053.0375
2618.99734	3053.4375
2621.66128	3045.1375
2624.32355	3046.7375
2626.98416	3026.5375
2629.64311	3039.4375
2632.30041	3048.1375
2634.95605	3033.4375
2637.61004	3026.8375
2640.26238	3027.3375
2642.91306	3032.7375
2645.56209	3018.9375
2648.20948	3024.9375
2650.85521	3012.0375
2653.4993	3009.2375
2656.14175	3017.7375
2658.78255	3002.4375
2661.42171	3003.6375
2664.05923	3016.8375
2666.6951	3000.7375
2669.32934	3003.9375
2671.96194	3012.8375
2674.59291	3019.3375
2677.22224	3017.5375
2679.84993	3016.8375
2682.476	3013.1375
2685.10043	3022.7375
2687.72324	3017.8375
2690.34441	3012.9375
2692.96396	3025.0375
2695.58188	3013.4375
2698.19818	3003.1375
2700.81285	3005.9375
2703.4259	3022.3375
2706.03733	3035.5375
2708.64714	3030.3375
2711.25533	3021.7375
2713.86191	3016.4375
2716.46687	3032.2375
2719.07021	3029.0375
2721.67194	3022.7375
2724.27206	3017.6375
2726.87057	3022.9375
2729.46747	3019.7375
2732.06276	3021.7375
2734.65644	3019.8375
2737.24852	3015.7375
2739.83899	3008.8375
2742.42786	2998.3375
2745.01513	2995.1375
2747.60079	3002.7375
2750.18486	2992.1375
2752.76733	2996.1375
2755.3482	3007.5375
2757.92747	3000.2375
2760.50515	2987.4375
2763.08123	2989.6375
2765.65573	2992.5375
2768.22863	2986.9375
2770.79994	2973.9375
2773.36967	2999.2375
2775.9378	2976.6375
2778.50435	2956.0375
2781.06932	2961.1375
2783.6327	2972.3375
2786.1945	2963.6375
2788.75471	2947.9375
2791.31335	2947.4375
2793.87041	2953.3375
2796.42589	2938.3375
2798.97979	2936.3375
2801.53212	2924.2375
2804.08288	2929.6375
2806.63206	2922.4375
2809.17967	2909.3375
2811.72571	2909.8375
2814.27018	2913.3375
2816.81308	2904.4375
2819.35442	2896.2375
2821.89419	2899.7375
2824.43239	2899.1375
2826.96904	2902.1375
2829.50412	2883.6375
2832.03763	2888.2375
2834.56959	2891.9375
2837.1	2895.1375
2839.62884	2895.2375
2842.15613	2891.2375
2844.68186	2906.0375
2847.20604	2903.7375
2849.72867	2884.0375
2852.24974	2902.7375
2854.76927	2886.5375
2857.28724	2896.6375
2859.80367	2901.7375
2862.31855	2891.9375
2864.83189	2885.0375
2867.34368	2893.1375
2869.85393	2879.2375
2872.36264	2894.6375
2874.8698	2896.9375
2877.37543	2895.3375
2879.87952	2895.4375
2882.38207	2902.5375
2884.88308	2898.3375
2887.38256	2901.3375
2889.88051	2902.2375
2892.37692	2903.4375
2894.8718	2910.1375
2897.36515	2911.6375
2899.85698	2906.9375
2902.34727	2917.8375
2904.83604	2909.1375
2907.32328	2909.7375
2909.809	2919.3375
2912.29319	2913.9375
2914.77587	2912.3375
2917.25702	2919.3375
2919.73665	2920.8375
2922.21476	2912.9375
2924.69136	2904.0375
2927.16644	2903.8375
2929.64	2912.2375
2932.11205	2895.1375
2934.58258	2890.1375
2937.05161	2892.3375
2939.51912	2890.9375
2941.98513	2893.3375
2944.44962	2883.3375
2946.91261	2869.5375
2949.37409	2884.8375
2951.83407	2872.3375
2954.29254	2871.0375
2956.74951	2858.9375
2959.20498	2866.3375
2961.65895	2858.4375
2964.11142	2857.1375
2966.56239	2840.8375
2969.01186	2857.5375
2971.45984	2843.0375
2973.90632	2832.3375
2976.35131	2834.7375
2978.7948	2822.9375
2981.23681	2811.7375
2983.67732	2809.2375
2986.11635	2816.2375
2988.55388	2810.2375
2990.98993	2789.5375
2993.4245	2802.3375
2995.85758	2782.0375
2998.28917	2789.8375
3000.71928	2787.2375
3003.14791	2797.3375
3005.57506	2792.8375
3008.00073	2768.4375
3010.42493	2782.1375
3012.84764	2768.2375
3015.26888	2787.9375
3017.68865	2773.4375
3020.10694	2777.2375
3022.52376	2772.5375
3024.9391	2770.9375
3027.35298	2772.3375
3029.76539	2775.9375
3032.17632	2768.1375
3034.5858	2763.3375
3036.9938	2760.4375
3039.40034	2773.8375
3041.80542	2770.4375
3044.20903	2771.2375
3046.61118	2763.0375
3049.01187	2773.8375
3051.4111	2764.3375
3053.80888	2779.0375
3056.20519	2766.9375
3058.60005	2763.2375
3060.99345	2769.8375
3063.3854	2760.6375
3065.7759	2753.0375
3068.16494	2758.8375
3070.55254	2745.5375
3072.93868	2741.6375
3075.32338	2753.3375
3077.70662	2741.3375
3080.08842	2747.4375
3082.46878	2745.6375
3084.84769	2738.1375
3087.22515	2745.4375
3089.60118	2759.7375
3091.97576	2755.8375
3094.3489	2755.2375
3096.72061	2757.6375
3099.09087	2765.2375
3101.4597	2773.9375
3103.82709	2770.2375
3106.19305	2772.8375
3108.55757	2780.5375
3110.92066	2770.2375
3113.28232	2777.5375
3115.64255	2773.6375
3118.00134	2792.2375
3120.35871	2780.5375
3122.71466	2781.8375
3125.06917	2773.3375
3127.42226	2778.9375
3129.77393	2797.7375
3132.12417	2791.7375
3134.47299	2798.0375
3136.82039	2815.6375
3139.16636	2800.7375
3141.51092	2834.4375
3143.85406	2832.4375
3146.19579	2834.7375
3148.53609	2841.8375
3150.87499	2842.5375
3153.21246	2860.6375
3155.54853	2866.1375
3157.88318	2871.3375
3160.21642	2886.1375
3162.54826	2890.4375
3164.87868	2877.1375
3167.2077	2884.8375
3169.5353	2890.2375
3171.86151	2900.3375
3174.18631	2900.9375
3176.5097	2894.5375
3178.83169	2905.6375
3181.15228	2907.4375
3183.47147	2907.0375
3185.78926	2911.0375
3188.10565	2914.2375
3190.42065	2923.4375
3192.73424	2937.4375
3195.04645	2926.2375
3197.35725	2947.4375
3199.66667	2953.6375
3201.97469	2958.5375
3204.28132	2962.7375
3206.58656	2969.8375
3208.8904	2969.1375
3211.19287	2977.6375
3213.49394	2978.7375
3215.79363	2983.6375
3218.09193	2978.4375
3220.38884	2988.9375
3222.68438	2997.3375
3224.97853	2996.6375
3227.2713	2993.6375
3229.56269	2989.8375
3231.8527	2987.0375
3234.14133	3002.0375
3236.42858	2986.6375
3238.71446	2985.4375
3240.99896	2979.0375
3243.28209	2977.2375
3245.56384	2977.6375
3247.84423	2982.7375
3250.12324	2986.3375
3252.40088	2979.7375
3254.67715	2987.1375
3256.95205	2985.1375
3259.22558	2969.8375
3261.49775	2970.1375
3263.76855	2971.0375
3266.03799	2953.1375
3268.30606	2967.6375
3270.57277	2949.3375
3272.83812	2952.6375
3275.10211	2956.9375
3277.36474	2962.1375
3279.62601	2949.8375
3281.88593	2956.5375
3284.14448	2955.0375
3286.40168	2947.5375
3288.65753	2942.2375
3290.91202	2948.8375
3293.16516	2921.1375
3295.41695	2919.6375
3297.66738	2906.8375
3299.91647	2898.8375
3302.16421	2883.7375
3304.4106	2862.3375
3306.65564	2854.7375
3308.89933	2832.4375
3311.14169	2825.8375
3313.38269	2808.4375
3315.62236	2798.9375
3317.86068	2770.2375
3320.09766	2745.6375
3322.3333	2722.7375
3324.5676	2730.1375
3326.80056	2685.4375
3329.03219	2672.6375
3331.26248	1.2375
3333.49143	0.6375
3335.71905	-0.4625
