Data from AgNPs_FTO_APTES_UA_0.1mM_CRN_500uM_NaF_0.1M_Addition_RamanShift__0__14-34-27-753.txt Node

Date: Mon Dec 20 14:34:27 GMT 2021
User: TCL
Spectrometer: QEP01345
Trigger mode: 4
Integration Time (sec): 7.000000E0
Scans to average: 10
Electric dark correction enabled: true
Nonlinearity correction enabled: false
Boxcar width: 0
XAxis mode: Raman Shifts
Number of Pixels in Spectrum: 1044
>>>>>Begin Spectral Data<<<<<
46.04893	1.1625
50.45542	-1.2375
54.85868	-1.2375
59.25871	1.3625
63.6555	23.1625
68.04907	27.8625
72.43941	27.0625
76.82654	30.0625
81.21044	30.2625
85.59113	35.0625
89.96862	33.8625
94.34289	36.9625
98.71396	38.7625
103.08183	36.3625
107.4465	41.4625
111.80798	39.1625
116.16626	42.5625
120.52136	40.8625
124.87327	43.4625
129.222	39.5625
133.56755	41.0625
137.90993	45.0625
142.24913	46.6625
146.58517	47.0625
150.91804	53.6625
155.24774	62.4625
159.57429	67.2625
163.89768	84.4625
168.21792	111.9625
172.53501	133.4625
176.84895	179.9625
181.15975	244.1625
185.46741	329.4625
189.77193	454.7625
194.07331	598.6625
198.37157	772.3625
202.6667	949.0625
206.9587	1142.4625
211.24758	1328.4625
215.53334	1510.0625
219.81599	1709.5625
224.09553	1920.1625
228.37195	2163.8625
232.64527	2436.7625
236.91549	2698.6625
241.18261	2950.5625
245.44663	3175.2625
249.70755	3343.3625
253.96539	3513.9625
258.22014	3606.2625
262.4718	3674.4625
266.72039	3684.6625
270.96589	3683.6625
275.20832	3639.8625
279.44768	3573.8625
283.68397	3512.9625
287.91719	3456.9625
292.14735	3399.9625
296.37445	3353.6625
300.59849	3327.5625
304.81948	3323.4625
309.03742	3292.3625
313.25231	3253.2625
317.46415	3228.2625
321.67296	3186.7625
325.87872	3150.0625
330.08145	3113.5625
334.28114	3105.7625
338.47781	3095.5625
342.67145	3110.8625
346.86207	3144.6625
351.04966	3169.0625
355.23424	3215.8625
359.4158	3244.0625
363.59435	3278.8625
367.76989	3330.2625
371.94243	3366.3625
376.11196	3393.5625
380.27849	3438.3625
384.44203	3497.8625
388.60257	3526.0625
392.76012	3551.7625
396.91468	3585.3625
401.06626	3603.4625
405.21485	3641.7625
409.36047	3653.4625
413.50311	3643.6625
417.64277	3624.6625
421.77947	3617.2625
425.9132	3610.5625
430.04396	3621.5625
434.17176	3633.6625
438.2966	3652.5625
442.41849	3663.1625
446.53742	3678.1625
450.6534	3728.8625
454.76644	3754.7625
458.87653	3759.6625
462.98368	3775.8625
467.08789	3786.6625
471.18916	3792.9625
475.2875	3809.7625
479.38291	3859.8625
483.4754	3921.1625
487.56496	4034.9625
491.6516	4183.4625
495.73531	4287.8625
499.81612	4323.9625
503.89401	4277.8625
507.96899	4171.0625
512.04106	4090.4625
516.11023	4049.4625
520.1765	4040.3625
524.23987	4051.3625
528.30034	4089.8625
532.35792	4110.0625
536.41261	4097.2625
540.46441	4038.4625
544.51333	3972.0625
548.55936	3904.5625
552.60252	3868.4625
556.64279	3849.9625
560.6802	3823.9625
564.71473	3835.6625
568.7464	3832.5625
572.7752	3850.9625
576.80114	3882.3625
580.82422	3922.1625
584.84444	4045.4625
588.86181	4147.0625
592.87633	4227.4625
596.888	4213.1625
600.89682	4162.8625
604.9028	4149.0625
608.90594	4276.9625
612.90624	4490.5625
616.90371	4567.8625
620.89834	4533.2625
624.89015	4716.8625
628.87913	5098.8625
632.86528	5555.9625
636.84862	5871.2625
640.82913	5894.4625
644.80683	5605.6625
648.78172	5231.1625
652.75379	4895.8625
656.72306	4635.1625
660.68952	4437.1625
664.65319	4338.5625
668.61405	4244.1625
672.57211	4193.1625
676.52738	4219.6625
680.47986	4235.0625
684.42955	4231.5625
688.37646	4196.6625
692.32058	4127.5625
696.26192	4080.8625
700.20048	4028.4625
704.13626	3973.7625
708.06928	3968.9625
711.99952	3949.4625
715.927	3961.9625
719.85171	3988.0625
723.77365	4047.3625
727.69284	4096.8625
731.60928	4073.6625
735.52295	3996.3625
739.43388	3926.3625
743.34206	3930.8625
747.24749	3938.1625
751.15017	3918.9625
755.05012	3927.8625
758.94733	3952.1625
762.8418	3987.8625
766.73354	4069.6625
770.62254	4147.8625
774.50882	4145.3625
778.39237	4103.2625
782.27321	4001.5625
786.15132	3916.1625
790.02671	3871.5625
793.89938	3871.6625
797.76935	3883.1625
801.6366	3943.7625
805.50115	4082.5625
809.36299	4272.4625
813.22213	4381.9625
817.07857	4344.5625
820.93231	4192.4625
824.78336	4018.9625
828.63172	3851.7625
832.47738	3763.3625
836.32036	3713.0625
840.16066	3695.2625
843.99827	3688.5625
847.8332	3686.5625
851.66546	3676.3625
855.49504	3668.1625
859.32195	3695.1625
863.1462	3730.1625
866.96777	3759.5625
870.78668	3841.3625
874.60293	3907.1625
878.41652	4028.2625
882.22745	4130.4625
886.03573	4231.1625
889.84136	4259.4625
893.64433	4195.3625
897.44466	4075.8625
901.24235	3885.2625
905.0374	3737.5625
908.8298	3647.2625
912.61957	3575.1625
916.40671	3543.8625
920.19121	3521.5625
923.97308	3535.8625
927.75233	3532.5625
931.52895	3521.9625
935.30295	3513.4625
939.07433	3492.8625
942.84309	3470.2625
946.60924	3446.3625
950.37278	3444.1625
954.13371	3411.8625
957.89203	3409.5625
961.64774	3403.5625
965.40086	3392.0625
969.15137	3391.2625
972.89929	3381.5625
976.64461	3352.4625
980.38733	3359.5625
984.12747	3342.9625
987.86502	3370.4625
991.59999	3375.0625
995.33237	3398.1625
999.06217	3448.2625
1002.78939	3485.9625
1006.51404	3527.7625
1010.23611	3593.7625
1013.95561	3632.3625
1017.67255	3655.1625
1021.38692	3664.7625
1025.09872	3644.5625
1028.80796	3599.9625
1032.51465	3534.0625
1036.21877	3478.6625
1039.92035	3441.6625
1043.61937	3418.7625
1047.31584	3402.6625
1051.00976	3398.7625
1054.70114	3422.6625
1058.38998	3435.0625
1062.07627	3479.5625
1065.76003	3512.6625
1069.44126	3561.6625
1073.11995	3592.3625
1076.79611	3633.4625
1080.46974	3615.1625
1084.14085	3557.6625
1087.80943	3506.4625
1091.47549	3475.3625
1095.13903	3434.6625
1098.80005	3392.3625
1102.45857	3373.4625
1106.11456	3401.0625
1109.76805	3428.6625
1113.41903	3512.6625
1117.06751	3679.6625
1120.71348	3937.1625
1124.35696	4278.9625
1127.99793	4700.2625
1131.63641	5057.6625
1135.2724	5241.8625
1138.90589	5208.8625
1142.5369	4982.7625
1146.16542	4640.9625
1149.79145	4289.9625
1153.415	3970.8625
1157.03607	3723.0625
1160.65467	3567.1625
1164.27079	3477.2625
1167.88443	3436.8625
1171.49561	3451.4625
1175.10432	3515.3625
1178.71056	3600.6625
1182.31434	3710.2625
1185.91565	3768.1625
1189.51451	3826.5625
1193.11091	3865.1625
1196.70485	3944.1625
1200.29634	4040.1625
1203.88538	4109.8625
1207.47197	4115.7625
1211.05612	4044.4625
1214.63782	3956.8625
1218.21708	3824.7625
1221.79391	3693.7625
1225.36829	3591.3625
1228.94024	3534.4625
1232.50976	3485.6625
1236.07685	3455.2625
1239.6415	3451.8625
1243.20374	3470.1625
1246.76355	3470.0625
1250.32093	3508.0625
1253.8759	3543.2625
1257.42845	3559.3625
1260.97859	3601.8625
1264.52631	3621.0625
1268.07163	3629.7625
1271.61453	3634.1625
1275.15503	3629.8625
1278.69312	3606.2625
1282.22882	3587.8625
1285.76211	3575.6625
1289.29301	3579.9625
1292.82151	3579.5625
1296.34761	3619.2625
1299.87133	3675.5625
1303.39266	3740.5625
1306.9116	3841.1625
1310.42815	3956.0625
1313.94233	4033.5625
1317.45412	4061.7625
1320.96354	4057.4625
1324.47058	4009.3625
1327.97525	3993.7625
1331.47754	3983.0625
1334.97747	3991.1625
1338.47502	4007.9625
1341.97022	4053.4625
1345.46305	4119.4625
1348.95352	4209.6625
1352.44163	4352.5625
1355.92738	4485.5625
1359.41078	4652.5625
1362.89183	4828.1625
1366.37053	4871.8625
1369.84688	4721.1625
1373.32088	4518.5625
1376.79254	4343.1625
1380.26186	4205.8625
1383.72883	4104.3625
1387.19347	4002.5625
1390.65578	3901.6625
1394.11575	3808.1625
1397.57339	3725.3625
1401.0287	3649.9625
1404.48168	3602.6625
1407.93234	3544.3625
1411.38068	3462.3625
1414.82669	3405.1625
1418.27039	3319.1625
1421.71177	3283.5625
1425.15083	3232.5625
1428.58758	3175.8625
1432.02203	3137.2625
1435.45416	3117.6625
1438.88399	3104.8625
1442.31151	3074.6625
1445.73673	3091.9625
1449.15965	3086.9625
1452.58027	3083.7625
1455.9986	3084.8625
1459.41463	3086.0625
1462.82837	3085.0625
1466.23982	3116.2625
1469.64898	3141.3625
1473.05586	3153.4625
1476.46045	3175.5625
1479.86276	3195.2625
1483.26279	3207.6625
1486.66054	3242.7625
1490.05602	3275.1625
1493.44922	3334.8625
1496.84016	3405.4625
1500.22882	3516.3625
1503.61521	3614.4625
1506.99934	3734.2625
1510.38121	3825.0625
1513.76081	3838.0625
1517.13816	3767.9625
1520.51324	3649.9625
1523.88607	3526.6625
1527.25665	3464.9625
1530.62498	3460.3625
1533.99105	3478.6625
1537.35488	3502.7625
1540.71647	3534.9625
1544.07581	3580.2625
1547.4329	3610.7625
1550.78776	3641.3625
1554.14038	3652.7625
1557.49077	3669.8625
1560.83892	3691.0625
1564.18484	3697.5625
1567.52853	3687.0625
1570.86999	3709.0625
1574.20922	3704.3625
1577.54624	3687.4625
1580.88103	3658.2625
1584.2136	3599.8625
1587.54395	3550.4625
1590.87208	3533.1625
1594.19801	3550.8625
1597.52172	3584.8625
1600.84321	3612.2625
1604.16251	3600.0625
1607.47959	3585.7625
1610.79447	3551.9625
1614.10715	3535.3625
1617.41763	3524.5625
1620.7259	3531.7625
1624.03199	3545.9625
1627.33587	3582.7625
1630.63757	3642.4625
1633.93707	3733.7625
1637.23439	3843.3625
1640.52951	3972.3625
1643.82246	4156.6625
1647.11321	4315.6625
1650.40179	4432.4625
1653.68819	4438.1625
1656.97241	4315.6625
1660.25446	4145.7625
1663.53433	4008.9625
1666.81203	3897.4625
1670.08756	3829.6625
1673.36092	3770.0625
1676.63211	3746.5625
1679.90115	3714.6625
1683.16801	3682.1625
1686.43272	3628.2625
1689.69527	3548.9625
1692.95567	3495.6625
1696.2139	3447.5625
1699.46999	3366.7625
1702.72392	3286.5625
1705.97571	3158.1625
1709.22535	3030.3625
1712.47284	2904.2625
1715.71819	2808.7625
1718.96139	2725.3625
1722.20246	2657.8625
1725.44139	2591.2625
1728.67818	2553.7625
1731.91284	2504.1625
1735.14537	2470.4625
1738.37576	2441.1625
1741.60403	2425.3625
1744.83017	2402.3625
1748.05418	2387.7625
1751.27607	2382.3625
1754.49584	2369.1625
1757.71349	2376.3625
1760.92903	2359.2625
1764.14244	2348.0625
1767.35375	2334.6625
1770.56294	2339.8625
1773.77002	2318.5625
1776.97499	2305.1625
1780.17785	2288.2625
1783.37861	2266.5625
1786.57727	2275.1625
1789.77382	2256.4625
1792.96828	2242.3625
1796.16064	2228.5625
1799.3509	2223.8625
1802.53907	2213.8625
1805.72514	2199.3625
1808.90913	2188.0625
1812.09102	2186.9625
1815.27083	2182.8625
1818.44856	2173.0625
1821.6242	2172.9625
1824.79776	2157.4625
1827.96924	2154.8625
1831.13864	2149.2625
1834.30597	2134.9625
1837.47122	2139.0625
1840.6344	2135.4625
1843.7955	2131.7625
1846.95454	2133.0625
1850.11151	2129.7625
1853.26642	2120.2625
1856.41926	2116.2625
1859.57004	2110.5625
1862.71876	2113.3625
1865.86542	2099.1625
1869.01003	2089.7625
1872.15258	2087.0625
1875.29308	2088.3625
1878.43152	2078.6625
1881.56792	2070.5625
1884.70227	2074.5625
1887.83457	2063.0625
1890.96482	2060.0625
1894.09304	2058.4625
1897.21921	2042.3625
1900.34335	2042.9625
1903.46544	2039.6625
1906.58551	2043.1625
1909.70353	2033.1625
1912.81953	2038.0625
1915.93349	2030.1625
1919.04543	2025.5625
1922.15534	2015.5625
1925.26322	2004.3625
1928.36908	2003.1625
1931.47292	2000.5625
1934.57473	1991.1625
1937.67453	1982.6625
1940.77232	1961.8625
1943.86808	1976.6625
1946.96184	1966.3625
1950.05358	1947.7625
1953.14331	1950.1625
1956.23103	1942.8625
1959.31675	1940.4625
1962.40046	1921.4625
1965.48217	1920.5625
1968.56188	1916.0625
1971.63959	1906.3625
1974.7153	1894.9625
1977.78901	1889.1625
1980.86073	1881.3625
1983.93046	1868.2625
1986.99819	1865.5625
1990.06394	1862.6625
1993.1277	1859.5625
1996.18947	1846.7625
1999.24925	1838.9625
2002.30706	1847.1625
2005.36288	1843.0625
2008.41672	1818.3625
2011.46859	1823.6625
2014.51848	1811.9625
2017.56639	1807.2625
2020.61233	1792.8625
2023.6563	1787.9625
2026.6983	1787.1625
2029.73833	1769.1625
2032.7764	1784.2625
2035.8125	1762.3625
2038.84664	1763.6625
2041.87881	1753.7625
2044.90903	1750.8625
2047.93729	1750.8625
2050.96359	1748.7625
2053.98794	1740.0625
2057.01034	1746.8625
2060.03078	1734.8625
2063.04927	1731.0625
2066.06582	1732.3625
2069.08042	1728.0625
2072.09307	1727.6625
2075.10378	1722.4625
2078.11255	1724.0625
2081.11938	1728.4625
2084.12426	1711.0625
2087.12722	1725.5625
2090.12824	1718.8625
2093.12732	1715.0625
2096.12447	1721.7625
2099.11969	1712.4625
2102.11299	1708.1625
2105.10435	1708.1625
2108.09379	1707.6625
2111.08131	1701.0625
2114.0669	1709.1625
2117.05057	1702.6625
2120.03233	1704.5625
2123.01216	1703.6625
2125.99008	1697.7625
2128.96609	1698.8625
2131.94018	1697.8625
2134.91236	1699.3625
2137.88263	1709.9625
2140.851	1700.7625
2143.81746	1707.4625
2146.78201	1702.4625
2149.74466	1705.3625
2152.7054	1694.8625
2155.66425	1695.9625
2158.6212	1689.3625
2161.57625	1695.2625
2164.52941	1686.4625
2167.48067	1681.5625
2170.43004	1692.6625
2173.37752	1683.7625
2176.32311	1682.4625
2179.26681	1673.7625
2182.20863	1677.8625
2185.14856	1671.3625
2188.08661	1666.5625
2191.02278	1673.6625
2193.95707	1665.4625
2196.88948	1658.4625
2199.82001	1659.5625
2202.74867	1656.2625
2205.67545	1656.0625
2208.60037	1651.7625
2211.52341	1637.1625
2214.44458	1633.4625
2217.36388	1637.3625
2220.28132	1623.8625
2223.1969	1630.3625
2226.11061	1619.5625
2229.02246	1609.6625
2231.93245	1614.3625
2234.84058	1605.2625
2237.74686	1602.9625
2240.65128	1595.7625
2243.55385	1591.1625
2246.45456	1598.4625
2249.35343	1593.6625
2252.25044	1579.3625
2255.14561	1570.4625
2258.03893	1585.1625
2260.93041	1584.2625
2263.82004	1571.1625
2266.70783	1570.7625
2269.59378	1562.9625
2272.4779	1555.4625
2275.36017	1545.7625
2278.24061	1546.7625
2281.11922	1536.6625
2283.996	1537.4625
2286.87094	1533.4625
2289.74405	1536.2625
2292.61534	1523.7625
2295.4848	1513.8625
2298.35243	1512.4625
2301.21824	1510.5625
2304.08223	1505.5625
2306.94439	1503.1625
2309.80474	1495.7625
2312.66327	1504.0625
2315.51999	1491.9625
2318.37489	1495.9625
2321.22797	1485.1625
2324.07925	1483.5625
2326.92871	1492.5625
2329.77637	1494.4625
2332.62222	1477.2625
2335.46626	1469.0625
2338.3085	1467.8625
2341.14893	1465.9625
2343.98756	1455.8625
2346.8244	1465.0625
2349.65943	1452.6625
2352.49267	1458.8625
2355.32411	1448.9625
2358.15376	1458.0625
2360.98161	1446.8625
2363.80768	1446.2625
2366.63195	1441.4625
2369.45444	1436.4625
2372.27514	1441.7625
2375.09405	1445.2625
2377.91118	1440.4625
2380.72652	1428.1625
2383.54009	1431.2625
2386.35187	1426.8625
2389.16188	1412.8625
2391.97011	1416.8625
2394.77657	1411.5625
2397.58125	1399.5625
2400.38416	1398.6625
2403.18529	1403.5625
2405.98466	1393.6625
2408.78226	1399.3625
2411.57809	1393.0625
2414.37216	1386.9625
2417.16446	1385.1625
2419.955	1378.3625
2422.74378	1379.8625
2425.5308	1373.1625
2428.31606	1367.9625
2431.09956	1361.8625
2433.88131	1365.9625
2436.6613	1358.3625
2439.43954	1360.0625
2442.21603	1346.2625
2444.99077	1346.1625
2447.76377	1351.4625
2450.53501	1336.1625
2453.30451	1351.9625
2456.07226	1339.4625
2458.83827	1336.4625
2461.60254	1346.2625
2464.36507	1331.8625
2467.12586	1334.7625
2469.88492	1329.5625
2472.64224	1333.6625
2475.39782	1334.6625
2478.15167	1340.8625
2480.90379	1326.6625
2483.65417	1316.7625
2486.40283	1323.2625
2489.14976	1317.1625
2491.89497	1318.0625
2494.63845	1315.1625
2497.3802	1312.8625
2500.12024	1311.2625
2502.85855	1306.9625
2505.59514	1303.3625
2508.33002	1302.8625
2511.06318	1304.5625
2513.79462	1296.7625
2516.52435	1292.6625
2519.25237	1281.3625
2521.97867	1287.0625
2524.70327	1285.7625
2527.42616	1282.0625
2530.14734	1280.4625
2532.86681	1276.5625
2535.58458	1269.5625
2538.30065	1261.6625
2541.01501	1267.3625
2543.72768	1264.0625
2546.43864	1260.9625
2549.14791	1250.5625
2551.85548	1253.4625
2554.56136	1252.2625
2557.26554	1248.0625
2559.96803	1244.7625
2562.66883	1233.7625
2565.36794	1232.0625
2568.06536	1234.3625
2570.7611	1231.5625
2573.45514	1226.8625
2576.14751	1227.9625
2578.83819	1219.2625
2581.52719	1216.4625
2584.21451	1212.9625
2586.90015	1217.6625
2589.58411	1213.1625
2592.2664	1207.8625
2594.94701	1203.5625
2597.62594	1203.0625
2600.30321	1198.8625
2602.9788	1197.4625
2605.65273	1193.5625
2608.32498	1187.0625
2610.99557	1187.2625
2613.66449	1192.6625
2616.33175	1176.5625
2618.99734	1173.6625
2621.66128	1174.1625
2624.32355	1173.9625
2626.98416	1174.9625
2629.64311	1169.1625
2632.30041	1175.1625
2634.95605	1170.5625
2637.61004	1161.5625
2640.26238	1171.2625
2642.91306	1162.7625
2645.56209	1161.1625
2648.20948	1155.8625
2650.85521	1152.1625
2653.4993	1154.9625
2656.14175	1154.5625
2658.78255	1162.1625
2661.42171	1144.6625
2664.05923	1152.1625
2666.6951	1152.3625
2669.32934	1147.6625
2671.96194	1144.6625
2674.59291	1144.4625
2677.22224	1146.8625
2679.84993	1143.1625
2682.476	1151.3625
2685.10043	1142.4625
2687.72324	1145.0625
2690.34441	1143.5625
2692.96396	1143.5625
2695.58188	1144.5625
2698.19818	1149.9625
2700.81285	1146.9625
2703.4259	1167.7625
2706.03733	1186.0625
2708.64714	1164.2625
2711.25533	1158.7625
2713.86191	1146.4625
2716.46687	1143.2625
2719.07021	1150.3625
2721.67194	1153.5625
2724.27206	1137.8625
2726.87057	1138.5625
2729.46747	1148.1625
2732.06276	1140.9625
2734.65644	1144.8625
2737.24852	1135.2625
2739.83899	1130.0625
2742.42786	1137.6625
2745.01513	1128.5625
2747.60079	1130.1625
2750.18486	1121.6625
2752.76733	1120.7625
2755.3482	1129.1625
2757.92747	1116.6625
2760.50515	1113.5625
2763.08123	1115.0625
2765.65573	1107.3625
2768.22863	1109.1625
2770.79994	1108.4625
2773.36967	1110.8625
2775.9378	1104.3625
2778.50435	1092.5625
2781.06932	1101.4625
2783.6327	1104.7625
2786.1945	1091.8625
2788.75471	1096.6625
2791.31335	1089.7625
2793.87041	1092.3625
2796.42589	1076.0625
2798.97979	1084.2625
2801.53212	1074.5625
2804.08288	1076.6625
2806.63206	1081.4625
2809.17967	1067.0625
2811.72571	1073.2625
2814.27018	1077.7625
2816.81308	1068.8625
2819.35442	1070.1625
2821.89419	1058.4625
2824.43239	1074.1625
2826.96904	1058.8625
2829.50412	1065.5625
2832.03763	1067.2625
2834.56959	1063.5625
2837.1	1062.9625
2839.62884	1064.7625
2842.15613	1066.3625
2844.68186	1066.2625
2847.20604	1068.1625
2849.72867	1065.9625
2852.24974	1067.9625
2854.76927	1071.0625
2857.28724	1072.1625
2859.80367	1067.1625
2862.31855	1067.3625
2864.83189	1063.6625
2867.34368	1064.5625
2869.85393	1062.2625
2872.36264	1060.6625
2874.8698	1069.7625
2877.37543	1070.1625
2879.87952	1068.8625
2882.38207	1072.8625
2884.88308	1063.5625
2887.38256	1074.7625
2889.88051	1076.7625
2892.37692	1076.5625
2894.8718	1069.6625
2897.36515	1084.8625
2899.85698	1078.4625
2902.34727	1088.2625
2904.83604	1079.9625
2907.32328	1102.1625
2909.809	1089.5625
2912.29319	1089.4625
2914.77587	1098.2625
2917.25702	1095.8625
2919.73665	1089.3625
2922.21476	1088.2625
2924.69136	1096.8625
2927.16644	1101.1625
2929.64	1101.7625
2932.11205	1107.6625
2934.58258	1104.4625
2937.05161	1103.0625
2939.51912	1104.6625
2941.98513	1123.1625
2944.44962	1100.5625
2946.91261	1098.1625
2949.37409	1103.1625
2951.83407	1095.2625
2954.29254	1093.5625
2956.74951	1089.4625
2959.20498	1088.1625
2961.65895	1071.5625
2964.11142	1081.8625
2966.56239	1072.4625
2969.01186	1074.8625
2971.45984	1069.2625
2973.90632	1062.9625
2976.35131	1066.4625
2978.7948	1060.8625
2981.23681	1055.7625
2983.67732	1058.9625
2986.11635	1061.6625
2988.55388	1054.0625
2990.98993	1063.5625
2993.4245	1051.2625
2995.85758	1051.3625
2998.28917	1051.0625
3000.71928	1049.1625
3003.14791	1048.8625
3005.57506	1050.5625
3008.00073	1050.6625
3010.42493	1056.5625
3012.84764	1049.3625
3015.26888	1054.0625
3017.68865	1057.1625
3020.10694	1055.3625
3022.52376	1065.7625
3024.9391	1068.6625
3027.35298	1057.4625
3029.76539	1060.2625
3032.17632	1064.7625
3034.5858	1055.4625
3036.9938	1065.7625
3039.40034	1064.2625
3041.80542	1075.4625
3044.20903	1064.9625
3046.61118	1064.4625
3049.01187	1067.9625
3051.4111	1069.0625
3053.80888	1073.9625
3056.20519	1077.5625
3058.60005	1073.2625
3060.99345	1083.7625
3063.3854	1081.2625
3065.7759	1080.2625
3068.16494	1081.4625
3070.55254	1091.6625
3072.93868	1088.9625
3075.32338	1094.0625
3077.70662	1098.7625
3080.08842	1100.9625
3082.46878	1106.5625
3084.84769	1098.0625
3087.22515	1114.4625
3089.60118	1120.2625
3091.97576	1124.3625
3094.3489	1127.2625
3096.72061	1129.0625
3099.09087	1137.9625
3101.4597	1134.0625
3103.82709	1141.8625
3106.19305	1146.6625
3108.55757	1157.5625
3110.92066	1152.6625
3113.28232	1162.1625
3115.64255	1157.4625
3118.00134	1164.1625
3120.35871	1177.1625
3122.71466	1178.4625
3125.06917	1182.7625
3127.42226	1177.5625
3129.77393	1195.3625
3132.12417	1198.4625
3134.47299	1210.8625
3136.82039	1209.3625
3139.16636	1225.3625
3141.51092	1234.8625
3143.85406	1230.9625
3146.19579	1252.3625
3148.53609	1248.4625
3150.87499	1259.6625
3153.21246	1265.8625
3155.54853	1267.3625
3157.88318	1286.7625
3160.21642	1293.0625
3162.54826	1292.7625
3164.87868	1297.8625
3167.2077	1304.7625
3169.5353	1309.4625
3171.86151	1315.3625
3174.18631	1328.4625
3176.5097	1324.6625
3178.83169	1337.5625
3181.15228	1341.0625
3183.47147	1359.2625
3185.78926	1349.7625
3188.10565	1357.3625
3190.42065	1357.1625
3192.73424	1376.0625
3195.04645	1380.8625
3197.35725	1382.8625
3199.66667	1387.5625
3201.97469	1387.3625
3204.28132	1397.3625
3206.58656	1409.4625
3208.8904	1408.4625
3211.19287	1405.9625
3213.49394	1416.1625
3215.79363	1410.3625
3218.09193	1412.8625
3220.38884	1435.7625
3222.68438	1437.5625
3224.97853	1427.7625
3227.2713	1427.3625
3229.56269	1434.4625
3231.8527	1429.3625
3234.14133	1436.0625
3236.42858	1427.7625
3238.71446	1435.4625
3240.99896	1443.4625
3243.28209	1437.3625
3245.56384	1427.3625
3247.84423	1435.8625
3250.12324	1430.5625
3252.40088	1429.1625
3254.67715	1432.3625
3256.95205	1431.6625
3259.22558	1447.0625
3261.49775	1420.9625
3263.76855	1432.8625
3266.03799	1438.6625
3268.30606	1421.3625
3270.57277	1425.6625
3272.83812	1419.7625
3275.10211	1427.4625
3277.36474	1418.9625
3279.62601	1431.7625
3281.88593	1422.2625
3284.14448	1423.9625
3286.40168	1420.5625
3288.65753	1418.3625
3290.91202	1422.5625
3293.16516	1407.9625
3295.41695	1414.9625
3297.66738	1409.1625
3299.91647	1403.4625
3302.16421	1398.8625
3304.4106	1390.7625
3306.65564	1374.2625
3308.89933	1382.5625
3311.14169	1367.5625
3313.38269	1362.4625
3315.62236	1356.4625
3317.86068	1348.8625
3320.09766	1330.4625
3322.3333	1320.3625
3324.5676	1329.1625
3326.80056	1314.4625
3329.03219	1296.5625
3331.26248	0.3625
3333.49143	0.6625
3335.71905	-0.7375
