Data from AgNPs_FTO_APTES_UA_0.1mM_CRN_0uM_NaF_0.1M_Addition_RamanShift__42__10-51-37-501.txt Node

Date: Mon Dec 20 10:51:37 GMT 2021
User: TCL
Spectrometer: QEP01345
Trigger mode: 4
Integration Time (sec): 7.000000E0
Scans to average: 10
Electric dark correction enabled: true
Nonlinearity correction enabled: false
Boxcar width: 0
XAxis mode: Raman Shifts
Number of Pixels in Spectrum: 1044
>>>>>Begin Spectral Data<<<<<
46.04893	-0.1375
50.45542	0.9625
54.85868	-0.3375
59.25871	0.4625
63.6555	27.8625
68.04907	26.8625
72.43941	30.9625
76.82654	31.1625
81.21044	33.6625
85.59113	37.6625
89.96862	33.3625
94.34289	35.8625
98.71396	39.1625
103.08183	39.0625
107.4465	41.0625
111.80798	44.4625
116.16626	40.0625
120.52136	44.2625
124.87327	47.3625
129.222	48.6625
133.56755	45.9625
137.90993	46.5625
142.24913	50.2625
146.58517	57.3625
150.91804	64.7625
155.24774	75.9625
159.57429	89.5625
163.89768	109.1625
168.21792	145.9625
172.53501	191.2625
176.84895	260.8625
181.15975	359.7625
185.46741	506.0625
189.77193	689.2625
194.07331	927.3625
198.37157	1195.5625
202.6667	1481.9625
206.9587	1770.3625
211.24758	2048.7625
215.53334	2339.2625
219.81599	2642.4625
224.09553	2959.0625
228.37195	3334.9625
232.64527	3757.5625
236.91549	4204.0625
241.18261	4649.4625
245.44663	5073.2625
249.70755	5476.5625
253.96539	5772.2625
258.22014	5953.0625
262.4718	6054.8625
266.72039	6061.8625
270.96589	5977.3625
275.20832	5845.6625
279.44768	5652.0625
283.68397	5475.9625
287.91719	5297.4625
292.14735	5135.7625
296.37445	5024.8625
300.59849	4967.5625
304.81948	4913.5625
309.03742	4865.9625
313.25231	4833.3625
317.46415	4771.5625
321.67296	4722.0625
325.87872	4664.7625
330.08145	4631.7625
334.28114	4630.0625
338.47781	4628.9625
342.67145	4639.2625
346.86207	4671.8625
351.04966	4715.3625
355.23424	4749.9625
359.4158	4810.6625
363.59435	4843.7625
367.76989	4888.8625
371.94243	4916.4625
376.11196	4948.6625
380.27849	4981.1625
384.44203	5038.3625
388.60257	5076.3625
392.76012	5138.4625
396.91468	5221.1625
401.06626	5331.5625
405.21485	5425.5625
409.36047	5464.1625
413.50311	5491.3625
417.64277	5504.5625
421.77947	5538.4625
425.9132	5439.3625
430.04396	5393.1625
434.17176	5390.2625
438.2966	5400.6625
442.41849	5385.9625
446.53742	5432.1625
450.6534	5479.4625
454.76644	5500.4625
458.87653	5518.8625
462.98368	5500.4625
467.08789	5523.4625
471.18916	5520.9625
475.2875	5540.0625
479.38291	5559.8625
483.4754	5601.0625
487.56496	5686.4625
491.6516	5752.3625
495.73531	5809.3625
499.81612	5895.8625
503.89401	5949.2625
507.96899	5973.3625
512.04106	5956.1625
516.11023	5905.3625
520.1765	5811.3625
524.23987	5719.9625
528.30034	5659.9625
532.35792	5568.3625
536.41261	5529.6625
540.46441	5488.9625
544.51333	5473.7625
548.55936	5480.7625
552.60252	5514.5625
556.64279	5557.2625
560.6802	5603.7625
564.71473	5612.7625
568.7464	5612.6625
572.7752	5658.3625
576.80114	5694.9625
580.82422	5749.9625
584.84444	5861.7625
588.86181	5963.1625
592.87633	6052.7625
596.888	6083.7625
600.89682	6058.4625
604.9028	6103.6625
608.90594	6315.9625
612.90624	6627.8625
616.90371	6536.4625
620.89834	6142.0625
624.89015	5935.5625
628.87913	5967.7625
632.86528	6076.6625
636.84862	6217.0625
640.82913	6226.4625
644.80683	6240.7625
648.78172	6182.6625
652.75379	6163.0625
656.72306	6112.4625
660.68952	6113.5625
664.65319	6097.0625
668.61405	6090.9625
672.57211	6119.0625
676.52738	6139.5625
680.47986	6121.4625
684.42955	6086.9625
688.37646	6043.5625
692.32058	6044.8625
696.26192	6025.4625
700.20048	5997.0625
704.13626	5986.5625
708.06928	5930.7625
711.99952	5849.9625
715.927	5780.5625
719.85171	5747.7625
723.77365	5703.7625
727.69284	5675.8625
731.60928	5676.2625
735.52295	5629.7625
739.43388	5644.7625
743.34206	5722.2625
747.24749	5775.2625
751.15017	5831.4625
755.05012	5864.8625
758.94733	5953.1625
762.8418	6056.2625
766.73354	6213.6625
770.62254	6327.9625
774.50882	6370.9625
778.39237	6267.6625
782.27321	6066.6625
786.15132	5899.6625
790.02671	5757.6625
793.89938	5707.1625
797.76935	5746.7625
801.6366	5778.0625
805.50115	5832.6625
809.36299	5899.8625
813.22213	5899.6625
817.07857	5857.0625
820.93231	5761.7625
824.78336	5664.4625
828.63172	5575.4625
832.47738	5530.3625
836.32036	5497.0625
840.16066	5486.4625
843.99827	5485.2625
847.8332	5491.7625
851.66546	5481.6625
855.49504	5492.8625
859.32195	5482.1625
863.1462	5488.9625
866.96777	5510.7625
870.78668	5510.5625
874.60293	5527.1625
878.41652	5551.5625
882.22745	5589.9625
886.03573	5633.3625
889.84136	5673.0625
893.64433	5663.3625
897.44466	5649.6625
901.24235	5610.0625
905.0374	5593.9625
908.8298	5572.4625
912.61957	5540.7625
916.40671	5533.4625
920.19121	5539.0625
923.97308	5547.4625
927.75233	5520.2625
931.52895	5495.7625
935.30295	5461.3625
939.07433	5423.0625
942.84309	5394.2625
946.60924	5366.7625
950.37278	5363.0625
954.13371	5355.6625
957.89203	5352.5625
961.64774	5369.2625
965.40086	5356.8625
969.15137	5358.3625
972.89929	5341.8625
976.64461	5341.1625
980.38733	5337.7625
984.12747	5324.6625
987.86502	5338.6625
991.59999	5348.1625
995.33237	5351.2625
999.06217	5377.8625
1002.78939	5392.1625
1006.51404	5440.3625
1010.23611	5488.9625
1013.95561	5523.0625
1017.67255	5555.8625
1021.38692	5541.1625
1025.09872	5538.0625
1028.80796	5493.5625
1032.51465	5498.2625
1036.21877	5469.8625
1039.92035	5477.4625
1043.61937	5493.4625
1047.31584	5504.4625
1051.00976	5494.7625
1054.70114	5525.2625
1058.38998	5519.9625
1062.07627	5534.9625
1065.76003	5543.1625
1069.44126	5587.5625
1073.11995	5627.8625
1076.79611	5665.1625
1080.46974	5677.5625
1084.14085	5684.7625
1087.80943	5678.3625
1091.47549	5682.9625
1095.13903	5687.9625
1098.80005	5653.6625
1102.45857	5617.2625
1106.11456	5591.8625
1109.76805	5575.5625
1113.41903	5617.3625
1117.06751	5691.4625
1120.71348	5788.5625
1124.35696	5898.7625
1127.99793	6048.0625
1131.63641	6178.8625
1135.2724	6267.3625
1138.90589	6279.1625
1142.5369	6276.1625
1146.16542	6234.6625
1149.79145	6133.6625
1153.415	6013.9625
1157.03607	5902.6625
1160.65467	5820.4625
1164.27079	5803.9625
1167.88443	5843.3625
1171.49561	5887.0625
1175.10432	6023.8625
1178.71056	6175.7625
1182.31434	6337.9625
1185.91565	6420.2625
1189.51451	6454.7625
1193.11091	6432.2625
1196.70485	6398.9625
1200.29634	6389.1625
1203.88538	6364.3625
1207.47197	6373.7625
1211.05612	6355.4625
1214.63782	6340.6625
1218.21708	6310.1625
1221.79391	6275.4625
1225.36829	6211.2625
1228.94024	6165.1625
1232.50976	6110.1625
1236.07685	6069.0625
1239.6415	6025.0625
1243.20374	6033.4625
1246.76355	6027.2625
1250.32093	6044.2625
1253.8759	6089.9625
1257.42845	6143.3625
1260.97859	6209.8625
1264.52631	6260.1625
1268.07163	6274.8625
1271.61453	6298.5625
1275.15503	6322.3625
1278.69312	6340.6625
1282.22882	6378.2625
1285.76211	6437.6625
1289.29301	6481.4625
1292.82151	6597.7625
1296.34761	6700.9625
1299.87133	6895.8625
1303.39266	7052.9625
1306.9116	7209.7625
1310.42815	7393.7625
1313.94233	7492.4625
1317.45412	7514.2625
1320.96354	7446.4625
1324.47058	7409.8625
1327.97525	7357.4625
1331.47754	7304.3625
1334.97747	7302.3625
1338.47502	7282.4625
1341.97022	7327.1625
1345.46305	7385.2625
1348.95352	7482.6625
1352.44163	7604.1625
1355.92738	7752.0625
1359.41078	7957.0625
1362.89183	8131.1625
1366.37053	8136.5625
1369.84688	7816.6625
1373.32088	7399.7625
1376.79254	7077.9625
1380.26186	6879.2625
1383.72883	6809.9625
1387.19347	6735.0625
1390.65578	6665.9625
1394.11575	6594.7625
1397.57339	6530.1625
1401.0287	6516.4625
1404.48168	6503.3625
1407.93234	6459.5625
1411.38068	6370.3625
1414.82669	6261.0625
1418.27039	6131.7625
1421.71177	6055.4625
1425.15083	5941.5625
1428.58758	5872.4625
1432.02203	5841.1625
1435.45416	5839.3625
1438.88399	5843.8625
1442.31151	5866.6625
1445.73673	5884.8625
1449.15965	5857.7625
1452.58027	5878.6625
1455.9986	5889.4625
1459.41463	5891.3625
1462.82837	5938.7625
1466.23982	6006.1625
1469.64898	6099.1625
1473.05586	6146.2625
1476.46045	6193.7625
1479.86276	6226.5625
1483.26279	6241.9625
1486.66054	6261.5625
1490.05602	6312.0625
1493.44922	6385.9625
1496.84016	6475.7625
1500.22882	6609.5625
1503.61521	6807.7625
1506.99934	6964.3625
1510.38121	7116.2625
1513.76081	7114.6625
1517.13816	7013.4625
1520.51324	6838.2625
1523.88607	6703.1625
1527.25665	6631.2625
1530.62498	6599.6625
1533.99105	6602.5625
1537.35488	6603.7625
1540.71647	6609.3625
1544.07581	6608.5625
1547.4329	6627.1625
1550.78776	6640.7625
1554.14038	6660.1625
1557.49077	6700.5625
1560.83892	6736.9625
1564.18484	6777.3625
1567.52853	6828.2625
1570.86999	6867.5625
1574.20922	6894.8625
1577.54624	6908.5625
1580.88103	6864.9625
1584.2136	6811.5625
1587.54395	6809.3625
1590.87208	6847.3625
1594.19801	6912.3625
1597.52172	7014.2625
1600.84321	7051.9625
1604.16251	6956.1625
1607.47959	6797.5625
1610.79447	6618.9625
1614.10715	6460.7625
1617.41763	6288.6625
1620.7259	6191.5625
1624.03199	6124.0625
1627.33587	6105.6625
1630.63757	6116.4625
1633.93707	6176.4625
1637.23439	6307.5625
1640.52951	6497.8625
1643.82246	6769.0625
1647.11321	7087.7625
1650.40179	7261.4625
1653.68819	7150.7625
1656.97241	6872.2625
1660.25446	6506.3625
1663.53433	6193.8625
1666.81203	6003.0625
1670.08756	5842.4625
1673.36092	5715.1625
1676.63211	5638.6625
1679.90115	5554.1625
1683.16801	5468.4625
1686.43272	5362.3625
1689.69527	5287.6625
1692.95567	5208.0625
1696.2139	5133.0625
1699.46999	5064.5625
1702.72392	4996.9625
1705.97571	4951.3625
1709.22535	4913.2625
1712.47284	4889.2625
1715.71819	4855.3625
1718.96139	4824.4625
1722.20246	4792.2625
1725.44139	4768.1625
1728.67818	4706.5625
1731.91284	4643.0625
1735.14537	4596.0625
1738.37576	4567.4625
1741.60403	4527.5625
1744.83017	4499.5625
1748.05418	4473.6625
1751.27607	4444.3625
1754.49584	4434.3625
1757.71349	4425.0625
1760.92903	4397.7625
1764.14244	4397.1625
1767.35375	4397.1625
1770.56294	4371.1625
1773.77002	4355.3625
1776.97499	4339.4625
1780.17785	4339.3625
1783.37861	4321.1625
1786.57727	4317.7625
1789.77382	4298.8625
1792.96828	4281.6625
1796.16064	4292.1625
1799.3509	4270.2625
1802.53907	4234.7625
1805.72514	4232.2625
1808.90913	4207.3625
1812.09102	4197.2625
1815.27083	4192.9625
1818.44856	4176.6625
1821.6242	4155.3625
1824.79776	4157.5625
1827.96924	4153.1625
1831.13864	4128.9625
1834.30597	4145.5625
1837.47122	4122.7625
1840.6344	4121.3625
1843.7955	4116.0625
1846.95454	4093.1625
1850.11151	4100.3625
1853.26642	4110.4625
1856.41926	4091.5625
1859.57004	4085.3625
1862.71876	4088.2625
1865.86542	4071.2625
1869.01003	4051.1625
1872.15258	4079.5625
1875.29308	4052.9625
1878.43152	4035.6625
1881.56792	4025.4625
1884.70227	4037.2625
1887.83457	4021.3625
1890.96482	4016.1625
1894.09304	4028.5625
1897.21921	4009.7625
1900.34335	3994.7625
1903.46544	3989.8625
1906.58551	3985.0625
1909.70353	3973.8625
1912.81953	3968.7625
1915.93349	3965.3625
1919.04543	3942.4625
1922.15534	3940.8625
1925.26322	3950.3625
1928.36908	3924.2625
1931.47292	3920.4625
1934.57473	3894.9625
1937.67453	3893.7625
1940.77232	3890.9625
1943.86808	3872.1625
1946.96184	3867.9625
1950.05358	3845.5625
1953.14331	3840.7625
1956.23103	3833.0625
1959.31675	3821.5625
1962.40046	3803.9625
1965.48217	3794.2625
1968.56188	3773.0625
1971.63959	3771.0625
1974.7153	3756.0625
1977.78901	3750.4625
1980.86073	3725.3625
1983.93046	3715.2625
1986.99819	3696.8625
1990.06394	3699.0625
1993.1277	3686.8625
1996.18947	3669.2625
1999.24925	3669.4625
2002.30706	3665.0625
2005.36288	3639.4625
2008.41672	3639.6625
2011.46859	3621.4625
2014.51848	3604.1625
2017.56639	3584.9625
2020.61233	3582.7625
2023.6563	3577.0625
2026.6983	3566.8625
2029.73833	3535.3625
2032.7764	3536.7625
2035.8125	3539.7625
2038.84664	3511.5625
2041.87881	3520.0625
2044.90903	3518.0625
2047.93729	3502.3625
2050.96359	3494.6625
2053.98794	3494.2625
2057.01034	3501.6625
2060.03078	3499.1625
2063.04927	3477.7625
2066.06582	3467.5625
2069.08042	3466.9625
2072.09307	3462.0625
2075.10378	3471.0625
2078.11255	3459.0625
2081.11938	3458.8625
2084.12426	3451.3625
2087.12722	3460.9625
2090.12824	3463.6625
2093.12732	3459.7625
2096.12447	3453.4625
2099.11969	3448.7625
2102.11299	3448.2625
2105.10435	3455.4625
2108.09379	3465.4625
2111.08131	3448.3625
2114.0669	3460.8625
2117.05057	3458.0625
2120.03233	3462.3625
2123.01216	3461.5625
2125.99008	3472.7625
2128.96609	3456.0625
2131.94018	3471.5625
2134.91236	3478.6625
2137.88263	3446.0625
2140.851	3455.0625
2143.81746	3467.7625
2146.78201	3456.3625
2149.74466	3458.6625
2152.7054	3465.0625
2155.66425	3464.7625
2158.6212	3459.4625
2161.57625	3459.6625
2164.52941	3460.8625
2167.48067	3463.8625
2170.43004	3452.5625
2173.37752	3442.6625
2176.32311	3447.3625
2179.26681	3429.6625
2182.20863	3445.8625
2185.14856	3446.0625
2188.08661	3440.9625
2191.02278	3435.8625
2193.95707	3421.1625
2196.88948	3426.3625
2199.82001	3410.7625
2202.74867	3407.4625
2205.67545	3412.3625
2208.60037	3392.3625
2211.52341	3398.8625
2214.44458	3384.4625
2217.36388	3374.7625
2220.28132	3376.1625
2223.1969	3367.9625
2226.11061	3352.3625
2229.02246	3347.0625
2231.93245	3335.1625
2234.84058	3328.2625
2237.74686	3323.9625
2240.65128	3322.2625
2243.55385	3318.4625
2246.45456	3296.0625
2249.35343	3293.5625
2252.25044	3302.1625
2255.14561	3293.1625
2258.03893	3295.0625
2260.93041	3280.1625
2263.82004	3274.0625
2266.70783	3264.5625
2269.59378	3254.6625
2272.4779	3245.0625
2275.36017	3234.6625
2278.24061	3237.3625
2281.11922	3213.8625
2283.996	3215.3625
2286.87094	3214.1625
2289.74405	3208.3625
2292.61534	3192.2625
2295.4848	3194.4625
2298.35243	3181.9625
2301.21824	3166.8625
2304.08223	3169.7625
2306.94439	3171.4625
2309.80474	3166.5625
2312.66327	3162.1625
2315.51999	3151.2625
2318.37489	3152.5625
2321.22797	3146.1625
2324.07925	3138.4625
2326.92871	3133.6625
2329.77637	3131.5625
2332.62222	3120.8625
2335.46626	3115.8625
2338.3085	3111.4625
2341.14893	3114.4625
2343.98756	3103.6625
2346.8244	3098.6625
2349.65943	3081.2625
2352.49267	3086.6625
2355.32411	3077.1625
2358.15376	3089.4625
2360.98161	3083.5625
2363.80768	3079.7625
2366.63195	3075.9625
2369.45444	3050.4625
2372.27514	3059.5625
2375.09405	3060.4625
2377.91118	3056.1625
2380.72652	3053.7625
2383.54009	3019.4625
2386.35187	3037.3625
2389.16188	3026.5625
2391.97011	3019.1625
2394.77657	3017.0625
2397.58125	2993.3625
2400.38416	2979.9625
2403.18529	2984.6625
2405.98466	2986.3625
2408.78226	2990.6625
2411.57809	2980.3625
2414.37216	2965.4625
2417.16446	2970.8625
2419.955	2948.0625
2422.74378	2971.9625
2425.5308	2952.1625
2428.31606	2945.7625
2431.09956	2933.4625
2433.88131	2931.7625
2436.6613	2940.8625
2439.43954	2947.3625
2442.21603	2916.3625
2444.99077	2927.1625
2447.76377	2926.9625
2450.53501	2928.8625
2453.30451	2920.0625
2456.07226	2920.7625
2458.83827	2899.9625
2461.60254	2891.3625
2464.36507	2903.4625
2467.12586	2893.1625
2469.88492	2895.2625
2472.64224	2882.3625
2475.39782	2882.3625
2478.15167	2895.4625
2480.90379	2879.8625
2483.65417	2880.3625
2486.40283	2864.9625
2489.14976	2872.6625
2491.89497	2870.9625
2494.63845	2859.3625
2497.3802	2860.9625
2500.12024	2855.1625
2502.85855	2848.5625
2505.59514	2844.0625
2508.33002	2841.5625
2511.06318	2843.9625
2513.79462	2827.4625
2516.52435	2848.0625
2519.25237	2829.5625
2521.97867	2814.8625
2524.70327	2809.2625
2527.42616	2811.8625
2530.14734	2809.5625
2532.86681	2784.5625
2535.58458	2780.0625
2538.30065	2788.0625
2541.01501	2773.0625
2543.72768	2761.4625
2546.43864	2763.8625
2549.14791	2770.1625
2551.85548	2759.3625
2554.56136	2744.5625
2557.26554	2755.8625
2559.96803	2739.1625
2562.66883	2740.1625
2565.36794	2726.4625
2568.06536	2722.9625
2570.7611	2724.2625
2573.45514	2726.0625
2576.14751	2713.7625
2578.83819	2706.4625
2581.52719	2705.2625
2584.21451	2699.5625
2586.90015	2691.1625
2589.58411	2664.3625
2592.2664	2686.4625
2594.94701	2672.8625
2597.62594	2672.5625
2600.30321	2665.2625
2602.9788	2660.6625
2605.65273	2647.6625
2608.32498	2646.5625
2610.99557	2647.5625
2613.66449	2632.6625
2616.33175	2634.6625
2618.99734	2636.8625
2621.66128	2621.8625
2624.32355	2621.3625
2626.98416	2627.3625
2629.64311	2611.9625
2632.30041	2609.4625
2634.95605	2619.6625
2637.61004	2600.8625
2640.26238	2595.3625
2642.91306	2586.2625
2645.56209	2594.0625
2648.20948	2585.0625
2650.85521	2588.5625
2653.4993	2577.4625
2656.14175	2590.3625
2658.78255	2583.9625
2661.42171	2568.5625
2664.05923	2576.6625
2666.6951	2567.7625
2669.32934	2579.3625
2671.96194	2565.3625
2674.59291	2579.7625
2677.22224	2577.0625
2679.84993	2563.4625
2682.476	2573.3625
2685.10043	2566.8625
2687.72324	2572.6625
2690.34441	2563.7625
2692.96396	2554.1625
2695.58188	2557.4625
2698.19818	2561.5625
2700.81285	2551.6625
2703.4259	2568.2625
2706.03733	2574.4625
2708.64714	2563.5625
2711.25533	2558.6625
2713.86191	2566.3625
2716.46687	2573.2625
2719.07021	2554.8625
2721.67194	2557.8625
2724.27206	2559.7625
2726.87057	2547.9625
2729.46747	2557.6625
2732.06276	2547.7625
2734.65644	2544.3625
2737.24852	2551.7625
2739.83899	2538.4625
2742.42786	2532.3625
2745.01513	2528.5625
2747.60079	2534.4625
2750.18486	2526.6625
2752.76733	2523.5625
2755.3482	2513.6625
2757.92747	2521.0625
2760.50515	2505.5625
2763.08123	2493.7625
2765.65573	2506.8625
2768.22863	2495.4625
2770.79994	2488.0625
2773.36967	2496.9625
2775.9378	2488.5625
2778.50435	2477.0625
2781.06932	2479.7625
2783.6327	2470.4625
2786.1945	2469.7625
2788.75471	2470.2625
2791.31335	2463.0625
2793.87041	2449.2625
2796.42589	2434.8625
2798.97979	2433.0625
2801.53212	2431.1625
2804.08288	2431.3625
2806.63206	2415.8625
2809.17967	2408.9625
2811.72571	2408.3625
2814.27018	2403.5625
2816.81308	2397.7625
2819.35442	2410.0625
2821.89419	2390.5625
2824.43239	2383.8625
2826.96904	2397.1625
2829.50412	2386.0625
2832.03763	2382.1625
2834.56959	2381.0625
2837.1	2380.1625
2839.62884	2382.3625
2842.15613	2374.0625
2844.68186	2376.4625
2847.20604	2364.6625
2849.72867	2362.3625
2852.24974	2370.9625
2854.76927	2369.2625
2857.28724	2369.0625
2859.80367	2360.2625
2862.31855	2364.3625
2864.83189	2366.0625
2867.34368	2347.3625
2869.85393	2354.1625
2872.36264	2345.2625
2874.8698	2355.0625
2877.37543	2336.9625
2879.87952	2346.1625
2882.38207	2349.1625
2884.88308	2344.7625
2887.38256	2345.9625
2889.88051	2351.5625
2892.37692	2347.1625
2894.8718	2342.3625
2897.36515	2347.1625
2899.85698	2346.0625
2902.34727	2342.9625
2904.83604	2340.6625
2907.32328	2348.3625
2909.809	2346.8625
2912.29319	2343.9625
2914.77587	2377.3625
2917.25702	2342.0625
2919.73665	2340.1625
2922.21476	2333.1625
2924.69136	2330.9625
2927.16644	2338.5625
2929.64	2342.6625
2932.11205	2343.5625
2934.58258	2333.7625
2937.05161	2323.0625
2939.51912	2327.7625
2941.98513	2330.2625
2944.44962	2325.3625
2946.91261	2307.8625
2949.37409	2327.8625
2951.83407	2314.6625
2954.29254	2310.0625
2956.74951	2309.2625
2959.20498	2295.7625
2961.65895	2299.6625
2964.11142	2304.6625
2966.56239	2297.5625
2969.01186	2289.2625
2971.45984	2297.5625
2973.90632	2284.0625
2976.35131	2286.4625
2978.7948	2290.6625
2981.23681	2278.4625
2983.67732	2278.9625
2986.11635	2268.8625
2988.55388	2261.7625
2990.98993	2258.0625
2993.4245	2246.1625
2995.85758	2251.5625
2998.28917	2251.9625
3000.71928	2244.5625
3003.14791	2250.5625
3005.57506	2248.6625
3008.00073	2245.8625
3010.42493	2230.2625
3012.84764	2232.1625
3015.26888	2232.4625
3017.68865	2233.8625
3020.10694	2224.0625
3022.52376	2223.8625
3024.9391	2222.2625
3027.35298	2216.2625
3029.76539	2221.6625
3032.17632	2224.3625
3034.5858	2228.2625
3036.9938	2217.6625
3039.40034	2209.2625
3041.80542	2217.5625
3044.20903	2200.8625
3046.61118	2212.2625
3049.01187	2205.4625
3051.4111	2202.4625
3053.80888	2210.0625
3056.20519	2203.6625
3058.60005	2196.7625
3060.99345	2202.0625
3063.3854	2192.9625
3065.7759	2194.0625
3068.16494	2188.9625
3070.55254	2180.9625
3072.93868	2183.4625
3075.32338	2185.6625
3077.70662	2192.3625
3080.08842	2180.2625
3082.46878	2189.4625
3084.84769	2188.0625
3087.22515	2195.5625
3089.60118	2191.8625
3091.97576	2184.4625
3094.3489	2190.9625
3096.72061	2209.2625
3099.09087	2197.2625
3101.4597	2203.8625
3103.82709	2213.2625
3106.19305	2197.4625
3108.55757	2208.5625
3110.92066	2202.4625
3113.28232	2200.8625
3115.64255	2201.6625
3118.00134	2211.1625
3120.35871	2200.8625
3122.71466	2200.6625
3125.06917	2204.0625
3127.42226	2204.0625
3129.77393	2202.2625
3132.12417	2202.4625
3134.47299	2208.4625
3136.82039	2214.6625
3139.16636	2224.4625
3141.51092	2217.7625
3143.85406	2226.2625
3146.19579	2231.7625
3148.53609	2240.4625
3150.87499	2237.7625
3153.21246	2252.3625
3155.54853	2258.6625
3157.88318	2260.1625
3160.21642	2266.2625
3162.54826	2269.5625
3164.87868	2263.4625
3167.2077	2268.3625
3169.5353	2281.1625
3171.86151	2276.3625
3174.18631	2285.4625
3176.5097	2276.6625
3178.83169	2282.1625
3181.15228	2277.4625
3183.47147	2276.7625
3185.78926	2277.1625
3188.10565	2283.7625
3190.42065	2290.6625
3192.73424	2293.8625
3195.04645	2287.1625
3197.35725	2287.5625
3199.66667	2297.0625
3201.97469	2295.3625
3204.28132	2311.1625
3206.58656	2301.6625
3208.8904	2309.1625
3211.19287	2314.6625
3213.49394	2318.5625
3215.79363	2318.3625
3218.09193	2321.0625
3220.38884	2317.5625
3222.68438	2323.5625
3224.97853	2319.6625
3227.2713	2315.3625
3229.56269	2307.7625
3231.8527	2299.9625
3234.14133	2308.5625
3236.42858	2305.5625
3238.71446	2290.3625
3240.99896	2298.0625
3243.28209	2305.3625
3245.56384	2300.7625
3247.84423	2295.4625
3250.12324	2298.1625
3252.40088	2293.6625
3254.67715	2291.4625
3256.95205	2284.5625
3259.22558	2298.1625
3261.49775	2294.9625
3263.76855	2276.6625
3266.03799	2286.8625
3268.30606	2278.7625
3270.57277	2268.5625
3272.83812	2264.4625
3275.10211	2261.9625
3277.36474	2262.0625
3279.62601	2266.2625
3281.88593	2269.0625
3284.14448	2261.5625
3286.40168	2264.8625
3288.65753	2261.4625
3290.91202	2247.8625
3293.16516	2247.5625
3295.41695	2238.8625
3297.66738	2220.3625
3299.91647	2214.8625
3302.16421	2201.4625
3304.4106	2200.4625
3306.65564	2191.4625
3308.89933	2178.3625
3311.14169	2167.1625
3313.38269	2154.3625
3315.62236	2142.0625
3317.86068	2119.2625
3320.09766	2100.7625
3322.3333	2087.1625
3324.5676	2095.5625
3326.80056	2060.0625
3329.03219	2051.3625
3331.26248	0.1625
3333.49143	-0.4375
3335.71905	-0.2375
