Data from AgNPs_FTO_APTES_UA_0.1mM_CRN_0uM_NaF_0.1M_Addition_RamanShift__61__11-13-47-527.txt Node

Date: Mon Dec 20 11:13:47 GMT 2021
User: TCL
Spectrometer: QEP01345
Trigger mode: 4
Integration Time (sec): 7.000000E0
Scans to average: 10
Electric dark correction enabled: true
Nonlinearity correction enabled: false
Boxcar width: 0
XAxis mode: Raman Shifts
Number of Pixels in Spectrum: 1044
>>>>>Begin Spectral Data<<<<<
46.04893	1.0625
50.45542	-0.1375
54.85868	-0.7375
59.25871	1.3625
63.6555	27.9625
68.04907	28.1625
72.43941	31.7625
76.82654	34.8625
81.21044	34.7625
85.59113	39.1625
89.96862	38.8625
94.34289	43.0625
98.71396	41.1625
103.08183	39.9625
107.4465	43.8625
111.80798	43.1625
116.16626	43.6625
120.52136	48.8625
124.87327	47.7625
129.222	48.4625
133.56755	48.4625
137.90993	55.4625
142.24913	55.6625
146.58517	55.5625
150.91804	69.9625
155.24774	81.1625
159.57429	96.4625
163.89768	122.7625
168.21792	155.4625
172.53501	203.3625
176.84895	273.9625
181.15975	376.0625
185.46741	516.5625
189.77193	701.7625
194.07331	929.7625
198.37157	1202.1625
202.6667	1479.8625
206.9587	1758.0625
211.24758	2029.4625
215.53334	2308.6625
219.81599	2589.2625
224.09553	2916.0625
228.37195	3267.0625
232.64527	3639.4625
236.91549	4014.4625
241.18261	4342.4625
245.44663	4651.1625
249.70755	4864.8625
253.96539	5048.0625
258.22014	5172.7625
262.4718	5285.8625
266.72039	5369.3625
270.96589	5400.7625
275.20832	5355.8625
279.44768	5278.5625
283.68397	5181.1625
287.91719	5127.3625
292.14735	5122.7625
296.37445	5204.6625
300.59849	5403.4625
304.81948	5596.8625
309.03742	5791.9625
313.25231	5772.3625
317.46415	5547.3625
321.67296	5119.3625
325.87872	4748.7625
330.08145	4544.0625
334.28114	4501.4625
338.47781	4559.6625
342.67145	4665.8625
346.86207	4837.9625
351.04966	5137.6625
355.23424	5468.2625
359.4158	5742.8625
363.59435	5892.4625
367.76989	5956.7625
371.94243	5970.1625
376.11196	5988.0625
380.27849	5979.5625
384.44203	5973.3625
388.60257	5901.6625
392.76012	5870.1625
396.91468	5912.6625
401.06626	6042.3625
405.21485	6129.7625
409.36047	5972.3625
413.50311	5674.9625
417.64277	5358.7625
421.77947	5158.2625
425.9132	5056.2625
430.04396	5034.0625
434.17176	5059.9625
438.2966	5144.5625
442.41849	5268.0625
446.53742	5460.1625
450.6534	5610.4625
454.76644	5690.8625
458.87653	5690.1625
462.98368	5614.6625
467.08789	5519.7625
471.18916	5420.5625
475.2875	5300.9625
479.38291	5264.8625
483.4754	5266.4625
487.56496	5395.5625
491.6516	5519.1625
495.73531	5567.2625
499.81612	5505.3625
503.89401	5428.8625
507.96899	5389.9625
512.04106	5429.4625
516.11023	5562.6625
520.1765	5722.0625
524.23987	5828.5625
528.30034	5812.4625
532.35792	5707.2625
536.41261	5510.1625
540.46441	5268.2625
544.51333	5086.4625
548.55936	5010.3625
552.60252	5035.9625
556.64279	5108.8625
560.6802	5160.2625
564.71473	5254.4625
568.7464	5463.9625
572.7752	5633.8625
576.80114	5526.9625
580.82422	5361.9625
584.84444	5360.8625
588.86181	5493.6625
592.87633	5623.1625
596.888	5679.4625
600.89682	5765.6625
604.9028	6240.8625
608.90594	7852.6625
612.90624	10171.7625
616.90371	10314.5625
620.89834	7989.4625
624.89015	7088.5625
628.87913	7415.2625
632.86528	7921.2625
636.84862	8138.0625
640.82913	7816.4625
644.80683	7104.7625
648.78172	6413.9625
652.75379	5961.5625
656.72306	5816.4625
660.68952	5837.5625
664.65319	5668.4625
668.61405	5339.2625
672.57211	5168.9625
676.52738	5140.2625
680.47986	5114.8625
684.42955	5092.3625
688.37646	5059.6625
692.32058	5070.7625
696.26192	5101.7625
700.20048	5127.1625
704.13626	5137.2625
708.06928	5073.0625
711.99952	5005.5625
715.927	5011.5625
719.85171	5099.0625
723.77365	5151.5625
727.69284	5121.7625
731.60928	5030.0625
735.52295	4948.8625
739.43388	4923.8625
743.34206	4953.1625
747.24749	4974.8625
751.15017	5001.2625
755.05012	5061.1625
758.94733	5248.1625
762.8418	5767.0625
766.73354	6656.6625
770.62254	7610.7625
774.50882	8165.4625
778.39237	7923.8625
782.27321	6974.4625
786.15132	5952.1625
790.02671	5400.8625
793.89938	5190.9625
797.76935	5177.8625
801.6366	5377.2625
805.50115	5748.7625
809.36299	6142.9625
813.22213	6239.0625
817.07857	6029.9625
820.93231	5662.3625
824.78336	5291.7625
828.63172	5059.3625
832.47738	4931.4625
836.32036	4832.7625
840.16066	4774.4625
843.99827	4729.8625
847.8332	4703.9625
851.66546	4683.1625
855.49504	4688.0625
859.32195	4713.8625
863.1462	4735.2625
866.96777	4843.7625
870.78668	5019.1625
874.60293	5269.7625
878.41652	5553.9625
882.22745	5820.3625
886.03573	5949.4625
889.84136	5909.4625
893.64433	5641.1625
897.44466	5335.7625
901.24235	5027.8625
905.0374	4796.8625
908.8298	4645.7625
912.61957	4573.2625
916.40671	4497.6625
920.19121	4525.5625
923.97308	4515.5625
927.75233	4556.3625
931.52895	4609.4625
935.30295	4575.8625
939.07433	4467.3625
942.84309	4339.7625
946.60924	4277.8625
950.37278	4247.8625
954.13371	4237.9625
957.89203	4213.7625
961.64774	4202.8625
965.40086	4186.7625
969.15137	4177.5625
972.89929	4173.8625
976.64461	4162.0625
980.38733	4169.9625
984.12747	4178.6625
987.86502	4223.1625
991.59999	4266.4625
995.33237	4367.0625
999.06217	4562.6625
1002.78939	4753.4625
1006.51404	4976.6625
1010.23611	5184.1625
1013.95561	5316.6625
1017.67255	5301.6625
1021.38692	5193.8625
1025.09872	5008.0625
1028.80796	4813.6625
1032.51465	4675.2625
1036.21877	4597.7625
1039.92035	4562.6625
1043.61937	4529.2625
1047.31584	4520.5625
1051.00976	4503.7625
1054.70114	4539.3625
1058.38998	4581.1625
1062.07627	4675.2625
1065.76003	4762.7625
1069.44126	4821.5625
1073.11995	4844.9625
1076.79611	4878.9625
1080.46974	4887.6625
1084.14085	4938.2625
1087.80943	4988.0625
1091.47549	4971.4625
1095.13903	4875.2625
1098.80005	4705.8625
1102.45857	4560.0625
1106.11456	4554.7625
1109.76805	4648.2625
1113.41903	4835.9625
1117.06751	5130.7625
1120.71348	5585.9625
1124.35696	6145.5625
1127.99793	6817.6625
1131.63641	7290.7625
1135.2724	7371.4625
1138.90589	7198.8625
1142.5369	6833.3625
1146.16542	6372.0625
1149.79145	5856.0625
1153.415	5412.2625
1157.03607	5113.2625
1160.65467	4961.2625
1164.27079	5002.0625
1167.88443	5178.2625
1171.49561	5541.5625
1175.10432	6213.8625
1178.71056	7137.3625
1182.31434	7916.0625
1185.91565	8244.4625
1189.51451	8279.7625
1193.11091	8187.7625
1196.70485	8073.7625
1200.29634	8042.5625
1203.88538	7895.2625
1207.47197	7439.6625
1211.05612	6895.0625
1214.63782	6389.7625
1218.21708	5980.8625
1221.79391	5663.2625
1225.36829	5426.9625
1228.94024	5254.8625
1232.50976	5121.0625
1236.07685	5048.6625
1239.6415	5076.6625
1243.20374	5106.2625
1246.76355	5148.3625
1250.32093	5206.9625
1253.8759	5298.7625
1257.42845	5434.9625
1260.97859	5581.6625
1264.52631	5716.6625
1268.07163	5864.4625
1271.61453	5963.1625
1275.15503	5993.1625
1278.69312	5988.6625
1282.22882	5974.8625
1285.76211	6081.5625
1289.29301	6303.8625
1292.82151	6574.5625
1296.34761	6858.6625
1299.87133	7238.0625
1303.39266	7875.9625
1306.9116	8799.6625
1310.42815	9854.0625
1313.94233	10536.5625
1317.45412	10416.9625
1320.96354	9778.2625
1324.47058	8998.3625
1327.97525	8303.1625
1331.47754	7886.9625
1334.97747	7797.8625
1338.47502	7922.8625
1341.97022	8210.9625
1345.46305	8594.8625
1348.95352	9147.6625
1352.44163	9905.7625
1355.92738	10947.6625
1359.41078	12434.7625
1362.89183	13745.9625
1366.37053	13426.5625
1369.84688	11604.0625
1373.32088	9715.2625
1376.79254	8459.0625
1380.26186	7773.1625
1383.72883	7398.5625
1387.19347	7111.6625
1390.65578	6838.6625
1394.11575	6619.5625
1397.57339	6492.6625
1401.0287	6450.2625
1404.48168	6395.3625
1407.93234	6324.9625
1411.38068	6217.5625
1414.82669	6099.9625
1418.27039	5901.5625
1421.71177	5711.1625
1425.15083	5523.6625
1428.58758	5455.9625
1432.02203	5463.2625
1435.45416	5546.5625
1438.88399	5579.4625
1442.31151	5574.5625
1445.73673	5608.4625
1449.15965	5635.5625
1452.58027	5609.4625
1455.9986	5552.9625
1459.41463	5493.4625
1462.82837	5539.7625
1466.23982	5657.4625
1469.64898	5795.5625
1473.05586	5904.4625
1476.46045	5984.0625
1479.86276	6099.7625
1483.26279	6274.2625
1486.66054	6461.5625
1490.05602	6711.5625
1493.44922	7025.1625
1496.84016	7419.1625
1500.22882	8104.0625
1503.61521	9048.4625
1506.99934	10138.7625
1510.38121	11074.9625
1513.76081	11466.2625
1517.13816	10923.7625
1520.51324	9600.0625
1523.88607	8252.8625
1527.25665	7377.2625
1530.62498	6927.1625
1533.99105	6747.1625
1537.35488	6681.2625
1540.71647	6670.7625
1544.07581	6736.7625
1547.4329	6775.1625
1550.78776	6791.8625
1554.14038	6753.0625
1557.49077	6749.1625
1560.83892	6793.7625
1564.18484	6918.7625
1567.52853	7102.4625
1570.86999	7275.9625
1574.20922	7432.9625
1577.54624	7447.4625
1580.88103	7153.2625
1584.2136	6735.6625
1587.54395	6503.1625
1590.87208	6550.6625
1594.19801	6865.4625
1597.52172	7353.6625
1600.84321	7692.3625
1604.16251	7652.8625
1607.47959	7262.5625
1610.79447	6824.6625
1614.10715	6352.1625
1617.41763	6020.8625
1620.7259	5800.3625
1624.03199	5721.4625
1627.33587	5746.3625
1630.63757	5843.4625
1633.93707	6134.5625
1637.23439	6519.5625
1640.52951	7157.8625
1643.82246	8081.8625
1647.11321	9120.7625
1650.40179	9917.3625
1653.68819	9864.7625
1656.97241	8841.2625
1660.25446	7591.8625
1663.53433	6554.5625
1666.81203	5877.3625
1670.08756	5435.9625
1673.36092	5095.7625
1676.63211	4879.6625
1679.90115	4702.8625
1683.16801	4581.9625
1686.43272	4451.8625
1689.69527	4362.6625
1692.95567	4264.8625
1696.2139	4204.6625
1699.46999	4140.7625
1702.72392	4062.0625
1705.97571	3996.2625
1709.22535	3915.9625
1712.47284	3878.0625
1715.71819	3837.3625
1718.96139	3788.6625
1722.20246	3744.6625
1725.44139	3685.7625
1728.67818	3646.3625
1731.91284	3585.2625
1735.14537	3530.7625
1738.37576	3521.6625
1741.60403	3489.9625
1744.83017	3460.7625
1748.05418	3456.4625
1751.27607	3445.3625
1754.49584	3411.7625
1757.71349	3406.3625
1760.92903	3398.6625
1764.14244	3392.8625
1767.35375	3365.1625
1770.56294	3345.9625
1773.77002	3331.4625
1776.97499	3317.7625
1780.17785	3278.9625
1783.37861	3267.3625
1786.57727	3253.4625
1789.77382	3242.0625
1792.96828	3239.6625
1796.16064	3217.5625
1799.3509	3208.2625
1802.53907	3179.4625
1805.72514	3185.9625
1808.90913	3180.9625
1812.09102	3154.6625
1815.27083	3157.1625
1818.44856	3144.1625
1821.6242	3136.3625
1824.79776	3123.4625
1827.96924	3120.8625
1831.13864	3111.1625
1834.30597	3110.2625
1837.47122	3116.5625
1840.6344	3077.1625
1843.7955	3091.4625
1846.95454	3082.8625
1850.11151	3083.0625
1853.26642	3082.5625
1856.41926	3076.5625
1859.57004	3073.0625
1862.71876	3060.6625
1865.86542	3070.1625
1869.01003	3071.2625
1872.15258	3050.0625
1875.29308	3045.1625
1878.43152	3051.7625
1881.56792	3043.9625
1884.70227	3044.2625
1887.83457	3019.3625
1890.96482	3034.6625
1894.09304	3036.3625
1897.21921	3015.9625
1900.34335	3014.2625
1903.46544	3010.6625
1906.58551	3019.4625
1909.70353	3020.8625
1912.81953	3008.6625
1915.93349	2989.2625
1919.04543	2983.5625
1922.15534	2981.0625
1925.26322	2983.6625
1928.36908	2976.5625
1931.47292	2950.4625
1934.57473	2955.5625
1937.67453	2951.1625
1940.77232	2924.9625
1943.86808	2935.8625
1946.96184	2907.7625
1950.05358	2895.3625
1953.14331	2905.3625
1956.23103	2888.2625
1959.31675	2882.3625
1962.40046	2879.3625
1965.48217	2857.9625
1968.56188	2857.7625
1971.63959	2860.7625
1974.7153	2830.8625
1977.78901	2827.2625
1980.86073	2817.6625
1983.93046	2810.9625
1986.99819	2800.3625
1990.06394	2779.6625
1993.1277	2786.6625
1996.18947	2772.1625
1999.24925	2748.0625
2002.30706	2742.2625
2005.36288	2747.1625
2008.41672	2737.7625
2011.46859	2739.9625
2014.51848	2708.7625
2017.56639	2706.4625
2020.61233	2702.4625
2023.6563	2683.6625
2026.6983	2684.4625
2029.73833	2677.5625
2032.7764	2664.4625
2035.8125	2673.3625
2038.84664	2666.3625
2041.87881	2665.1625
2044.90903	2653.2625
2047.93729	2653.5625
2050.96359	2643.7625
2053.98794	2643.0625
2057.01034	2639.2625
2060.03078	2637.2625
2063.04927	2627.4625
2066.06582	2628.6625
2069.08042	2626.3625
2072.09307	2619.3625
2075.10378	2616.6625
2078.11255	2609.6625
2081.11938	2616.4625
2084.12426	2611.6625
2087.12722	2619.0625
2090.12824	2615.5625
2093.12732	2611.6625
2096.12447	2608.4625
2099.11969	2609.5625
2102.11299	2603.9625
2105.10435	2598.4625
2108.09379	2602.7625
2111.08131	2601.8625
2114.0669	2604.7625
2117.05057	2614.8625
2120.03233	2607.2625
2123.01216	2601.7625
2125.99008	2599.0625
2128.96609	2614.9625
2131.94018	2617.9625
2134.91236	2618.9625
2137.88263	2615.5625
2140.851	2619.7625
2143.81746	2614.8625
2146.78201	2606.3625
2149.74466	2618.5625
2152.7054	2605.2625
2155.66425	2605.3625
2158.6212	2598.5625
2161.57625	2582.3625
2164.52941	2597.7625
2167.48067	2587.7625
2170.43004	2593.0625
2173.37752	2588.0625
2176.32311	2591.1625
2179.26681	2596.0625
2182.20863	2578.8625
2185.14856	2585.8625
2188.08661	2593.3625
2191.02278	2568.4625
2193.95707	2572.2625
2196.88948	2565.3625
2199.82001	2566.0625
2202.74867	2564.6625
2205.67545	2559.4625
2208.60037	2549.5625
2211.52341	2552.3625
2214.44458	2553.7625
2217.36388	2543.8625
2220.28132	2531.5625
2223.1969	2524.4625
2226.11061	2525.6625
2229.02246	2518.9625
2231.93245	2516.2625
2234.84058	2511.8625
2237.74686	2512.8625
2240.65128	2505.1625
2243.55385	2495.4625
2246.45456	2489.7625
2249.35343	2488.7625
2252.25044	2496.0625
2255.14561	2477.9625
2258.03893	2493.3625
2260.93041	2493.1625
2263.82004	2481.9625
2266.70783	2477.2625
2269.59378	2469.2625
2272.4779	2484.1625
2275.36017	2458.5625
2278.24061	2450.2625
2281.11922	2450.3625
2283.996	2445.0625
2286.87094	2439.2625
2289.74405	2428.2625
2292.61534	2417.4625
2295.4848	2414.5625
2298.35243	2404.8625
2301.21824	2410.8625
2304.08223	2401.6625
2306.94439	2393.4625
2309.80474	2383.5625
2312.66327	2398.0625
2315.51999	2397.4625
2318.37489	2385.4625
2321.22797	2377.6625
2324.07925	2368.9625
2326.92871	2378.4625
2329.77637	2372.1625
2332.62222	2366.2625
2335.46626	2370.0625
2338.3085	2359.1625
2341.14893	2358.8625
2343.98756	2361.6625
2346.8244	2354.6625
2349.65943	2355.8625
2352.49267	2357.8625
2355.32411	2368.5625
2358.15376	2360.5625
2360.98161	2373.1625
2363.80768	2365.0625
2366.63195	2365.4625
2369.45444	2368.1625
2372.27514	2377.4625
2375.09405	2372.1625
2377.91118	2363.6625
2380.72652	2359.6625
2383.54009	2346.1625
2386.35187	2343.3625
2389.16188	2340.6625
2391.97011	2328.5625
2394.77657	2320.1625
2397.58125	2303.7625
2400.38416	2309.9625
2403.18529	2307.4625
2405.98466	2293.4625
2408.78226	2293.1625
2411.57809	2291.0625
2414.37216	2271.7625
2417.16446	2268.7625
2419.955	2267.1625
2422.74378	2274.9625
2425.5308	2250.5625
2428.31606	2247.7625
2431.09956	2243.6625
2433.88131	2242.4625
2436.6613	2244.4625
2439.43954	2245.5625
2442.21603	2239.3625
2444.99077	2241.8625
2447.76377	2232.7625
2450.53501	2238.6625
2453.30451	2242.7625
2456.07226	2239.5625
2458.83827	2240.1625
2461.60254	2230.2625
2464.36507	2228.3625
2467.12586	2227.1625
2469.88492	2223.5625
2472.64224	2224.5625
2475.39782	2223.2625
2478.15167	2229.2625
2480.90379	2232.1625
2483.65417	2237.5625
2486.40283	2233.4625
2489.14976	2241.4625
2491.89497	2243.6625
2494.63845	2262.8625
2497.3802	2239.9625
2500.12024	2229.1625
2502.85855	2231.3625
2505.59514	2229.3625
2508.33002	2215.7625
2511.06318	2220.1625
2513.79462	2202.5625
2516.52435	2183.8625
2519.25237	2186.0625
2521.97867	2180.6625
2524.70327	2166.3625
2527.42616	2166.0625
2530.14734	2168.8625
2532.86681	2158.8625
2535.58458	2159.1625
2538.30065	2150.3625
2541.01501	2149.3625
2543.72768	2149.5625
2546.43864	2146.9625
2549.14791	2148.1625
2551.85548	2140.5625
2554.56136	2129.6625
2557.26554	2132.5625
2559.96803	2137.1625
2562.66883	2128.4625
2565.36794	2130.8625
2568.06536	2119.6625
2570.7611	2118.9625
2573.45514	2119.1625
2576.14751	2106.9625
2578.83819	2099.3625
2581.52719	2094.6625
2584.21451	2101.7625
2586.90015	2081.9625
2589.58411	2081.1625
2592.2664	2084.8625
2594.94701	2076.0625
2597.62594	2077.7625
2600.30321	2076.5625
2602.9788	2075.3625
2605.65273	2078.3625
2608.32498	2067.1625
2610.99557	2061.3625
2613.66449	2071.3625
2616.33175	2061.2625
2618.99734	2060.0625
2621.66128	2059.2625
2624.32355	2068.6625
2626.98416	2061.4625
2629.64311	2048.9625
2632.30041	2047.8625
2634.95605	2050.5625
2637.61004	2033.7625
2640.26238	2034.7625
2642.91306	2033.5625
2645.56209	2024.7625
2648.20948	2035.5625
2650.85521	2025.0625
2653.4993	2030.7625
2656.14175	2026.3625
2658.78255	2027.3625
2661.42171	2024.3625
2664.05923	2026.7625
2666.6951	2023.5625
2669.32934	2032.4625
2671.96194	2029.9625
2674.59291	2041.7625
2677.22224	2035.2625
2679.84993	2035.8625
2682.476	2036.8625
2685.10043	2034.0625
2687.72324	2040.4625
2690.34441	2038.2625
2692.96396	2037.3625
2695.58188	2038.8625
2698.19818	2030.7625
2700.81285	2047.9625
2703.4259	2050.6625
2706.03733	2079.0625
2708.64714	2067.2625
2711.25533	2053.0625
2713.86191	2049.3625
2716.46687	2062.1625
2719.07021	2054.4625
2721.67194	2052.7625
2724.27206	2052.5625
2726.87057	2055.3625
2729.46747	2052.6625
2732.06276	2052.9625
2734.65644	2053.7625
2737.24852	2041.9625
2739.83899	2046.5625
2742.42786	2035.6625
2745.01513	2033.6625
2747.60079	2030.2625
2750.18486	2041.4625
2752.76733	2022.0625
2755.3482	2037.7625
2757.92747	2031.1625
2760.50515	2010.8625
2763.08123	2019.8625
2765.65573	2013.0625
2768.22863	2016.1625
2770.79994	2011.5625
2773.36967	2019.9625
2775.9378	2018.5625
2778.50435	2017.3625
2781.06932	2019.8625
2783.6327	2012.5625
2786.1945	2022.5625
2788.75471	2014.8625
2791.31335	2019.1625
2793.87041	2011.1625
2796.42589	2007.3625
2798.97979	2000.0625
2801.53212	2001.4625
2804.08288	2008.2625
2806.63206	1999.5625
2809.17967	1997.5625
2811.72571	1991.1625
2814.27018	2007.5625
2816.81308	2004.9625
2819.35442	2003.9625
2821.89419	1998.6625
2824.43239	2003.0625
2826.96904	2005.9625
2829.50412	2005.4625
2832.03763	2004.3625
2834.56959	2025.1625
2837.1	2023.5625
2839.62884	2020.7625
2842.15613	2028.0625
2844.68186	2030.5625
2847.20604	2042.3625
2849.72867	2049.3625
2852.24974	2052.8625
2854.76927	2056.6625
2857.28724	2061.1625
2859.80367	2054.5625
2862.31855	2057.4625
2864.83189	2054.4625
2867.34368	2049.4625
2869.85393	2052.2625
2872.36264	2052.4625
2874.8698	2046.5625
2877.37543	2054.6625
2879.87952	2051.5625
2882.38207	2042.8625
2884.88308	2050.5625
2887.38256	2057.9625
2889.88051	2050.5625
2892.37692	2045.1625
2894.8718	2044.7625
2897.36515	2063.3625
2899.85698	2051.2625
2902.34727	2056.3625
2904.83604	2044.1625
2907.32328	2060.9625
2909.809	2068.9625
2912.29319	2050.0625
2914.77587	2053.4625
2917.25702	2065.6625
2919.73665	2061.9625
2922.21476	2051.0625
2924.69136	2036.4625
2927.16644	2044.3625
2929.64	2028.4625
2932.11205	2026.8625
2934.58258	2032.9625
2937.05161	2026.4625
2939.51912	2013.5625
2941.98513	2010.5625
2944.44962	2004.8625
2946.91261	1998.4625
2949.37409	1985.7625
2951.83407	1987.9625
2954.29254	1987.6625
2956.74951	1979.3625
2959.20498	1981.6625
2961.65895	1971.9625
2964.11142	1975.0625
2966.56239	1963.6625
2969.01186	1956.2625
2971.45984	1956.6625
2973.90632	1944.8625
2976.35131	1938.1625
2978.7948	1941.6625
2981.23681	1935.3625
2983.67732	1924.7625
2986.11635	1921.9625
2988.55388	1907.5625
2990.98993	1913.9625
2993.4245	1915.5625
2995.85758	1913.9625
2998.28917	1904.6625
3000.71928	1918.3625
3003.14791	1914.3625
3005.57506	1907.4625
3008.00073	1908.6625
3010.42493	1909.0625
3012.84764	1899.9625
3015.26888	1920.7625
3017.68865	1911.9625
3020.10694	1913.0625
3022.52376	1910.9625
3024.9391	1908.8625
3027.35298	1900.3625
3029.76539	1907.5625
3032.17632	1908.4625
3034.5858	1896.3625
3036.9938	1905.9625
3039.40034	1898.7625
3041.80542	1911.0625
3044.20903	1903.0625
3046.61118	1904.3625
3049.01187	1897.0625
3051.4111	1901.7625
3053.80888	1905.1625
3056.20519	1911.5625
3058.60005	1917.6625
3060.99345	1918.0625
3063.3854	1906.3625
3065.7759	1900.6625
3068.16494	1905.5625
3070.55254	1909.0625
3072.93868	1896.7625
3075.32338	1914.3625
3077.70662	1904.4625
3080.08842	1896.7625
3082.46878	1901.9625
3084.84769	1904.3625
3087.22515	1915.9625
3089.60118	1913.4625
3091.97576	1922.0625
3094.3489	1924.6625
3096.72061	1918.3625
3099.09087	1931.8625
3101.4597	1934.6625
3103.82709	1936.8625
3106.19305	1937.1625
3108.55757	1947.3625
3110.92066	1937.6625
3113.28232	1950.4625
3115.64255	1941.4625
3118.00134	1944.6625
3120.35871	1953.1625
3122.71466	1949.7625
3125.06917	1961.3625
3127.42226	1952.3625
3129.77393	1973.4625
3132.12417	1973.9625
3134.47299	1983.2625
3136.82039	1985.2625
3139.16636	1999.4625
3141.51092	2006.0625
3143.85406	2014.9625
3146.19579	2010.0625
3148.53609	2024.1625
3150.87499	2024.8625
3153.21246	2041.3625
3155.54853	2049.1625
3157.88318	2066.3625
3160.21642	2066.4625
3162.54826	2066.5625
3164.87868	2074.3625
3167.2077	2087.5625
3169.5353	2090.1625
3171.86151	2095.7625
3174.18631	2094.0625
3176.5097	2100.9625
3178.83169	2107.3625
3181.15228	2096.2625
3183.47147	2115.2625
3185.78926	2104.2625
3188.10565	2123.5625
3190.42065	2132.2625
3192.73424	2133.2625
3195.04645	2141.3625
3197.35725	2145.7625
3199.66667	2152.9625
3201.97469	2159.4625
3204.28132	2176.6625
3206.58656	2170.0625
3208.8904	2186.5625
3211.19287	2189.5625
3213.49394	2190.4625
3215.79363	2200.0625
3218.09193	2193.9625
3220.38884	2211.4625
3222.68438	2217.9625
3224.97853	2205.9625
3227.2713	2211.2625
3229.56269	2218.9625
3231.8527	2219.8625
3234.14133	2208.4625
3236.42858	2204.6625
3238.71446	2208.6625
3240.99896	2202.7625
3243.28209	2208.2625
3245.56384	2216.8625
3247.84423	2204.2625
3250.12324	2203.1625
3252.40088	2219.0625
3254.67715	2218.3625
3256.95205	2213.1625
3259.22558	2223.5625
3261.49775	2209.6625
3263.76855	2204.9625
3266.03799	2205.8625
3268.30606	2200.1625
3270.57277	2203.8625
3272.83812	2193.8625
3275.10211	2192.6625
3277.36474	2184.7625
3279.62601	2202.9625
3281.88593	2203.2625
3284.14448	2206.0625
3286.40168	2202.1625
3288.65753	2197.0625
3290.91202	2194.1625
3293.16516	2187.5625
3295.41695	2173.7625
3297.66738	2167.2625
3299.91647	2160.5625
3302.16421	2145.4625
3304.4106	2141.1625
3306.65564	2128.9625
3308.89933	2122.3625
3311.14169	2117.9625
3313.38269	2095.3625
3315.62236	2085.1625
3317.86068	2067.4625
3320.09766	2039.0625
3322.3333	2031.2625
3324.5676	2034.6625
3326.80056	2002.8625
3329.03219	1989.8625
3331.26248	-0.6375
3333.49143	0.5625
3335.71905	-1.6375
