Data from AgNPs_UA_5uM_CRN_500uM_SU_RamanShift__169__11-57-33-173.txt Node

Date: Thu Aug 04 11:57:33 BST 2022
User: TCL
Spectrometer: QEP01345
Trigger mode: 4
Integration Time (sec): 1.000000E0
Scans to average: 10
Electric dark correction enabled: true
Nonlinearity correction enabled: false
Boxcar width: 0
XAxis mode: Raman Shifts
Number of Pixels in Spectrum: 1044
>>>>>Begin Spectral Data<<<<<
46.04893	-0.3
50.45542	0.2
54.85868	0.1
59.25871	-0.7
63.6555	-57.5
68.04907	-38.3
72.43941	-69.9
76.82654	-55.8
81.21044	-55
85.59113	-47.5
89.96862	-75.4
94.34289	-55.9
98.71396	-78.2
103.08183	-57.6
107.4465	-47.6
111.80798	-54.7
116.16626	-42.2
120.52136	-75.6
124.87327	-48.7
129.222	-61.4
133.56755	-48.4
137.90993	-61
142.24913	-49.3
146.58517	-43.1
150.91804	-39.3
155.24774	-29.7
159.57429	-7
163.89768	-3
168.21792	42.3
172.53501	62.9
176.84895	145.3
181.15975	278.3
185.46741	438.8
189.77193	623
194.07331	919.3
198.37157	1215.7
202.6667	1504.5
206.9587	1837.4
211.24758	2155.9
215.53334	2499.9
219.81599	2862.9
224.09553	3272.1
228.37195	3700.3
232.64527	4186.4
236.91549	4674.8
241.18261	5022.4
245.44663	5326
249.70755	5516.9
253.96539	5637.7
258.22014	5745.6
262.4718	5833.5
266.72039	5849.4
270.96589	5836.9
275.20832	5725.2
279.44768	5618
283.68397	5503.7
287.91719	5452.3
292.14735	5473.8
296.37445	5624.3
300.59849	5920.6
304.81948	6274.4
309.03742	6660.4
313.25231	6882.6
317.46415	6808
321.67296	6430.5
325.87872	6032.4
330.08145	5806.7
334.28114	5800.4
338.47781	5870.6
342.67145	6000.7
346.86207	6240.3
351.04966	6617.8
355.23424	7034
359.4158	7299
363.59435	7327.9
367.76989	7282.6
371.94243	7133.5
376.11196	7014.1
380.27849	6931.1
384.44203	6872.2
388.60257	6823.4
392.76012	6825
396.91468	6963
401.06626	7112.2
405.21485	7148
409.36047	6993.5
413.50311	6667.8
417.64277	6385.9
421.77947	6186.6
425.9132	6106.5
430.04396	6095.1
434.17176	6133.2
438.2966	6222.5
442.41849	6338.3
446.53742	6451.4
450.6534	6542.4
454.76644	6624.2
458.87653	6634.8
462.98368	6622.7
467.08789	6545.8
471.18916	6475.4
475.2875	6355.6
479.38291	6248.7
483.4754	6143.1
487.56496	6087.2
491.6516	6056.2
495.73531	6068.2
499.81612	6092.9
503.89401	6173.6
507.96899	6214.2
512.04106	6326.6
516.11023	6431
520.1765	6517.8
524.23987	6542.6
528.30034	6527.2
532.35792	6472.3
536.41261	6414.5
540.46441	6306.9
544.51333	6270.2
548.55936	6312.2
552.60252	6426.2
556.64279	6527
560.6802	6683.1
564.71473	6807.1
568.7464	7010.9
572.7752	6970.8
576.80114	6639.7
580.82422	6399.5
584.84444	6303.8
588.86181	6270.4
592.87633	6321.8
596.888	6434.2
600.89682	6811
604.9028	7778.5
608.90594	9900.4
612.90624	12276.7
616.90371	11395.6
620.89834	8289
624.89015	6994.9
628.87913	6776.5
632.86528	6944.2
636.84862	7085.6
640.82913	6961.2
644.80683	6604.3
648.78172	6417.6
652.75379	6468.2
656.72306	6696
660.68952	6937.7
664.65319	6859.2
668.61405	6628.8
672.57211	6546.1
676.52738	6553.6
680.47986	6451.4
684.42955	6363.1
688.37646	6317.6
692.32058	6319.6
696.26192	6387.7
700.20048	6493.9
704.13626	6529.8
708.06928	6491.3
711.99952	6439.2
715.927	6421.2
719.85171	6477.2
723.77365	6512.9
727.69284	6496.7
731.60928	6478.6
735.52295	6452.8
739.43388	6499
743.34206	6513
747.24749	6538.9
751.15017	6541.9
755.05012	6634.4
758.94733	6995.8
762.8418	7843.6
766.73354	9167.7
770.62254	10169.8
774.50882	10241.5
778.39237	9746.2
782.27321	8824
786.15132	7766.1
790.02671	7081.6
793.89938	6699.4
797.76935	6581
801.6366	6498.6
805.50115	6455.7
809.36299	6431.3
813.22213	6460.1
817.07857	6437
820.93231	6445.4
824.78336	6472.7
828.63172	6474.3
832.47738	6494.7
836.32036	6507.1
840.16066	6466.6
843.99827	6449.8
847.8332	6447.4
851.66546	6459
855.49504	6470.4
859.32195	6502.5
863.1462	6456.9
866.96777	6494.7
870.78668	6473
874.60293	6494.9
878.41652	6518.1
882.22745	6596.4
886.03573	6615.9
889.84136	6615.5
893.64433	6623.4
897.44466	6612.4
901.24235	6616.5
905.0374	6602.4
908.8298	6544.8
912.61957	6517.8
916.40671	6454.7
920.19121	6514.7
923.97308	6596.3
927.75233	6668.9
931.52895	6732.3
935.30295	6712
939.07433	6558.2
942.84309	6423.7
946.60924	6417.7
950.37278	6360.2
954.13371	6369.9
957.89203	6354.2
961.64774	6394.2
965.40086	6366.7
969.15137	6342.1
972.89929	6380.4
976.64461	6344.2
980.38733	6375.9
984.12747	6379.3
987.86502	6393.3
991.59999	6427.4
995.33237	6499.3
999.06217	6576.8
1002.78939	6644.6
1006.51404	6787.9
1010.23611	6888.8
1013.95561	6957.5
1017.67255	6955.5
1021.38692	6932
1025.09872	6854.6
1028.80796	6770.6
1032.51465	6777.8
1036.21877	6787.7
1039.92035	6809.3
1043.61937	6851
1047.31584	6897.8
1051.00976	6921.9
1054.70114	6921.3
1058.38998	6925.9
1062.07627	6937.5
1065.76003	6985.7
1069.44126	7064.9
1073.11995	7157.4
1076.79611	7255.5
1080.46974	7446.2
1084.14085	7592.1
1087.80943	7717.7
1091.47549	7752.7
1095.13903	7662.9
1098.80005	7525.6
1102.45857	7442.2
1106.11456	7412.7
1109.76805	7351
1113.41903	7463.7
1117.06751	7640.6
1120.71348	7879.7
1124.35696	8273.7
1127.99793	8549.8
1131.63641	8397.2
1135.2724	7967.1
1138.90589	7674.7
1142.5369	7501.9
1146.16542	7393
1149.79145	7286.1
1153.415	7225.7
1157.03607	7234.5
1160.65467	7309.7
1164.27079	7513.1
1167.88443	7756.1
1171.49561	8184.8
1175.10432	8768.7
1178.71056	9674.4
1182.31434	10462.6
1185.91565	10678.4
1189.51451	10546.7
1193.11091	10313.9
1196.70485	10064
1200.29634	9840.2
1203.88538	9554.2
1207.47197	9109.9
1211.05612	8682.6
1214.63782	8292.6
1218.21708	8034
1221.79391	7896.4
1225.36829	7798.8
1228.94024	7800.5
1232.50976	7793.4
1236.07685	7817.2
1239.6415	7863.1
1243.20374	7872.6
1246.76355	7926.4
1250.32093	8007.5
1253.8759	8076.9
1257.42845	8273.3
1260.97859	8468
1264.52631	8700.8
1268.07163	8828.3
1271.61453	8983.3
1275.15503	9025.2
1278.69312	9009.2
1282.22882	9078.9
1285.76211	9285
1289.29301	9532.9
1292.82151	9821.3
1296.34761	10020.9
1299.87133	10430.7
1303.39266	11137.5
1306.9116	12246.6
1310.42815	13481.2
1313.94233	13920.9
1317.45412	13132.2
1320.96354	11971.5
1324.47058	10985.9
1327.97525	10218.6
1331.47754	9824.3
1334.97747	9757.5
1338.47502	9868.5
1341.97022	10218.9
1345.46305	10961
1348.95352	12029.8
1352.44163	13273.7
1355.92738	14583.6
1359.41078	16242
1362.89183	17660.2
1366.37053	17037.2
1369.84688	14197
1373.32088	11574.8
1376.79254	10196.5
1380.26186	9587
1383.72883	9172.2
1387.19347	8765.1
1390.65578	8434.9
1394.11575	8185.4
1397.57339	8030.2
1401.0287	7930.4
1404.48168	7883.6
1407.93234	7910.8
1411.38068	7933.9
1414.82669	8004
1418.27039	8097
1421.71177	8104.8
1425.15083	7979.3
1428.58758	7912.2
1432.02203	7955.2
1435.45416	8016.2
1438.88399	8039.1
1442.31151	8013.8
1445.73673	8094.6
1449.15965	8145.9
1452.58027	8163.3
1455.9986	8137.5
1459.41463	8173.5
1462.82837	8266.1
1466.23982	8469.6
1469.64898	8662.6
1473.05586	8794.3
1476.46045	8880.8
1479.86276	8951.1
1483.26279	9062.2
1486.66054	9224.1
1490.05602	9473.4
1493.44922	10029
1496.84016	10892.6
1500.22882	12267.6
1503.61521	13970.8
1506.99934	15686.6
1510.38121	16864.2
1513.76081	16818.7
1517.13816	15239.4
1520.51324	13120
1523.88607	11416.6
1527.25665	10425.4
1530.62498	9923.6
1533.99105	9705.7
1537.35488	9599.6
1540.71647	9497.3
1544.07581	9410
1547.4329	9265.2
1550.78776	9168
1554.14038	9085.3
1557.49077	9054.3
1560.83892	9118.4
1564.18484	9373.5
1567.52853	9687.9
1570.86999	9990.9
1574.20922	10150.6
1577.54624	10026.8
1580.88103	9527.1
1584.2136	8863
1587.54395	8499.7
1590.87208	8428.4
1594.19801	8622
1597.52172	8977.2
1600.84321	9128.7
1604.16251	8982.8
1607.47959	8792.4
1610.79447	8597.8
1614.10715	8310.7
1617.41763	7995.1
1620.7259	7744.7
1624.03199	7586.2
1627.33587	7526
1630.63757	7542.6
1633.93707	7789.6
1637.23439	8214.4
1640.52951	8895.5
1643.82246	9872.2
1647.11321	11039.6
1650.40179	11737
1653.68819	11392.4
1656.97241	10164.4
1660.25446	8775.7
1663.53433	7775.3
1666.81203	7182.6
1670.08756	6852.8
1673.36092	6680.5
1676.63211	6537.2
1679.90115	6443.4
1683.16801	6349.7
1686.43272	6250.4
1689.69527	6223.7
1692.95567	6145.9
1696.2139	6129.6
1699.46999	6079.2
1702.72392	6058.2
1705.97571	6079.4
1709.22535	6064.4
1712.47284	6101.2
1715.71819	6121.7
1718.96139	6102.4
1722.20246	6076.8
1725.44139	6055.9
1728.67818	6022.5
1731.91284	5993.1
1735.14537	5959
1738.37576	5902.9
1741.60403	5906.6
1744.83017	5879.2
1748.05418	5868.9
1751.27607	5880.9
1754.49584	5849.5
1757.71349	5832
1760.92903	5813.2
1764.14244	5775.8
1767.35375	5766.6
1770.56294	5746.2
1773.77002	5724.1
1776.97499	5729.4
1780.17785	5715.6
1783.37861	5705.1
1786.57727	5724.8
1789.77382	5672.2
1792.96828	5702.5
1796.16064	5687.5
1799.3509	5680
1802.53907	5682.4
1805.72514	5660.8
1808.90913	5616.1
1812.09102	5621.6
1815.27083	5608.7
1818.44856	5606.4
1821.6242	5578.6
1824.79776	5585.5
1827.96924	5568.7
1831.13864	5539.1
1834.30597	5561.9
1837.47122	5552.9
1840.6344	5513.3
1843.7955	5511.7
1846.95454	5505.2
1850.11151	5530.6
1853.26642	5486.6
1856.41926	5467.9
1859.57004	5493.7
1862.71876	5475.2
1865.86542	5466.9
1869.01003	5470.9
1872.15258	5442.2
1875.29308	5449.9
1878.43152	5467.9
1881.56792	5415.7
1884.70227	5413.9
1887.83457	5415.7
1890.96482	5397.6
1894.09304	5399.8
1897.21921	5392.3
1900.34335	5397.9
1903.46544	5358.4
1906.58551	5379.1
1909.70353	5361.5
1912.81953	5360.2
1915.93349	5350.1
1919.04543	5331.1
1922.15534	5325.2
1925.26322	5324.1
1928.36908	5318.1
1931.47292	5316.1
1934.57473	5309
1937.67453	5263.6
1940.77232	5253.2
1943.86808	5237.4
1946.96184	5248.7
1950.05358	5227.5
1953.14331	5197.3
1956.23103	5201.4
1959.31675	5165.3
1962.40046	5122.9
1965.48217	5121.3
1968.56188	5134.2
1971.63959	5125
1974.7153	5108.4
1977.78901	5102.2
1980.86073	5077.9
1983.93046	5037
1986.99819	4982.4
1990.06394	4989.2
1993.1277	5002.7
1996.18947	4966.7
1999.24925	4947.2
2002.30706	4940.4
2005.36288	4920.9
2008.41672	4916.1
2011.46859	4876
2014.51848	4879.7
2017.56639	4846
2020.61233	4832.2
2023.6563	4834.8
2026.6983	4769.8
2029.73833	4784.2
2032.7764	4805.1
2035.8125	4742.7
2038.84664	4738.8
2041.87881	4747.1
2044.90903	4745.6
2047.93729	4736.3
2050.96359	4719.2
2053.98794	4724.9
2057.01034	4715.8
2060.03078	4701.2
2063.04927	4678.4
2066.06582	4698.1
2069.08042	4675.1
2072.09307	4689.6
2075.10378	4683.2
2078.11255	4664.9
2081.11938	4686.4
2084.12426	4650.4
2087.12722	4659.5
2090.12824	4645.6
2093.12732	4656.1
2096.12447	4669.8
2099.11969	4663.5
2102.11299	4639.5
2105.10435	4660.9
2108.09379	4658.3
2111.08131	4652
2114.0669	4667.4
2117.05057	4656.2
2120.03233	4652.7
2123.01216	4663.5
2125.99008	4652.6
2128.96609	4668.7
2131.94018	4679.5
2134.91236	4667
2137.88263	4665.4
2140.851	4674.4
2143.81746	4689.3
2146.78201	4679.4
2149.74466	4668.5
2152.7054	4673.7
2155.66425	4660.5
2158.6212	4649.2
2161.57625	4639.8
2164.52941	4608.2
2167.48067	4622.9
2170.43004	4624.6
2173.37752	4639.5
2176.32311	4621.8
2179.26681	4654.2
2182.20863	4630.1
2185.14856	4636.5
2188.08661	4632.5
2191.02278	4626
2193.95707	4612.2
2196.88948	4599.2
2199.82001	4612.6
2202.74867	4605.9
2205.67545	4588.8
2208.60037	4591.8
2211.52341	4583.3
2214.44458	4558.7
2217.36388	4549
2220.28132	4545.8
2223.1969	4521.8
2226.11061	4520.5
2229.02246	4500.6
2231.93245	4506.4
2234.84058	4487.6
2237.74686	4489.4
2240.65128	4463.7
2243.55385	4477.5
2246.45456	4450.2
2249.35343	4478.4
2252.25044	4443.3
2255.14561	4452.3
2258.03893	4440.1
2260.93041	4443.5
2263.82004	4424.1
2266.70783	4433.7
2269.59378	4394.8
2272.4779	4379.5
2275.36017	4383.3
2278.24061	4378
2281.11922	4330.2
2283.996	4349.4
2286.87094	4316.6
2289.74405	4343.2
2292.61534	4311.5
2295.4848	4319.3
2298.35243	4308.9
2301.21824	4282.9
2304.08223	4291.4
2306.94439	4304
2309.80474	4288.6
2312.66327	4290.4
2315.51999	4279
2318.37489	4271.1
2321.22797	4253.5
2324.07925	4255.2
2326.92871	4240.1
2329.77637	4229.2
2332.62222	4221.7
2335.46626	4202.2
2338.3085	4197.7
2341.14893	4212.5
2343.98756	4221.7
2346.8244	4198.3
2349.65943	4180.1
2352.49267	4181.3
2355.32411	4185.1
2358.15376	4180.1
2360.98161	4188.4
2363.80768	4175.6
2366.63195	4169.6
2369.45444	4184.8
2372.27514	4171
2375.09405	4185.3
2377.91118	4148.8
2380.72652	4144.8
2383.54009	4138.6
2386.35187	4146.9
2389.16188	4096.6
2391.97011	4102
2394.77657	4094.9
2397.58125	4105
2400.38416	4077.2
2403.18529	4068.3
2405.98466	4058.7
2408.78226	4056.4
2411.57809	4029.1
2414.37216	4022.2
2417.16446	4029.5
2419.955	4002
2422.74378	4023.1
2425.5308	4009.2
2428.31606	3996.5
2431.09956	4016.9
2433.88131	3982.7
2436.6613	4009.3
2439.43954	3984.9
2442.21603	3973.6
2444.99077	3962.1
2447.76377	3980.4
2450.53501	3973.5
2453.30451	3965.2
2456.07226	3975
2458.83827	3948.4
2461.60254	3909.9
2464.36507	3926.4
2467.12586	3923.9
2469.88492	3924.3
2472.64224	3924.9
2475.39782	3911.8
2478.15167	3929.2
2480.90379	3920.5
2483.65417	3923.9
2486.40283	3930
2489.14976	3931.5
2491.89497	3921.8
2494.63845	3934.7
2497.3802	3910.1
2500.12024	3903.9
2502.85855	3896.8
2505.59514	3894.7
2508.33002	3886.3
2511.06318	3862.9
2513.79462	3860.1
2516.52435	3840.6
2519.25237	3809.2
2521.97867	3802
2524.70327	3822.4
2527.42616	3797.9
2530.14734	3815.9
2532.86681	3803.7
2535.58458	3801.2
2538.30065	3772.5
2541.01501	3806.8
2543.72768	3787.2
2546.43864	3787.4
2549.14791	3772.8
2551.85548	3749.4
2554.56136	3749.8
2557.26554	3748.6
2559.96803	3740.4
2562.66883	3730.4
2565.36794	3720.1
2568.06536	3681.1
2570.7611	3725.4
2573.45514	3703.9
2576.14751	3677.6
2578.83819	3677.1
2581.52719	3655
2584.21451	3664.8
2586.90015	3642.6
2589.58411	3631.6
2592.2664	3627.9
2594.94701	3639.6
2597.62594	3636.8
2600.30321	3575.6
2602.9788	3581.1
2605.65273	3585.5
2608.32498	3596.5
2610.99557	3605.9
2613.66449	3572.6
2616.33175	3591
2618.99734	3590.3
2621.66128	3585.7
2624.32355	3567
2626.98416	3552.2
2629.64311	3535.4
2632.30041	3544.8
2634.95605	3513.5
2637.61004	3501.1
2640.26238	3486.7
2642.91306	3483.4
2645.56209	3514.5
2648.20948	3501.2
2650.85521	3486.6
2653.4993	3500.2
2656.14175	3499.2
2658.78255	3485
2661.42171	3457.7
2664.05923	3499.3
2666.6951	3509.7
2669.32934	3498.2
2671.96194	3522.8
2674.59291	3496.4
2677.22224	3497.4
2679.84993	3495.5
2682.476	3481.2
2685.10043	3471.4
2687.72324	3468.9
2690.34441	3459
2692.96396	3464.5
2695.58188	3491.6
2698.19818	3481.8
2700.81285	3458.7
2703.4259	3457
2706.03733	3436.4
2708.64714	3428.1
2711.25533	3451.5
2713.86191	3455.9
2716.46687	3464.9
2719.07021	3448.9
2721.67194	3438.5
2724.27206	3464.5
2726.87057	3441.9
2729.46747	3432.7
2732.06276	3434.3
2734.65644	3418.1
2737.24852	3420.1
2739.83899	3398.3
2742.42786	3412.4
2745.01513	3426.5
2747.60079	3395.9
2750.18486	3381.4
2752.76733	3390.2
2755.3482	3382.9
2757.92747	3371.5
2760.50515	3361.5
2763.08123	3361
2765.65573	3363.8
2768.22863	3341.8
2770.79994	3341.4
2773.36967	3330.5
2775.9378	3335.1
2778.50435	3327.9
2781.06932	3309.4
2783.6327	3292.3
2786.1945	3322.4
2788.75471	3312.7
2791.31335	3297.4
2793.87041	3299.7
2796.42589	3266.3
2798.97979	3266.6
2801.53212	3283.7
2804.08288	3288.4
2806.63206	3257.6
2809.17967	3236.2
2811.72571	3255.7
2814.27018	3256.3
2816.81308	3235.2
2819.35442	3196.6
2821.89419	3213.8
2824.43239	3198.8
2826.96904	3211.5
2829.50412	3196.1
2832.03763	3211.7
2834.56959	3201.9
2837.1	3204.7
2839.62884	3192.8
2842.15613	3177.5
2844.68186	3199.7
2847.20604	3164.9
2849.72867	3161.4
2852.24974	3163.1
2854.76927	3131.7
2857.28724	3077.7
2859.80367	3147.3
2862.31855	3148.7
2864.83189	3135.2
2867.34368	3150.2
2869.85393	3158
2872.36264	3119.1
2874.8698	3129.5
2877.37543	3128.9
2879.87952	3130.6
2882.38207	3109.4
2884.88308	3115.6
2887.38256	3106.3
2889.88051	3096.3
2892.37692	3108.6
2894.8718	3089.4
2897.36515	3109.8
2899.85698	3087.5
2902.34727	3094.6
2904.83604	3101.2
2907.32328	3103.8
2909.809	3113.9
2912.29319	3096.6
2914.77587	3117.1
2917.25702	3116
2919.73665	3130.1
2922.21476	3138.9
2924.69136	3120.3
2927.16644	3103.9
2929.64	3107.4
2932.11205	3080.1
2934.58258	3087.7
2937.05161	3072.6
2939.51912	3087.1
2941.98513	3085.8
2944.44962	3067.2
2946.91261	3038
2949.37409	3049.3
2951.83407	3052.2
2954.29254	3047
2956.74951	3044.2
2959.20498	3029.7
2961.65895	3025.7
2964.11142	3019.9
2966.56239	3012.3
2969.01186	3026.1
2971.45984	3005.6
2973.90632	3004.2
2976.35131	3030.2
2978.7948	3008.7
2981.23681	2996.2
2983.67732	2997.2
2986.11635	2987
2988.55388	2959.9
2990.98993	2965.5
2993.4245	2945.8
2995.85758	2957.5
2998.28917	2939
3000.71928	2926.2
3003.14791	2907.9
3005.57506	2909.5
3008.00073	2902.5
3010.42493	2834.8
3012.84764	2882.7
3015.26888	2888.7
3017.68865	2876
3020.10694	2825.6
3022.52376	2845.4
3024.9391	2833
3027.35298	2826.5
3029.76539	2812.9
3032.17632	2818.9
3034.5858	2808.9
3036.9938	2827.7
3039.40034	2803.6
3041.80542	2783.7
3044.20903	2779
3046.61118	2784.1
3049.01187	2787.3
3051.4111	2753.8
3053.80888	2744.8
3056.20519	2752
3058.60005	2725.9
3060.99345	2755.7
3063.3854	2724.4
3065.7759	2714
3068.16494	2707
3070.55254	2701.8
3072.93868	2716.6
3075.32338	2692.5
3077.70662	2691.3
3080.08842	2687.6
3082.46878	2664.2
3084.84769	2683
3087.22515	2655.7
3089.60118	2672.3
3091.97576	2665.7
3094.3489	2663.7
3096.72061	2653.8
3099.09087	2646.2
3101.4597	2649.8
3103.82709	2640
3106.19305	2625
3108.55757	2637.4
3110.92066	2620.9
3113.28232	2632.1
3115.64255	2626.9
3118.00134	2632.9
3120.35871	2601.3
3122.71466	2576.8
3125.06917	2590.7
3127.42226	2576
3129.77393	2554.1
3132.12417	2574
3134.47299	2581.2
3136.82039	2555.5
3139.16636	2537.3
3141.51092	2555.5
3143.85406	2546.6
3146.19579	2542
3148.53609	2537.5
3150.87499	2541.5
3153.21246	2534.5
3155.54853	2538.8
3157.88318	2537.9
3160.21642	2545
3162.54826	2544
3164.87868	2546.7
3167.2077	2498.7
3169.5353	2521.7
3171.86151	2537.7
3174.18631	2512.5
3176.5097	2508.4
3178.83169	2507.7
3181.15228	2516.3
3183.47147	2477
3185.78926	2473
3188.10565	2482
3190.42065	2458.2
3192.73424	2460.2
3195.04645	2457.8
3197.35725	2437.8
3199.66667	2457.5
3201.97469	2452.2
3204.28132	2433.7
3206.58656	2443.1
3208.8904	2454.7
3211.19287	2440.1
3213.49394	2424.8
3215.79363	2416.9
3218.09193	2447.5
3220.38884	2434.8
3222.68438	2432.5
3224.97853	2400.4
3227.2713	2426.5
3229.56269	2412.9
3231.8527	2411.6
3234.14133	2412.1
3236.42858	2397.9
3238.71446	2373.5
3240.99896	2387.3
3243.28209	2368.3
3245.56384	2386.8
3247.84423	2368.9
3250.12324	2373.6
3252.40088	2371.7
3254.67715	2363
3256.95205	2330.5
3259.22558	2371.8
3261.49775	2354.9
3263.76855	2352.7
3266.03799	2363.9
3268.30606	2349.4
3270.57277	2350
3272.83812	2323.9
3275.10211	2328.4
3277.36474	2341.7
3279.62601	2329.9
3281.88593	2300
3284.14448	2289.7
3286.40168	2314.2
3288.65753	2300.4
3290.91202	2292.4
3293.16516	2274.7
3295.41695	2293.3
3297.66738	2290.1
3299.91647	2265.7
3302.16421	2274.6
3304.4106	2217.8
3306.65564	2244
3308.89933	2207.5
3311.14169	2194.4
3313.38269	2179.4
3315.62236	2167.9
3317.86068	2148.8
3320.09766	2143.7
3322.3333	2111.7
3324.5676	2103.4
3326.80056	2068.3
3329.03219	2057.3
3331.26248	-0.3
3333.49143	0.1
3335.71905	0.4
