Data from AgNPs_UA_5uM_CRN_500uM_SU_RamanShift__238__12-09-03-187.txt Node

Date: Thu Aug 04 12:09:03 BST 2022
User: TCL
Spectrometer: QEP01345
Trigger mode: 4
Integration Time (sec): 1.000000E0
Scans to average: 10
Electric dark correction enabled: true
Nonlinearity correction enabled: false
Boxcar width: 0
XAxis mode: Raman Shifts
Number of Pixels in Spectrum: 1044
>>>>>Begin Spectral Data<<<<<
46.04893	0.1
50.45542	-0.8
54.85868	0.6
59.25871	0.3
63.6555	-58.9
68.04907	-41.7
72.43941	-71.7
76.82654	-57.5
81.21044	-55.4
85.59113	-50
89.96862	-75.3
94.34289	-55.6
98.71396	-77
103.08183	-59.6
107.4465	-52.2
111.80798	-55.8
116.16626	-44.5
120.52136	-76
124.87327	-50.9
129.222	-64.4
133.56755	-52.1
137.90993	-64.9
142.24913	-51.8
146.58517	-42.9
150.91804	-40.9
155.24774	-31.6
159.57429	-11.6
163.89768	-9.5
168.21792	34
172.53501	55.7
176.84895	132.6
181.15975	256.4
185.46741	404.8
189.77193	587.7
194.07331	860.4
198.37157	1140.3
202.6667	1418.9
206.9587	1731.3
211.24758	2031.9
215.53334	2356.4
219.81599	2696
224.09553	3095.3
228.37195	3510.8
232.64527	3964.2
236.91549	4414.5
241.18261	4760.1
245.44663	5034.1
249.70755	5187.3
253.96539	5327
258.22014	5423.4
262.4718	5486.6
266.72039	5528.6
270.96589	5486.2
275.20832	5401.6
279.44768	5300.8
283.68397	5183.9
287.91719	5144.9
292.14735	5180.1
296.37445	5343.8
300.59849	5620.6
304.81948	5961.9
309.03742	6335.4
313.25231	6582.3
317.46415	6509.8
321.67296	6139
325.87872	5743.5
330.08145	5566.8
334.28114	5501.6
338.47781	5568.7
342.67145	5706
346.86207	5935.1
351.04966	6273.7
355.23424	6648.8
359.4158	6906.3
363.59435	6949.9
367.76989	6889.7
371.94243	6784
376.11196	6641.7
380.27849	6575.2
384.44203	6508.5
388.60257	6465.2
392.76012	6475.2
396.91468	6588.1
401.06626	6738.6
405.21485	6786.4
409.36047	6593.8
413.50311	6283.9
417.64277	6012.5
421.77947	5791.7
425.9132	5726.4
430.04396	5721
434.17176	5758.2
438.2966	5845.7
442.41849	5914.6
446.53742	6043.9
450.6534	6152.7
454.76644	6219.7
458.87653	6229.1
462.98368	6168.2
467.08789	6122.4
471.18916	6026.2
475.2875	5900.7
479.38291	5800.5
483.4754	5713.5
487.56496	5687.6
491.6516	5613.2
495.73531	5670.9
499.81612	5666.3
503.89401	5756.8
507.96899	5800.6
512.04106	5894.8
516.11023	5994.3
520.1765	6075.5
524.23987	6097.6
528.30034	6094.1
532.35792	6016.8
536.41261	5982.6
540.46441	5881
544.51333	5814.7
548.55936	5865.4
552.60252	5996
556.64279	6113.8
560.6802	6226.5
564.71473	6353
568.7464	6536.4
572.7752	6507.2
576.80114	6206.8
580.82422	5973.9
584.84444	5893.6
588.86181	5862.9
592.87633	5890.4
596.888	6006.9
600.89682	6372.9
604.9028	7344.9
608.90594	9407.5
612.90624	11703.7
616.90371	10838
620.89834	7794.4
624.89015	6500.5
628.87913	6299.9
632.86528	6436.6
636.84862	6583.2
640.82913	6468.9
644.80683	6134.6
648.78172	5955.1
652.75379	5965.1
656.72306	6200.6
660.68952	6436.1
664.65319	6341.5
668.61405	6112.9
672.57211	6044.4
676.52738	6056.4
680.47986	5946.7
684.42955	5871.7
688.37646	5812.5
692.32058	5818.9
696.26192	5873.6
700.20048	5989.7
704.13626	6030.4
708.06928	5978.5
711.99952	5940.4
715.927	5900.5
719.85171	5975.5
723.77365	6007.4
727.69284	5992.2
731.60928	5963.4
735.52295	5929.5
739.43388	5987.5
743.34206	5971.8
747.24749	6027.3
751.15017	6028.4
755.05012	6108.9
758.94733	6474.6
762.8418	7337
766.73354	8650.6
770.62254	9656.1
774.50882	9759.2
778.39237	9216.3
782.27321	8292.3
786.15132	7233
790.02671	6584.9
793.89938	6188.6
797.76935	6086.7
801.6366	5978.1
805.50115	5936.8
809.36299	5928.2
813.22213	5931.6
817.07857	5915.3
820.93231	5902
824.78336	5946.4
828.63172	5962.2
832.47738	5973.9
836.32036	5973.2
840.16066	5930.6
843.99827	5908.4
847.8332	5927.9
851.66546	5935.8
855.49504	5926.4
859.32195	5962.5
863.1462	5950.3
866.96777	5953.6
870.78668	5930.1
874.60293	5953.7
878.41652	5976.4
882.22745	6033.5
886.03573	6073.9
889.84136	6066.5
893.64433	6071.3
897.44466	6061.2
901.24235	6042.4
905.0374	6049.2
908.8298	5986.8
912.61957	5957.3
916.40671	5907.9
920.19121	5968.3
923.97308	6047.8
927.75233	6110.5
931.52895	6188.3
935.30295	6146.8
939.07433	5986.2
942.84309	5890.2
946.60924	5844.3
950.37278	5810.5
954.13371	5810.7
957.89203	5797.4
961.64774	5822.1
965.40086	5791.9
969.15137	5781.2
972.89929	5815.4
976.64461	5789.6
980.38733	5838.4
984.12747	5817.7
987.86502	5832.6
991.59999	5870.4
995.33237	5921.4
999.06217	6009.4
1002.78939	6076.2
1006.51404	6188.4
1010.23611	6292.7
1013.95561	6347.8
1017.67255	6357.4
1021.38692	6329.4
1025.09872	6267.2
1028.80796	6193.1
1032.51465	6183.4
1036.21877	6182.6
1039.92035	6226.9
1043.61937	6263.7
1047.31584	6318.3
1051.00976	6367.3
1054.70114	6359.2
1058.38998	6347.2
1062.07627	6355
1065.76003	6390.6
1069.44126	6473.3
1073.11995	6544.1
1076.79611	6644.1
1080.46974	6823
1084.14085	6993.9
1087.80943	7106.1
1091.47549	7140.6
1095.13903	7062.9
1098.80005	6933.8
1102.45857	6835.8
1106.11456	6808.3
1109.76805	6754.1
1113.41903	6870
1117.06751	7045.1
1120.71348	7293.6
1124.35696	7681.8
1127.99793	7957.1
1131.63641	7792.2
1135.2724	7400.5
1138.90589	7107.2
1142.5369	6914.2
1146.16542	6785.6
1149.79145	6674.2
1153.415	6637.9
1157.03607	6661.7
1160.65467	6741.6
1164.27079	6961.4
1167.88443	7213.2
1171.49561	7644.3
1175.10432	8239.5
1178.71056	9147.6
1182.31434	9950.2
1185.91565	10201.8
1189.51451	10048.3
1193.11091	9786.2
1196.70485	9548.5
1200.29634	9301.9
1203.88538	9008.1
1207.47197	8575.8
1211.05612	8094
1214.63782	7692.7
1218.21708	7451.4
1221.79391	7274.6
1225.36829	7217
1228.94024	7202.6
1232.50976	7234.5
1236.07685	7257.2
1239.6415	7260.3
1243.20374	7282
1246.76355	7332.7
1250.32093	7401.5
1253.8759	7450.3
1257.42845	7652
1260.97859	7846.6
1264.52631	8065.3
1268.07163	8235.5
1271.61453	8373.3
1275.15503	8416.1
1278.69312	8423.2
1282.22882	8471.1
1285.76211	8663.7
1289.29301	8891
1292.82151	9183
1296.34761	9398.7
1299.87133	9800.8
1303.39266	10502.1
1306.9116	11616
1310.42815	12849.7
1313.94233	13302.2
1317.45412	12525.1
1320.96354	11389.1
1324.47058	10402.7
1327.97525	9641.5
1331.47754	9229.9
1334.97747	9142.8
1338.47502	9218
1341.97022	9601.4
1345.46305	10315.7
1348.95352	11407.8
1352.44163	12700
1355.92738	14082.1
1359.41078	15730.2
1362.89183	17241
1366.37053	16649.2
1369.84688	13820.3
1373.32088	11126.4
1376.79254	9697.8
1380.26186	9022.7
1383.72883	8596.9
1387.19347	8185.2
1390.65578	7840.5
1394.11575	7603.1
1397.57339	7427.8
1401.0287	7327.8
1404.48168	7278.7
1407.93234	7302.6
1411.38068	7321.5
1414.82669	7394.5
1418.27039	7469.6
1421.71177	7476.7
1425.15083	7371.3
1428.58758	7282.5
1432.02203	7312.2
1435.45416	7398.1
1438.88399	7390.9
1442.31151	7392.6
1445.73673	7445.8
1449.15965	7502.7
1452.58027	7509
1455.9986	7511.5
1459.41463	7508.3
1462.82837	7617.2
1466.23982	7799
1469.64898	8019.6
1473.05586	8163.6
1476.46045	8263.4
1479.86276	8322.6
1483.26279	8440.7
1486.66054	8626.7
1490.05602	8925.7
1493.44922	9478.5
1496.84016	10359.5
1500.22882	11711
1503.61521	13437.1
1506.99934	15250
1510.38121	16421.4
1513.76081	16276.2
1517.13816	14703
1520.51324	12583.8
1523.88607	10860.4
1527.25665	9926
1530.62498	9399.5
1533.99105	9200.2
1537.35488	9088.1
1540.71647	8974.5
1544.07581	8836.7
1547.4329	8720.1
1550.78776	8585.9
1554.14038	8482.4
1557.49077	8449.8
1560.83892	8566
1564.18484	8776.2
1567.52853	9118.7
1570.86999	9441.6
1574.20922	9629.4
1577.54624	9498.9
1580.88103	8966.2
1584.2136	8290.7
1587.54395	7922.1
1590.87208	7832.5
1594.19801	8004.7
1597.52172	8331.7
1600.84321	8499.8
1604.16251	8342.3
1607.47959	8142.7
1610.79447	7960.6
1614.10715	7680.8
1617.41763	7387.3
1620.7259	7137
1624.03199	6954.6
1627.33587	6910
1630.63757	6959.2
1633.93707	7175.8
1637.23439	7571.9
1640.52951	8270.8
1643.82246	9232.3
1647.11321	10407.2
1650.40179	11107
1653.68819	10808.8
1656.97241	9550.3
1660.25446	8171
1663.53433	7172.6
1666.81203	6593.7
1670.08756	6245.9
1673.36092	6077.2
1676.63211	5930.1
1679.90115	5836.3
1683.16801	5747
1686.43272	5679.8
1689.69527	5629.6
1692.95567	5560.5
1696.2139	5551.4
1699.46999	5510.8
1702.72392	5500.3
1705.97571	5499.4
1709.22535	5491.1
1712.47284	5524.9
1715.71819	5530.5
1718.96139	5536.1
1722.20246	5510.7
1725.44139	5480.4
1728.67818	5454.3
1731.91284	5402.6
1735.14537	5381.9
1738.37576	5345.9
1741.60403	5328.3
1744.83017	5285.8
1748.05418	5311.2
1751.27607	5294.6
1754.49584	5268.3
1757.71349	5220.8
1760.92903	5234.6
1764.14244	5177.5
1767.35375	5193.8
1770.56294	5174.5
1773.77002	5159.3
1776.97499	5170.2
1780.17785	5153.3
1783.37861	5139.1
1786.57727	5152.8
1789.77382	5089.2
1792.96828	5107.2
1796.16064	5113.8
1799.3509	5107
1802.53907	5108.8
1805.72514	5081.8
1808.90913	5053.1
1812.09102	5056
1815.27083	5040.3
1818.44856	5027.7
1821.6242	5026.2
1824.79776	4999.4
1827.96924	4985.8
1831.13864	4966.2
1834.30597	4987
1837.47122	4951.6
1840.6344	4949
1843.7955	4931.2
1846.95454	4921.5
1850.11151	4942.9
1853.26642	4915.3
1856.41926	4917.1
1859.57004	4917.5
1862.71876	4902.3
1865.86542	4910.6
1869.01003	4899.9
1872.15258	4878.1
1875.29308	4897.5
1878.43152	4885.4
1881.56792	4872.4
1884.70227	4844.9
1887.83457	4865
1890.96482	4840.7
1894.09304	4833.5
1897.21921	4832.9
1900.34335	4840.3
1903.46544	4814.1
1906.58551	4824.6
1909.70353	4821.4
1912.81953	4804.1
1915.93349	4798.6
1919.04543	4787.8
1922.15534	4766.1
1925.26322	4766.8
1928.36908	4748.3
1931.47292	4755.1
1934.57473	4761.8
1937.67453	4725.5
1940.77232	4715.8
1943.86808	4698.3
1946.96184	4692.3
1950.05358	4675.4
1953.14331	4647.7
1956.23103	4653.8
1959.31675	4617.5
1962.40046	4573.8
1965.48217	4605.2
1968.56188	4605
1971.63959	4575.7
1974.7153	4574.4
1977.78901	4558.6
1980.86073	4545.5
1983.93046	4506.6
1986.99819	4434.8
1990.06394	4443
1993.1277	4469
1996.18947	4449.9
1999.24925	4435.5
2002.30706	4406.4
2005.36288	4427
2008.41672	4388.9
2011.46859	4366.5
2014.51848	4354.1
2017.56639	4308.7
2020.61233	4309.4
2023.6563	4313.4
2026.6983	4260.2
2029.73833	4282.3
2032.7764	4301.8
2035.8125	4244.8
2038.84664	4239.9
2041.87881	4217
2044.90903	4246.8
2047.93729	4227.8
2050.96359	4202.5
2053.98794	4216.2
2057.01034	4194.3
2060.03078	4195.1
2063.04927	4182.4
2066.06582	4183.9
2069.08042	4176.6
2072.09307	4174.9
2075.10378	4159.8
2078.11255	4178.2
2081.11938	4183.5
2084.12426	4149.3
2087.12722	4147.4
2090.12824	4143.2
2093.12732	4153.9
2096.12447	4147.6
2099.11969	4142.3
2102.11299	4145.5
2105.10435	4170.2
2108.09379	4164.4
2111.08131	4147.4
2114.0669	4155.7
2117.05057	4151.5
2120.03233	4133.7
2123.01216	4157.2
2125.99008	4152.7
2128.96609	4157.1
2131.94018	4182.1
2134.91236	4163.7
2137.88263	4153
2140.851	4154.8
2143.81746	4174.6
2146.78201	4168.6
2149.74466	4147.1
2152.7054	4152.2
2155.66425	4151
2158.6212	4138.6
2161.57625	4116.1
2164.52941	4104.6
2167.48067	4120.7
2170.43004	4107.8
2173.37752	4124.5
2176.32311	4114.7
2179.26681	4110
2182.20863	4135
2185.14856	4124.5
2188.08661	4107.9
2191.02278	4127.5
2193.95707	4089.5
2196.88948	4093.3
2199.82001	4103.9
2202.74867	4083.3
2205.67545	4080.5
2208.60037	4100.8
2211.52341	4070.5
2214.44458	4062.9
2217.36388	4061.1
2220.28132	4038
2223.1969	4020.2
2226.11061	4017.5
2229.02246	4001.7
2231.93245	4014.2
2234.84058	3990.5
2237.74686	3969.7
2240.65128	3971.1
2243.55385	3980.2
2246.45456	3945.3
2249.35343	3963.6
2252.25044	3949.9
2255.14561	3967.5
2258.03893	3949.2
2260.93041	3943.5
2263.82004	3944.6
2266.70783	3939.3
2269.59378	3915.2
2272.4779	3893.4
2275.36017	3896.6
2278.24061	3877.8
2281.11922	3837.8
2283.996	3862.6
2286.87094	3851.2
2289.74405	3854.2
2292.61534	3858.5
2295.4848	3826.6
2298.35243	3833.9
2301.21824	3823
2304.08223	3809.8
2306.94439	3816.6
2309.80474	3823.7
2312.66327	3821.2
2315.51999	3793.5
2318.37489	3797.4
2321.22797	3781.9
2324.07925	3765.4
2326.92871	3769.5
2329.77637	3756.7
2332.62222	3750.6
2335.46626	3710.3
2338.3085	3723.7
2341.14893	3738.2
2343.98756	3735.7
2346.8244	3715.6
2349.65943	3714.5
2352.49267	3716.4
2355.32411	3735.5
2358.15376	3709.2
2360.98161	3721.1
2363.80768	3701.1
2366.63195	3708.2
2369.45444	3719.7
2372.27514	3709.9
2375.09405	3718.4
2377.91118	3687.8
2380.72652	3673.7
2383.54009	3680.6
2386.35187	3676
2389.16188	3657.7
2391.97011	3644.4
2394.77657	3629.3
2397.58125	3637
2400.38416	3647
2403.18529	3598
2405.98466	3592.8
2408.78226	3603.8
2411.57809	3597.5
2414.37216	3578.5
2417.16446	3593.6
2419.955	3543
2422.74378	3568.4
2425.5308	3546.2
2428.31606	3558.2
2431.09956	3569.1
2433.88131	3532.7
2436.6613	3544.9
2439.43954	3542.1
2442.21603	3526.1
2444.99077	3526.7
2447.76377	3525
2450.53501	3522.3
2453.30451	3508.8
2456.07226	3530.3
2458.83827	3504.5
2461.60254	3463.6
2464.36507	3503.7
2467.12586	3467.8
2469.88492	3499
2472.64224	3502.2
2475.39782	3462.4
2478.15167	3479.4
2480.90379	3482.9
2483.65417	3485.2
2486.40283	3475.5
2489.14976	3501.2
2491.89497	3476.1
2494.63845	3486.7
2497.3802	3478.6
2500.12024	3480.3
2502.85855	3455.1
2505.59514	3467.1
2508.33002	3457.4
2511.06318	3420.8
2513.79462	3440.3
2516.52435	3392.1
2519.25237	3369.8
2521.97867	3383.2
2524.70327	3380.7
2527.42616	3381.6
2530.14734	3387.7
2532.86681	3347.8
2535.58458	3361.8
2538.30065	3357.2
2541.01501	3381.3
2543.72768	3357.5
2546.43864	3368.1
2549.14791	3345.2
2551.85548	3320.9
2554.56136	3318.9
2557.26554	3317.5
2559.96803	3320.6
2562.66883	3316.5
2565.36794	3288.1
2568.06536	3268.1
2570.7611	3296.4
2573.45514	3274
2576.14751	3274.3
2578.83819	3243.1
2581.52719	3236.1
2584.21451	3249.7
2586.90015	3227.4
2589.58411	3220.3
2592.2664	3226.4
2594.94701	3226.4
2597.62594	3219.2
2600.30321	3162.9
2602.9788	3181.1
2605.65273	3169.7
2608.32498	3176.1
2610.99557	3190.7
2613.66449	3164.6
2616.33175	3181
2618.99734	3173
2621.66128	3167.1
2624.32355	3151.8
2626.98416	3138.1
2629.64311	3128.7
2632.30041	3135.6
2634.95605	3117.2
2637.61004	3096.5
2640.26238	3084.7
2642.91306	3092.2
2645.56209	3100.6
2648.20948	3100
2650.85521	3081.8
2653.4993	3124.3
2656.14175	3086.1
2658.78255	3083.8
2661.42171	3054
2664.05923	3099.9
2666.6951	3093.8
2669.32934	3108.7
2671.96194	3110.6
2674.59291	3089.3
2677.22224	3099.1
2679.84993	3105.2
2682.476	3075.8
2685.10043	3070.9
2687.72324	3070.6
2690.34441	3063.6
2692.96396	3060.3
2695.58188	3094.1
2698.19818	3076.9
2700.81285	3063
2703.4259	3050.6
2706.03733	3029.4
2708.64714	3027.1
2711.25533	3063.1
2713.86191	3067.7
2716.46687	3045.7
2719.07021	3060.1
2721.67194	3056.1
2724.27206	3074.7
2726.87057	3047.9
2729.46747	3031.4
2732.06276	3042.5
2734.65644	3027.1
2737.24852	3022.2
2739.83899	3007.3
2742.42786	3030.9
2745.01513	3026.2
2747.60079	3012.4
2750.18486	2976.1
2752.76733	3007.7
2755.3482	2993.3
2757.92747	2990.9
2760.50515	2977.6
2763.08123	2967.7
2765.65573	2972.7
2768.22863	2957.6
2770.79994	2938.6
2773.36967	2950.3
2775.9378	2941.4
2778.50435	2930.2
2781.06932	2939.5
2783.6327	2918.3
2786.1945	2945.1
2788.75471	2924.8
2791.31335	2921.9
2793.87041	2919.9
2796.42589	2890
2798.97979	2880.6
2801.53212	2893.9
2804.08288	2906.1
2806.63206	2887.7
2809.17967	2873.7
2811.72571	2893
2814.27018	2879
2816.81308	2858.4
2819.35442	2832.7
2821.89419	2856.2
2824.43239	2827.7
2826.96904	2859.6
2829.50412	2836.5
2832.03763	2836.9
2834.56959	2836.8
2837.1	2828.2
2839.62884	2823.7
2842.15613	2822.9
2844.68186	2826.4
2847.20604	2799.7
2849.72867	2789.8
2852.24974	2802.8
2854.76927	2773.7
2857.28724	2735.4
2859.80367	2795.3
2862.31855	2806
2864.83189	2775.1
2867.34368	2788.3
2869.85393	2801.9
2872.36264	2770.4
2874.8698	2769.4
2877.37543	2781.2
2879.87952	2777.2
2882.38207	2750.5
2884.88308	2749.1
2887.38256	2760.1
2889.88051	2752.6
2892.37692	2756
2894.8718	2733
2897.36515	2752.3
2899.85698	2738.4
2902.34727	2735.6
2904.83604	2750.6
2907.32328	2770.6
2909.809	2756.5
2912.29319	2753
2914.77587	2766
2917.25702	2769.4
2919.73665	2770.2
2922.21476	2768.9
2924.69136	2774.6
2927.16644	2756.8
2929.64	2754.2
2932.11205	2742.8
2934.58258	2737.2
2937.05161	2725.2
2939.51912	2732
2941.98513	2757
2944.44962	2728.3
2946.91261	2696.8
2949.37409	2708.2
2951.83407	2707
2954.29254	2697.2
2956.74951	2697.4
2959.20498	2692.4
2961.65895	2679.8
2964.11142	2675.3
2966.56239	2658.8
2969.01186	2677.7
2971.45984	2678.7
2973.90632	2664.2
2976.35131	2667.8
2978.7948	2662.8
2981.23681	2648.7
2983.67732	2647.3
2986.11635	2645.6
2988.55388	2613.5
2990.98993	2615.3
2993.4245	2605.4
2995.85758	2604.5
2998.28917	2586.7
3000.71928	2592.3
3003.14791	2578.5
3005.57506	2568.9
3008.00073	2550.1
3010.42493	2503.6
3012.84764	2554
3015.26888	2562.2
3017.68865	2543.9
3020.10694	2493.8
3022.52376	2512
3024.9391	2512.6
3027.35298	2508
3029.76539	2488.2
3032.17632	2492.1
3034.5858	2487.3
3036.9938	2495.4
3039.40034	2488.4
3041.80542	2476.1
3044.20903	2459.5
3046.61118	2454.8
3049.01187	2466.9
3051.4111	2447.3
3053.80888	2431.4
3056.20519	2429.5
3058.60005	2405.2
3060.99345	2437.3
3063.3854	2416.2
3065.7759	2403
3068.16494	2392.6
3070.55254	2380
3072.93868	2399.8
3075.32338	2392.6
3077.70662	2387.9
3080.08842	2358.4
3082.46878	2365.4
3084.84769	2378
3087.22515	2359.7
3089.60118	2358.7
3091.97576	2346.5
3094.3489	2353.3
3096.72061	2341
3099.09087	2337.4
3101.4597	2349.1
3103.82709	2348.7
3106.19305	2340
3108.55757	2327
3110.92066	2320.9
3113.28232	2324.2
3115.64255	2324.6
3118.00134	2327.3
3120.35871	2289.6
3122.71466	2280.7
3125.06917	2284.8
3127.42226	2277.8
3129.77393	2255.8
3132.12417	2269.8
3134.47299	2276.3
3136.82039	2255.6
3139.16636	2243.4
3141.51092	2263.8
3143.85406	2251.9
3146.19579	2246.1
3148.53609	2233.8
3150.87499	2239.6
3153.21246	2245.7
3155.54853	2251.6
3157.88318	2258.7
3160.21642	2252.7
3162.54826	2248.7
3164.87868	2235.1
3167.2077	2205.9
3169.5353	2225.2
3171.86151	2237.6
3174.18631	2214.8
3176.5097	2222.8
3178.83169	2222.2
3181.15228	2216.8
3183.47147	2211.3
3185.78926	2180.8
3188.10565	2195.2
3190.42065	2177.9
3192.73424	2183.6
3195.04645	2169.5
3197.35725	2162.7
3199.66667	2172.5
3201.97469	2160.6
3204.28132	2169.1
3206.58656	2161
3208.8904	2175.5
3211.19287	2152.1
3213.49394	2159.8
3215.79363	2148.2
3218.09193	2164.9
3220.38884	2154.9
3222.68438	2143.6
3224.97853	2131.3
3227.2713	2156.5
3229.56269	2138.6
3231.8527	2139.5
3234.14133	2131
3236.42858	2123.2
3238.71446	2094.4
3240.99896	2117.9
3243.28209	2093.2
3245.56384	2114.9
3247.84423	2094.9
3250.12324	2100.4
3252.40088	2100.4
3254.67715	2079.1
3256.95205	2072.5
3259.22558	2091.6
3261.49775	2087.1
3263.76855	2068.2
3266.03799	2083.4
3268.30606	2087.8
3270.57277	2080.5
3272.83812	2067.7
3275.10211	2064
3277.36474	2068.4
3279.62601	2069.9
3281.88593	2051.2
3284.14448	2012.9
3286.40168	2035.7
3288.65753	2034.4
3290.91202	2035.9
3293.16516	2010.3
3295.41695	2034.7
3297.66738	2033.8
3299.91647	2006.8
3302.16421	2015.9
3304.4106	1975.1
3306.65564	1993.2
3308.89933	1946.9
3311.14169	1950.6
3313.38269	1937.1
3315.62236	1924.9
3317.86068	1902
3320.09766	1907.3
3322.3333	1868.3
3324.5676	1863.6
3326.80056	1842.8
3329.03219	1829.9
3331.26248	0.4
3333.49143	-0.9
3335.71905	0.2
