Data from AgNPs_UA_20uM_CRN_500uM_SU_RamanShift__32__13-41-50-297.txt Node

Date: Thu Aug 04 13:41:50 BST 2022
User: TCL
Spectrometer: QEP01345
Trigger mode: 4
Integration Time (sec): 1.000000E0
Scans to average: 10
Electric dark correction enabled: true
Nonlinearity correction enabled: false
Boxcar width: 0
XAxis mode: Raman Shifts
Number of Pixels in Spectrum: 1044
>>>>>Begin Spectral Data<<<<<
46.04893	-1.3
50.45542	-0.9
54.85868	0.1
59.25871	0.1
63.6555	15.7
68.04907	14.3
72.43941	17.8
76.82654	17.5
81.21044	16.9
85.59113	18.6
89.96862	20.1
94.34289	19.1
98.71396	21.3
103.08183	22.6
107.4465	20.7
111.80798	24.5
116.16626	23.8
120.52136	24.9
124.87327	25.7
129.222	29.5
133.56755	27.4
137.90993	30
142.24913	34.3
146.58517	38.5
150.91804	44.5
155.24774	55.6
159.57429	69.5
163.89768	91.8
168.21792	119.1
172.53501	164.7
176.84895	227.7
181.15975	325.3
185.46741	463.5
189.77193	643.7
194.07331	873
198.37157	1122.5
202.6667	1384.6
206.9587	1646.2
211.24758	1925.4
215.53334	2191.8
219.81599	2475.1
224.09553	2807
228.37195	3165
232.64527	3562.4
236.91549	3940.1
241.18261	4311.2
245.44663	4620.2
249.70755	4857.6
253.96539	5072.4
258.22014	5223.5
262.4718	5385.1
266.72039	5493.2
270.96589	5511.2
275.20832	5488.1
279.44768	5429.4
283.68397	5318.3
287.91719	5267.6
292.14735	5242.1
296.37445	5320.5
300.59849	5447.8
304.81948	5611
309.03742	5789.7
313.25231	5858.8
317.46415	5830.4
321.67296	5636
325.87872	5445.6
330.08145	5335.9
334.28114	5347.3
338.47781	5415
342.67145	5529.7
346.86207	5660.5
351.04966	5844.1
355.23424	6072.4
359.4158	6213.6
363.59435	6297
367.76989	6321.8
371.94243	6296.7
376.11196	6295
380.27849	6295.5
384.44203	6301.3
388.60257	6323.3
392.76012	6372.8
396.91468	6473.9
401.06626	6543
405.21485	6583.9
409.36047	6512.9
413.50311	6361.6
417.64277	6185.1
421.77947	6100.8
425.9132	6064
430.04396	6048.9
434.17176	6118
438.2966	6183
442.41849	6261.9
446.53742	6392.3
450.6534	6510.2
454.76644	6563.7
458.87653	6584.3
462.98368	6585.1
467.08789	6554
471.18916	6502.3
475.2875	6412.8
479.38291	6315.4
483.4754	6247
487.56496	6210
491.6516	6200.6
495.73531	6203.1
499.81612	6222.4
503.89401	6264.6
507.96899	6306.4
512.04106	6382.3
516.11023	6420.3
520.1765	6461.2
524.23987	6475.5
528.30034	6481.3
532.35792	6452.3
536.41261	6422.6
540.46441	6340.6
544.51333	6338.5
548.55936	6380.1
552.60252	6455.2
556.64279	6524.5
560.6802	6597.5
564.71473	6664.8
568.7464	6719.5
572.7752	6726.4
576.80114	6611.7
580.82422	6497.6
584.84444	6457.6
588.86181	6485.6
592.87633	6536.4
596.888	6641.6
600.89682	6884
604.9028	7503.2
608.90594	8788.9
612.90624	10085.3
616.90371	9431.9
620.89834	7628.7
624.89015	6850.3
628.87913	6751.1
632.86528	6895.2
636.84862	6985.9
640.82913	6901.5
644.80683	6724.9
648.78172	6600.4
652.75379	6607.9
656.72306	6735.3
660.68952	6899.2
664.65319	6873
668.61405	6770.5
672.57211	6772
676.52738	6794.3
680.47986	6703.9
684.42955	6637.5
688.37646	6586.3
692.32058	6636.4
696.26192	6716.6
700.20048	6828.2
704.13626	6842
708.06928	6818.9
711.99952	6778.3
715.927	6775.9
719.85171	6811.7
723.77365	6826.1
727.69284	6820
731.60928	6750.2
735.52295	6756.9
739.43388	6762
743.34206	6787.6
747.24749	6805.7
751.15017	6822.1
755.05012	6891.9
758.94733	7088.3
762.8418	7580.7
766.73354	8331.8
770.62254	8922.2
774.50882	9044
778.39237	8748.3
782.27321	8208.3
786.15132	7603.3
790.02671	7192.9
793.89938	6976.9
797.76935	6873.8
801.6366	6840.8
805.50115	6821.1
809.36299	6778.2
813.22213	6791.5
817.07857	6798.5
820.93231	6803.4
824.78336	6817.4
828.63172	6832
832.47738	6838.5
836.32036	6848.7
840.16066	6815.7
843.99827	6825.3
847.8332	6818.1
851.66546	6850.1
855.49504	6865.7
859.32195	6872.8
863.1462	6863.4
866.96777	6869.9
870.78668	6882.9
874.60293	6912.7
878.41652	6925.5
882.22745	6999.4
886.03573	6996.4
889.84136	6991.4
893.64433	6971.6
897.44466	6993.6
901.24235	6966.3
905.0374	6949.9
908.8298	6913.9
912.61957	6897.7
916.40671	6907.1
920.19121	6916.1
923.97308	6972.6
927.75233	7019
931.52895	7053.6
935.30295	7023.9
939.07433	6925.2
942.84309	6856.3
946.60924	6826.6
950.37278	6824.3
954.13371	6829.8
957.89203	6838
961.64774	6825.6
965.40086	6804.9
969.15137	6820.9
972.89929	6816.1
976.64461	6812.5
980.38733	6821.7
984.12747	6850.6
987.86502	6858.4
991.59999	6905.9
995.33237	6921.8
999.06217	6992.1
1002.78939	7064.5
1006.51404	7188.7
1010.23611	7298.1
1013.95561	7322.6
1017.67255	7328.7
1021.38692	7302.8
1025.09872	7232.3
1028.80796	7170.7
1032.51465	7166.8
1036.21877	7145.2
1039.92035	7156.5
1043.61937	7204.4
1047.31584	7210.7
1051.00976	7247.8
1054.70114	7246.1
1058.38998	7260.6
1062.07627	7281.3
1065.76003	7354.9
1069.44126	7409.3
1073.11995	7556.1
1076.79611	7678.1
1080.46974	7756.2
1084.14085	7833.5
1087.80943	7920.5
1091.47549	7967.9
1095.13903	7976.2
1098.80005	7919.9
1102.45857	7846.4
1106.11456	7787.9
1109.76805	7711.3
1113.41903	7735.1
1117.06751	7785.2
1120.71348	7887.9
1124.35696	8087.5
1127.99793	8201.9
1131.63641	8112.3
1135.2724	7907.8
1138.90589	7757
1142.5369	7670.3
1146.16542	7652.3
1149.79145	7617.3
1153.415	7536.1
1157.03607	7498.3
1160.65467	7521.6
1164.27079	7637.7
1167.88443	7816.4
1171.49561	8084.2
1175.10432	8525.8
1178.71056	9119.2
1182.31434	9621.9
1185.91565	9767.6
1189.51451	9725.3
1193.11091	9579.9
1196.70485	9393.3
1200.29634	9234.3
1203.88538	9033.3
1207.47197	8811.4
1211.05612	8532.2
1214.63782	8324
1218.21708	8178.5
1221.79391	8043.9
1225.36829	7984.6
1228.94024	7954.2
1232.50976	7943.4
1236.07685	7968.1
1239.6415	7992
1243.20374	8025.6
1246.76355	8062.7
1250.32093	8151.1
1253.8759	8242.2
1257.42845	8432.2
1260.97859	8631.2
1264.52631	8797.4
1268.07163	8881.6
1271.61453	8955.8
1275.15503	8984.8
1278.69312	8996.2
1282.22882	9004.3
1285.76211	9019.5
1289.29301	9168.3
1292.82151	9307.5
1296.34761	9480.6
1299.87133	9709.7
1303.39266	10112
1306.9116	10750.6
1310.42815	11379.5
1313.94233	11584.3
1317.45412	11222.5
1320.96354	10705.8
1324.47058	10190.6
1327.97525	9755.5
1331.47754	9505.3
1334.97747	9442.1
1338.47502	9563.1
1341.97022	9840.4
1345.46305	10295.3
1348.95352	10952
1352.44163	11698.1
1355.92738	12377.7
1359.41078	13279.9
1362.89183	13992.3
1366.37053	13515.6
1369.84688	11921.9
1373.32088	10385.1
1376.79254	9531.8
1380.26186	9151.8
1383.72883	8879.2
1387.19347	8666.1
1390.65578	8454.9
1394.11575	8273
1397.57339	8121.4
1401.0287	8047.7
1404.48168	7991.1
1407.93234	7987.4
1411.38068	8063.5
1414.82669	8104.3
1418.27039	8130.4
1421.71177	8108.4
1425.15083	8054.9
1428.58758	8000.1
1432.02203	8009.7
1435.45416	8064.8
1438.88399	8130.1
1442.31151	8145.4
1445.73673	8172.6
1449.15965	8197.1
1452.58027	8163.5
1455.9986	8146.9
1459.41463	8175.5
1462.82837	8218.7
1466.23982	8319.7
1469.64898	8469.5
1473.05586	8624
1476.46045	8666.1
1479.86276	8711.1
1483.26279	8798.9
1486.66054	8935.8
1490.05602	9133.9
1493.44922	9450.3
1496.84016	9962.5
1500.22882	10711.1
1503.61521	11689.8
1506.99934	12580.9
1510.38121	13035.9
1513.76081	12820.4
1517.13816	11950.9
1520.51324	10865.8
1523.88607	10015.9
1527.25665	9501.7
1530.62498	9243.6
1533.99105	9109.5
1537.35488	9077.5
1540.71647	9014.9
1544.07581	8954.2
1547.4329	8875.9
1550.78776	8818.7
1554.14038	8724.1
1557.49077	8683.6
1560.83892	8758.6
1564.18484	8886.2
1567.52853	9102.2
1570.86999	9285.4
1574.20922	9338.2
1577.54624	9258.7
1580.88103	8915.2
1584.2136	8558.8
1587.54395	8338.3
1590.87208	8325.5
1594.19801	8500.5
1597.52172	8773.3
1600.84321	8943.5
1604.16251	8903.1
1607.47959	8761.9
1610.79447	8549
1614.10715	8229.2
1617.41763	7925.7
1620.7259	7696.5
1624.03199	7568.2
1627.33587	7525.6
1630.63757	7597.4
1633.93707	7732.5
1637.23439	8036.9
1640.52951	8540.1
1643.82246	9219.6
1647.11321	9972.1
1650.40179	10329.8
1653.68819	10017.8
1656.97241	9181.8
1660.25446	8271.5
1663.53433	7664.9
1666.81203	7299.2
1670.08756	7072.1
1673.36092	6938.7
1676.63211	6854.9
1679.90115	6770.9
1683.16801	6729.3
1686.43272	6692.4
1689.69527	6644.9
1692.95567	6640.6
1696.2139	6613.4
1699.46999	6580.9
1702.72392	6583.6
1705.97571	6585.5
1709.22535	6584.6
1712.47284	6575.6
1715.71819	6544.5
1718.96139	6553
1722.20246	6538.1
1725.44139	6525.8
1728.67818	6504.1
1731.91284	6493.5
1735.14537	6451.3
1738.37576	6430.7
1741.60403	6420.5
1744.83017	6407.6
1748.05418	6400
1751.27607	6387.5
1754.49584	6356.8
1757.71349	6351.6
1760.92903	6336.9
1764.14244	6332.2
1767.35375	6333.5
1770.56294	6324.7
1773.77002	6333.7
1776.97499	6300.5
1780.17785	6297.8
1783.37861	6266.3
1786.57727	6250.1
1789.77382	6263.4
1792.96828	6250.7
1796.16064	6226.5
1799.3509	6207.8
1802.53907	6200.5
1805.72514	6188.1
1808.90913	6184.7
1812.09102	6186.5
1815.27083	6155
1818.44856	6162.5
1821.6242	6123.5
1824.79776	6132.8
1827.96924	6130.1
1831.13864	6108
1834.30597	6114.7
1837.47122	6105.7
1840.6344	6087.6
1843.7955	6081.1
1846.95454	6070.1
1850.11151	6067.8
1853.26642	6061.2
1856.41926	6052.7
1859.57004	6036.3
1862.71876	6036.5
1865.86542	6046.2
1869.01003	6038.9
1872.15258	6023.4
1875.29308	6008.5
1878.43152	6021.4
1881.56792	6002.7
1884.70227	6007.5
1887.83457	6004
1890.96482	5985.8
1894.09304	5979.3
1897.21921	5976
1900.34335	5946.5
1903.46544	5956.9
1906.58551	5967.4
1909.70353	5954.3
1912.81953	5940.6
1915.93349	5952.7
1919.04543	5911.3
1922.15534	5914.4
1925.26322	5894.2
1928.36908	5885.3
1931.47292	5864.8
1934.57473	5856.9
1937.67453	5848.2
1940.77232	5840.3
1943.86808	5832.8
1946.96184	5799.1
1950.05358	5804.7
1953.14331	5766.9
1956.23103	5748.3
1959.31675	5733.2
1962.40046	5702.7
1965.48217	5697
1968.56188	5678.1
1971.63959	5664
1974.7153	5666.6
1977.78901	5635.5
1980.86073	5634
1983.93046	5613.3
1986.99819	5597.8
1990.06394	5578.6
1993.1277	5556
1996.18947	5553.2
1999.24925	5548.9
2002.30706	5505.3
2005.36288	5478.2
2008.41672	5477.2
2011.46859	5462.7
2014.51848	5433.9
2017.56639	5416.1
2020.61233	5407.1
2023.6563	5399.2
2026.6983	5390.4
2029.73833	5362.1
2032.7764	5362
2035.8125	5323.5
2038.84664	5331.9
2041.87881	5330.7
2044.90903	5318.7
2047.93729	5307.1
2050.96359	5294
2053.98794	5279.4
2057.01034	5276.4
2060.03078	5280.1
2063.04927	5249.5
2066.06582	5260.7
2069.08042	5256.7
2072.09307	5265.6
2075.10378	5238.7
2078.11255	5246.8
2081.11938	5227.2
2084.12426	5239.9
2087.12722	5225.3
2090.12824	5230.1
2093.12732	5233.9
2096.12447	5257.3
2099.11969	5227.7
2102.11299	5242.5
2105.10435	5245.7
2108.09379	5230.6
2111.08131	5239.8
2114.0669	5227.4
2117.05057	5265.1
2120.03233	5226.4
2123.01216	5231.3
2125.99008	5247.7
2128.96609	5258.5
2131.94018	5278.5
2134.91236	5269.2
2137.88263	5264.6
2140.851	5266
2143.81746	5261
2146.78201	5278
2149.74466	5255.5
2152.7054	5260.9
2155.66425	5262.8
2158.6212	5269.3
2161.57625	5281.9
2164.52941	5265
2167.48067	5263.7
2170.43004	5241.4
2173.37752	5241.3
2176.32311	5247.9
2179.26681	5243.1
2182.20863	5235.8
2185.14856	5233.2
2188.08661	5240.6
2191.02278	5225.8
2193.95707	5222.7
2196.88948	5230.9
2199.82001	5228.5
2202.74867	5228.3
2205.67545	5216
2208.60037	5200.6
2211.52341	5188.4
2214.44458	5173.2
2217.36388	5157.6
2220.28132	5150.5
2223.1969	5138.2
2226.11061	5119.1
2229.02246	5112.9
2231.93245	5115.5
2234.84058	5114.7
2237.74686	5087.7
2240.65128	5088.8
2243.55385	5085
2246.45456	5093.4
2249.35343	5078.3
2252.25044	5058.4
2255.14561	5061.2
2258.03893	5066.3
2260.93041	5061.1
2263.82004	5044
2266.70783	5017.3
2269.59378	5013.3
2272.4779	5000.5
2275.36017	4987.1
2278.24061	4967
2281.11922	4951
2283.996	4942.3
2286.87094	4930
2289.74405	4944.7
2292.61534	4940.3
2295.4848	4913.8
2298.35243	4933.9
2301.21824	4912.5
2304.08223	4907.3
2306.94439	4905.5
2309.80474	4907.8
2312.66327	4888.4
2315.51999	4873.9
2318.37489	4867.2
2321.22797	4880.8
2324.07925	4867.6
2326.92871	4840.7
2329.77637	4843.8
2332.62222	4846.3
2335.46626	4821.1
2338.3085	4815.6
2341.14893	4813.1
2343.98756	4813.9
2346.8244	4803.9
2349.65943	4809.3
2352.49267	4803.3
2355.32411	4802.6
2358.15376	4795.3
2360.98161	4786.7
2363.80768	4797.5
2366.63195	4780.9
2369.45444	4791.8
2372.27514	4772.3
2375.09405	4770
2377.91118	4766.2
2380.72652	4775.9
2383.54009	4741.8
2386.35187	4726.2
2389.16188	4714.3
2391.97011	4709.5
2394.77657	4701.9
2397.58125	4677.5
2400.38416	4682.6
2403.18529	4672.1
2405.98466	4669.7
2408.78226	4652.6
2411.57809	4643.1
2414.37216	4650.9
2417.16446	4645.3
2419.955	4630.7
2422.74378	4644.6
2425.5308	4617.9
2428.31606	4614.1
2431.09956	4615.6
2433.88131	4621.9
2436.6613	4615.6
2439.43954	4606.3
2442.21603	4601.1
2444.99077	4598.6
2447.76377	4593.8
2450.53501	4594.4
2453.30451	4590
2456.07226	4576.8
2458.83827	4566.6
2461.60254	4549.6
2464.36507	4556.9
2467.12586	4556.4
2469.88492	4543.3
2472.64224	4546.1
2475.39782	4543.9
2478.15167	4552.9
2480.90379	4526.2
2483.65417	4526.3
2486.40283	4545.8
2489.14976	4527.3
2491.89497	4527.4
2494.63845	4512.1
2497.3802	4536.9
2500.12024	4526.3
2502.85855	4500.2
2505.59514	4500.8
2508.33002	4478.5
2511.06318	4471.9
2513.79462	4458.9
2516.52435	4457.7
2519.25237	4450.7
2521.97867	4445.1
2524.70327	4450.9
2527.42616	4436.7
2530.14734	4428.9
2532.86681	4423
2535.58458	4409.7
2538.30065	4425.3
2541.01501	4390.7
2543.72768	4406
2546.43864	4395.5
2549.14791	4396
2551.85548	4392.3
2554.56136	4388.4
2557.26554	4388.3
2559.96803	4363.5
2562.66883	4348.4
2565.36794	4344.3
2568.06536	4329.5
2570.7611	4302.1
2573.45514	4303
2576.14751	4303.7
2578.83819	4284
2581.52719	4276.6
2584.21451	4275.5
2586.90015	4262.5
2589.58411	4259.5
2592.2664	4238.8
2594.94701	4244
2597.62594	4225.9
2600.30321	4228.5
2602.9788	4226.8
2605.65273	4218.1
2608.32498	4203.7
2610.99557	4200.3
2613.66449	4185.8
2616.33175	4198.8
2618.99734	4176.5
2621.66128	4151.9
2624.32355	4163.7
2626.98416	4168.2
2629.64311	4149.1
2632.30041	4132.1
2634.95605	4140.3
2637.61004	4129.8
2640.26238	4120.2
2642.91306	4124.1
2645.56209	4107.6
2648.20948	4100
2650.85521	4101.3
2653.4993	4119.5
2656.14175	4105.7
2658.78255	4096.6
2661.42171	4104.1
2664.05923	4107.4
2666.6951	4108.7
2669.32934	4114.2
2671.96194	4110.6
2674.59291	4106.9
2677.22224	4094.2
2679.84993	4099.2
2682.476	4099.7
2685.10043	4091.7
2687.72324	4079.2
2690.34441	4085.2
2692.96396	4080.6
2695.58188	4095.8
2698.19818	4065.9
2700.81285	4074.8
2703.4259	4080
2706.03733	4076.9
2708.64714	4059.7
2711.25533	4059.8
2713.86191	4061.4
2716.46687	4060.6
2719.07021	4054.2
2721.67194	4071.1
2724.27206	4081.2
2726.87057	4074.3
2729.46747	4061.4
2732.06276	4067.9
2734.65644	4052.3
2737.24852	4045
2739.83899	4051.4
2742.42786	4052.1
2745.01513	4038.5
2747.60079	4046.1
2750.18486	4023.2
2752.76733	4021.7
2755.3482	4027.6
2757.92747	4001.3
2760.50515	3983.5
2763.08123	3992
2765.65573	3989
2768.22863	3971.1
2770.79994	3953.2
2773.36967	3966
2775.9378	3966.7
2778.50435	3952.1
2781.06932	3929.9
2783.6327	3922.3
2786.1945	3929.2
2788.75471	3917.3
2791.31335	3913.1
2793.87041	3905.1
2796.42589	3904.3
2798.97979	3904.9
2801.53212	3887.4
2804.08288	3874.7
2806.63206	3881.2
2809.17967	3873.3
2811.72571	3863.9
2814.27018	3863.9
2816.81308	3851
2819.35442	3822.4
2821.89419	3825.3
2824.43239	3800.5
2826.96904	3798.4
2829.50412	3807.8
2832.03763	3798.6
2834.56959	3791.5
2837.1	3779.3
2839.62884	3770.2
2842.15613	3765.3
2844.68186	3781.1
2847.20604	3773.5
2849.72867	3749.5
2852.24974	3744.7
2854.76927	3729
2857.28724	3723.1
2859.80367	3712.8
2862.31855	3714.8
2864.83189	3699.4
2867.34368	3708.1
2869.85393	3713
2872.36264	3705.8
2874.8698	3693.3
2877.37543	3695.4
2879.87952	3685.3
2882.38207	3689.1
2884.88308	3691.1
2887.38256	3683.3
2889.88051	3681.3
2892.37692	3684.3
2894.8718	3656
2897.36515	3669.7
2899.85698	3661.8
2902.34727	3670.3
2904.83604	3672.4
2907.32328	3670.3
2909.809	3671
2912.29319	3661.3
2914.77587	3672
2917.25702	3659.8
2919.73665	3652.1
2922.21476	3679.7
2924.69136	3661.5
2927.16644	3661
2929.64	3649.6
2932.11205	3639.6
2934.58258	3624.6
2937.05161	3634.7
2939.51912	3623.7
2941.98513	3642
2944.44962	3607.9
2946.91261	3606.2
2949.37409	3612.9
2951.83407	3621.6
2954.29254	3608.5
2956.74951	3602.2
2959.20498	3609.2
2961.65895	3586.8
2964.11142	3595.3
2966.56239	3581
2969.01186	3594.7
2971.45984	3591.6
2973.90632	3588.3
2976.35131	3574.4
2978.7948	3568.3
2981.23681	3565
2983.67732	3564.3
2986.11635	3559.6
2988.55388	3545.9
2990.98993	3530
2993.4245	3544.7
2995.85758	3529.5
2998.28917	3524.3
3000.71928	3498.9
3003.14791	3501.5
3005.57506	3492.9
3008.00073	3478.1
3010.42493	3471.7
3012.84764	3451.4
3015.26888	3454.6
3017.68865	3440.2
3020.10694	3447.4
3022.52376	3438.2
3024.9391	3414.3
3027.35298	3424.9
3029.76539	3404.2
3032.17632	3415.8
3034.5858	3404.2
3036.9938	3398.4
3039.40034	3394.3
3041.80542	3380.4
3044.20903	3372.8
3046.61118	3369.8
3049.01187	3339.8
3051.4111	3349.2
3053.80888	3357.9
3056.20519	3346.6
3058.60005	3335.5
3060.99345	3330.2
3063.3854	3325.3
3065.7759	3312.5
3068.16494	3321.8
3070.55254	3300.2
3072.93868	3294.7
3075.32338	3280.5
3077.70662	3278.2
3080.08842	3253.7
3082.46878	3240.7
3084.84769	3240.6
3087.22515	3237.8
3089.60118	3236.1
3091.97576	3234.8
3094.3489	3242.2
3096.72061	3233.6
3099.09087	3228.2
3101.4597	3221.7
3103.82709	3224.6
3106.19305	3215.5
3108.55757	3212.9
3110.92066	3212.6
3113.28232	3203.6
3115.64255	3195.5
3118.00134	3174.1
3120.35871	3177
3122.71466	3173.8
3125.06917	3178.4
3127.42226	3169.5
3129.77393	3162
3132.12417	3155.3
3134.47299	3147.7
3136.82039	3132.7
3139.16636	3135.9
3141.51092	3136.7
3143.85406	3134.5
3146.19579	3133
3148.53609	3130.3
3150.87499	3127.9
3153.21246	3116.9
3155.54853	3134.2
3157.88318	3132.5
3160.21642	3132.2
3162.54826	3122
3164.87868	3116.3
3167.2077	3115.4
3169.5353	3113.4
3171.86151	3119.1
3174.18631	3098.6
3176.5097	3106
3178.83169	3089.7
3181.15228	3087.1
3183.47147	3079.6
3185.78926	3088.6
3188.10565	3066.7
3190.42065	3064.5
3192.73424	3044.6
3195.04645	3052.6
3197.35725	3049.8
3199.66667	3042.6
3201.97469	3038.1
3204.28132	3026
3206.58656	3032.1
3208.8904	3036.3
3211.19287	3039.6
3213.49394	3044.8
3215.79363	3038
3218.09193	3043.2
3220.38884	3034.5
3222.68438	3024.9
3224.97853	3032.9
3227.2713	3024.9
3229.56269	3023.5
3231.8527	3012.3
3234.14133	3003.2
3236.42858	2996.4
3238.71446	2993.2
3240.99896	2988
3243.28209	2971.5
3245.56384	2966.6
3247.84423	2968.2
3250.12324	2957.5
3252.40088	2940.8
3254.67715	2953
3256.95205	2943.5
3259.22558	2938.2
3261.49775	2944.1
3263.76855	2967.6
3266.03799	2947.5
3268.30606	2941.8
3270.57277	2942.2
3272.83812	2937.2
3275.10211	2921
3277.36474	2920
3279.62601	2909.3
3281.88593	2905.1
3284.14448	2902.2
3286.40168	2898.5
3288.65753	2895.2
3290.91202	2878.5
3293.16516	2871.3
3295.41695	2872.1
3297.66738	2851.3
3299.91647	2845.6
3302.16421	2827.6
3304.4106	2816.3
3306.65564	2786.4
3308.89933	2783.3
3311.14169	2746.3
3313.38269	2723.7
3315.62236	2705.1
3317.86068	2677.5
3320.09766	2655.9
3322.3333	2636.2
3324.5676	2622.4
3326.80056	2584.5
3329.03219	2567
3331.26248	2.5
3333.49143	-0.2
3335.71905	-1
