Data from AgNPs_UA_50uM_CRN_500uM_SU_RamanShift__21__13-59-20-318.txt Node

Date: Thu Aug 04 13:59:20 BST 2022
User: TCL
Spectrometer: QEP01345
Trigger mode: 4
Integration Time (sec): 1.000000E0
Scans to average: 10
Electric dark correction enabled: true
Nonlinearity correction enabled: false
Boxcar width: 0
XAxis mode: Raman Shifts
Number of Pixels in Spectrum: 1044
>>>>>Begin Spectral Data<<<<<
46.04893	1.3
50.45542	-1.2
54.85868	-0.2
59.25871	-0.5
63.6555	12.6
68.04907	11.3
72.43941	14.1
76.82654	17.2
81.21044	16.4
85.59113	17.4
89.96862	18
94.34289	19.8
98.71396	18.6
103.08183	18.8
107.4465	18.9
111.80798	18.9
116.16626	20.8
120.52136	22.3
124.87327	24.9
129.222	24
133.56755	27.6
137.90993	28.9
142.24913	31.6
146.58517	36
150.91804	44
155.24774	51.8
159.57429	63.4
163.89768	84.5
168.21792	113.5
172.53501	155.5
176.84895	219.5
181.15975	310
185.46741	435.9
189.77193	608
194.07331	822.1
198.37157	1052.7
202.6667	1313.8
206.9587	1568.8
211.24758	1826.4
215.53334	2098.6
219.81599	2401.7
224.09553	2735.3
228.37195	3099
232.64527	3490
236.91549	3876.6
241.18261	4193
245.44663	4410.3
249.70755	4585.6
253.96539	4703
258.22014	4841.4
262.4718	4936.5
266.72039	5012.1
270.96589	5014.5
275.20832	4963.7
279.44768	4871.6
283.68397	4774.9
287.91719	4744.5
292.14735	4756.9
296.37445	4865.6
300.59849	5087.4
304.81948	5399.6
309.03742	5662.3
313.25231	5851.9
317.46415	5798.1
321.67296	5493.5
325.87872	5174.3
330.08145	4982.2
334.28114	4944.8
338.47781	5023.1
342.67145	5127.9
346.86207	5318
351.04966	5626.5
355.23424	5882.2
359.4158	6058.2
363.59435	6106.5
367.76989	6075.9
371.94243	5988.5
376.11196	5900.4
380.27849	5836.7
384.44203	5795.3
388.60257	5790.9
392.76012	5837.3
396.91468	5913.4
401.06626	6003.3
405.21485	6038.7
409.36047	5904.1
413.50311	5615.3
417.64277	5388.6
421.77947	5257.3
425.9132	5180.1
430.04396	5180.4
434.17176	5229
438.2966	5297.2
442.41849	5378.1
446.53742	5491.1
450.6534	5582.2
454.76644	5639.4
458.87653	5630.3
462.98368	5590.2
467.08789	5545.5
471.18916	5476.4
475.2875	5345.8
479.38291	5251.5
483.4754	5159.7
487.56496	5123.6
491.6516	5126
495.73531	5103.7
499.81612	5118.3
503.89401	5168.6
507.96899	5228.7
512.04106	5283.1
516.11023	5348.9
520.1765	5421.6
524.23987	5438.7
528.30034	5422.4
532.35792	5387.4
536.41261	5330.7
540.46441	5237.4
544.51333	5197.2
548.55936	5232
552.60252	5326.8
556.64279	5413.9
560.6802	5491.5
564.71473	5581.5
568.7464	5731.7
572.7752	5727.6
576.80114	5505.7
580.82422	5335.2
584.84444	5278.6
588.86181	5247.5
592.87633	5275.2
596.888	5373.8
600.89682	5672.9
604.9028	6463.9
608.90594	8254.7
612.90624	10113.5
616.90371	9289.8
620.89834	6713
624.89015	5637.1
628.87913	5490.7
632.86528	5643.4
636.84862	5762.4
640.82913	5632.1
644.80683	5357.4
648.78172	5212.4
652.75379	5223.9
656.72306	5436.5
660.68952	5633.1
664.65319	5548.2
668.61405	5346.5
672.57211	5296.3
676.52738	5287.3
680.47986	5251.4
684.42955	5146.6
688.37646	5106.1
692.32058	5148.5
696.26192	5217.8
700.20048	5308.9
704.13626	5323.7
708.06928	5290.7
711.99952	5269.3
715.927	5238.4
719.85171	5273.9
723.77365	5289
727.69284	5272.1
731.60928	5212
735.52295	5189.1
739.43388	5208.3
743.34206	5235.1
747.24749	5251.8
751.15017	5260.3
755.05012	5319.6
758.94733	5612.1
762.8418	6306.6
766.73354	7338.8
770.62254	8152.4
774.50882	8217.6
778.39237	7745.4
782.27321	6952.8
786.15132	6132.9
790.02671	5601.3
793.89938	5350.1
797.76935	5236.6
801.6366	5178.7
805.50115	5153.3
809.36299	5137.8
813.22213	5110.1
817.07857	5119
820.93231	5111.8
824.78336	5127.9
828.63172	5147
832.47738	5152.5
836.32036	5123.8
840.16066	5135.6
843.99827	5095.5
847.8332	5093.7
851.66546	5089.7
855.49504	5109.7
859.32195	5111
863.1462	5110.9
866.96777	5108.9
870.78668	5112.8
874.60293	5105
878.41652	5143.8
882.22745	5179.7
886.03573	5214.5
889.84136	5203.8
893.64433	5200.3
897.44466	5176.3
901.24235	5186.1
905.0374	5158
908.8298	5131.2
912.61957	5103.2
916.40671	5106.8
920.19121	5136.3
923.97308	5201.3
927.75233	5275
931.52895	5295
935.30295	5226.7
939.07433	5107.5
942.84309	5014.1
946.60924	4987.1
950.37278	4978.7
954.13371	4971.3
957.89203	4967.1
961.64774	4960.7
965.40086	4971.1
969.15137	4949.7
972.89929	4930.4
976.64461	4934.4
980.38733	4954.7
984.12747	4963.8
987.86502	4967.2
991.59999	5000.9
995.33237	5050.3
999.06217	5107.3
1002.78939	5199.9
1006.51404	5326.9
1010.23611	5439.9
1013.95561	5457.8
1017.67255	5456.3
1021.38692	5413
1025.09872	5306.5
1028.80796	5234
1032.51465	5224.8
1036.21877	5247.2
1039.92035	5264.9
1043.61937	5309.5
1047.31584	5328
1051.00976	5329.8
1054.70114	5334.4
1058.38998	5325.3
1062.07627	5359.3
1065.76003	5408.8
1069.44126	5464.8
1073.11995	5566.8
1076.79611	5704.8
1080.46974	5830
1084.14085	5943.5
1087.80943	6031.7
1091.47549	6057.9
1095.13903	6015
1098.80005	5935.3
1102.45857	5805.2
1106.11456	5725.8
1109.76805	5689.6
1113.41903	5724.4
1117.06751	5864.7
1120.71348	6048.7
1124.35696	6329.2
1127.99793	6522
1131.63641	6372.5
1135.2724	6101.2
1138.90589	5889.6
1142.5369	5767.9
1146.16542	5713.5
1149.79145	5684.5
1153.415	5612.3
1157.03607	5565
1160.65467	5590.9
1164.27079	5744.6
1167.88443	5918.7
1171.49561	6235.2
1175.10432	6783.1
1178.71056	7473.3
1182.31434	8086.1
1185.91565	8234.2
1189.51451	8062
1193.11091	7826
1196.70485	7533.2
1200.29634	7349.5
1203.88538	7136.2
1207.47197	6836.1
1211.05612	6537
1214.63782	6328.7
1218.21708	6153.9
1221.79391	5999.5
1225.36829	5940.7
1228.94024	5878.9
1232.50976	5885.1
1236.07685	5910
1239.6415	5930.2
1243.20374	5946.7
1246.76355	5996.8
1250.32093	6050
1253.8759	6191
1257.42845	6382.7
1260.97859	6604.9
1264.52631	6790.2
1268.07163	6892.7
1271.61453	6971.4
1275.15503	7005.6
1278.69312	6996.8
1282.22882	7008.3
1285.76211	7133.3
1289.29301	7326.2
1292.82151	7499.1
1296.34761	7683.6
1299.87133	8008.5
1303.39266	8523.8
1306.9116	9413
1310.42815	10264.6
1313.94233	10513.6
1317.45412	9947.3
1320.96354	9114.7
1324.47058	8377.3
1327.97525	7769.2
1331.47754	7446.9
1334.97747	7367.7
1338.47502	7471
1341.97022	7817.9
1345.46305	8358.7
1348.95352	9180.9
1352.44163	10095.7
1355.92738	11125.2
1359.41078	12402.4
1362.89183	13554.4
1366.37053	12988.8
1369.84688	10861.4
1373.32088	8861.7
1376.79254	7751.6
1380.26186	7255.3
1383.72883	6952.7
1387.19347	6669.9
1390.65578	6420.7
1394.11575	6211.6
1397.57339	6058.2
1401.0287	5959.1
1404.48168	5914.3
1407.93234	5924.2
1411.38068	5992.9
1414.82669	6046.3
1418.27039	6087.5
1421.71177	6056.2
1425.15083	6003.7
1428.58758	5948.4
1432.02203	5981
1435.45416	6060.3
1438.88399	6094.2
1442.31151	6116.8
1445.73673	6145.8
1449.15965	6202.1
1452.58027	6155.3
1455.9986	6129.2
1459.41463	6093.9
1462.82837	6147.8
1466.23982	6285.7
1469.64898	6412.6
1473.05586	6547.9
1476.46045	6607.8
1479.86276	6626.6
1483.26279	6776.1
1486.66054	6941
1490.05602	7201
1493.44922	7585.6
1496.84016	8253
1500.22882	9281.8
1503.61521	10578.8
1506.99934	11906.5
1510.38121	12732
1513.76081	12535.9
1517.13816	11376.2
1520.51324	9820.8
1523.88607	8601.1
1527.25665	7837.8
1530.62498	7453.8
1533.99105	7285.3
1537.35488	7177.4
1540.71647	7077.7
1544.07581	7022.1
1547.4329	6951.3
1550.78776	6852.3
1554.14038	6795.6
1557.49077	6792.1
1560.83892	6880.7
1564.18484	7085
1567.52853	7398.5
1570.86999	7628.2
1574.20922	7717.4
1577.54624	7560.6
1580.88103	7142.3
1584.2136	6660.5
1587.54395	6343.6
1590.87208	6311.6
1594.19801	6509
1597.52172	6786
1600.84321	6895.3
1604.16251	6812.3
1607.47959	6673.9
1610.79447	6460.1
1614.10715	6142.8
1617.41763	5852.4
1620.7259	5640.6
1624.03199	5525.9
1627.33587	5463.5
1630.63757	5539.1
1633.93707	5721.7
1637.23439	6072.5
1640.52951	6609.5
1643.82246	7441.3
1647.11321	8396.8
1650.40179	8986.2
1653.68819	8692.7
1656.97241	7664.5
1660.25446	6561.9
1663.53433	5772.8
1666.81203	5309.9
1670.08756	5030.8
1673.36092	4879.9
1676.63211	4774.2
1679.90115	4704.7
1683.16801	4644.3
1686.43272	4584.6
1689.69527	4550.2
1692.95567	4537
1696.2139	4520.4
1699.46999	4514.2
1702.72392	4494.8
1705.97571	4492.3
1709.22535	4500.2
1712.47284	4485.2
1715.71819	4499.7
1718.96139	4484.2
1722.20246	4474.1
1725.44139	4465.5
1728.67818	4426.5
1731.91284	4409.5
1735.14537	4372.5
1738.37576	4357.7
1741.60403	4344.6
1744.83017	4322.1
1748.05418	4325.4
1751.27607	4321.3
1754.49584	4289.2
1757.71349	4289.4
1760.92903	4291.5
1764.14244	4274.8
1767.35375	4270.2
1770.56294	4251.8
1773.77002	4250.2
1776.97499	4226.1
1780.17785	4201.9
1783.37861	4197.6
1786.57727	4158.7
1789.77382	4167.8
1792.96828	4165.7
1796.16064	4158.3
1799.3509	4151.1
1802.53907	4147
1805.72514	4132.5
1808.90913	4129.5
1812.09102	4110.2
1815.27083	4091.4
1818.44856	4091.9
1821.6242	4073.1
1824.79776	4060.5
1827.96924	4060
1831.13864	4046.6
1834.30597	4046
1837.47122	4032.3
1840.6344	4041.8
1843.7955	4027.4
1846.95454	4030.4
1850.11151	4032.2
1853.26642	4025.9
1856.41926	4027.1
1859.57004	4021.8
1862.71876	4015.9
1865.86542	4009.7
1869.01003	4005.3
1872.15258	4007.4
1875.29308	3998.2
1878.43152	3974.9
1881.56792	3992.3
1884.70227	3970.1
1887.83457	3965.8
1890.96482	3964.5
1894.09304	3959.9
1897.21921	3950.7
1900.34335	3949.6
1903.46544	3932.1
1906.58551	3926.7
1909.70353	3912.8
1912.81953	3915.2
1915.93349	3909.1
1919.04543	3918.6
1922.15534	3899.1
1925.26322	3884.8
1928.36908	3879.5
1931.47292	3879.9
1934.57473	3857.1
1937.67453	3864
1940.77232	3830.7
1943.86808	3831.6
1946.96184	3807.8
1950.05358	3806
1953.14331	3795.3
1956.23103	3799.9
1959.31675	3758.2
1962.40046	3755.4
1965.48217	3746.3
1968.56188	3737
1971.63959	3742.6
1974.7153	3733.6
1977.78901	3721.7
1980.86073	3697.5
1983.93046	3700.4
1986.99819	3678.1
1990.06394	3660.6
1993.1277	3660.4
1996.18947	3629
1999.24925	3631.4
2002.30706	3604.6
2005.36288	3587.2
2008.41672	3586.5
2011.46859	3577.9
2014.51848	3575.8
2017.56639	3565.3
2020.61233	3556
2023.6563	3534
2026.6983	3517.3
2029.73833	3497.3
2032.7764	3499.2
2035.8125	3489
2038.84664	3489.4
2041.87881	3482.7
2044.90903	3463.5
2047.93729	3455.7
2050.96359	3460.8
2053.98794	3444.2
2057.01034	3438.8
2060.03078	3446.8
2063.04927	3459
2066.06582	3432.4
2069.08042	3426.9
2072.09307	3424.2
2075.10378	3405.9
2078.11255	3420.8
2081.11938	3419.2
2084.12426	3415.7
2087.12722	3431.7
2090.12824	3429.6
2093.12732	3412.8
2096.12447	3415.1
2099.11969	3423
2102.11299	3425.4
2105.10435	3419.2
2108.09379	3420.2
2111.08131	3409.4
2114.0669	3433.9
2117.05057	3424.7
2120.03233	3428.9
2123.01216	3431.1
2125.99008	3428.2
2128.96609	3439.3
2131.94018	3433.2
2134.91236	3420.2
2137.88263	3429.5
2140.851	3441.8
2143.81746	3422.6
2146.78201	3423.4
2149.74466	3429.5
2152.7054	3429.6
2155.66425	3408.9
2158.6212	3409
2161.57625	3418.4
2164.52941	3407.3
2167.48067	3413.5
2170.43004	3416.2
2173.37752	3414.3
2176.32311	3404.1
2179.26681	3417.1
2182.20863	3401.5
2185.14856	3409.5
2188.08661	3399.7
2191.02278	3398.5
2193.95707	3384.5
2196.88948	3385.9
2199.82001	3379
2202.74867	3400.6
2205.67545	3382.3
2208.60037	3384
2211.52341	3363.5
2214.44458	3359.6
2217.36388	3355.1
2220.28132	3349.1
2223.1969	3342.7
2226.11061	3329.1
2229.02246	3315.9
2231.93245	3326.7
2234.84058	3304.7
2237.74686	3306.2
2240.65128	3315
2243.55385	3300.2
2246.45456	3290.5
2249.35343	3306.7
2252.25044	3290.2
2255.14561	3289.4
2258.03893	3280
2260.93041	3280.2
2263.82004	3279.6
2266.70783	3277
2269.59378	3252
2272.4779	3255.4
2275.36017	3233.6
2278.24061	3224
2281.11922	3217.6
2283.996	3224
2286.87094	3201.8
2289.74405	3206.3
2292.61534	3203.4
2295.4848	3207.5
2298.35243	3203.8
2301.21824	3206.5
2304.08223	3191.6
2306.94439	3193.9
2309.80474	3193.4
2312.66327	3181.8
2315.51999	3168.2
2318.37489	3191.3
2321.22797	3163.4
2324.07925	3149.7
2326.92871	3148.5
2329.77637	3135.9
2332.62222	3129.9
2335.46626	3126.5
2338.3085	3127.3
2341.14893	3123.7
2343.98756	3127.1
2346.8244	3117.4
2349.65943	3113.1
2352.49267	3118.8
2355.32411	3121.4
2358.15376	3127.3
2360.98161	3129.6
2363.80768	3113.2
2366.63195	3126.6
2369.45444	3116.7
2372.27514	3129.1
2375.09405	3114
2377.91118	3105.8
2380.72652	3098.4
2383.54009	3079.5
2386.35187	3093.5
2389.16188	3084.4
2391.97011	3066.8
2394.77657	3071
2397.58125	3046.5
2400.38416	3031
2403.18529	3044
2405.98466	3023.6
2408.78226	3037.4
2411.57809	3021.4
2414.37216	3016.3
2417.16446	3010.4
2419.955	3018.2
2422.74378	3013.2
2425.5308	3014.6
2428.31606	3000.5
2431.09956	3008.9
2433.88131	3000.8
2436.6613	2995.2
2439.43954	3003.1
2442.21603	3004.9
2444.99077	3003.5
2447.76377	2978
2450.53501	2996.1
2453.30451	2986.6
2456.07226	2986
2458.83827	2988.1
2461.60254	2985.3
2464.36507	2979.1
2467.12586	2974
2469.88492	2980.4
2472.64224	2976.6
2475.39782	2976.6
2478.15167	2971.2
2480.90379	2961.1
2483.65417	2981
2486.40283	2976.1
2489.14976	2975.7
2491.89497	2979.2
2494.63845	2973.5
2497.3802	2967.7
2500.12024	2967.8
2502.85855	2958.1
2505.59514	2962.6
2508.33002	2953.2
2511.06318	2934.7
2513.79462	2938
2516.52435	2922.5
2519.25237	2925.1
2521.97867	2898.6
2524.70327	2895.4
2527.42616	2892.7
2530.14734	2898.8
2532.86681	2894.8
2535.58458	2895.3
2538.30065	2882.1
2541.01501	2883.5
2543.72768	2878.2
2546.43864	2889.8
2549.14791	2876.5
2551.85548	2880.3
2554.56136	2870.2
2557.26554	2863.5
2559.96803	2868.4
2562.66883	2854.4
2565.36794	2845.2
2568.06536	2838.9
2570.7611	2834.5
2573.45514	2824
2576.14751	2823.7
2578.83819	2809.9
2581.52719	2797
2584.21451	2803.5
2586.90015	2797.8
2589.58411	2796.3
2592.2664	2790.5
2594.94701	2786.5
2597.62594	2792.4
2600.30321	2784
2602.9788	2778.7
2605.65273	2759.9
2608.32498	2776.8
2610.99557	2763.1
2613.66449	2764.9
2616.33175	2758.2
2618.99734	2756.2
2621.66128	2754.5
2624.32355	2741.5
2626.98416	2735.3
2629.64311	2726.2
2632.30041	2712.4
2634.95605	2708.4
2637.61004	2687.6
2640.26238	2688.7
2642.91306	2702.1
2645.56209	2694.5
2648.20948	2712.7
2650.85521	2709.1
2653.4993	2704.8
2656.14175	2694.6
2658.78255	2696.6
2661.42171	2701.2
2664.05923	2694.8
2666.6951	2692.3
2669.32934	2702.9
2671.96194	2697.2
2674.59291	2692.9
2677.22224	2695.6
2679.84993	2693.9
2682.476	2690.3
2685.10043	2694.5
2687.72324	2703.9
2690.34441	2692
2692.96396	2674.8
2695.58188	2684.7
2698.19818	2691.6
2700.81285	2689.2
2703.4259	2682.9
2706.03733	2688
2708.64714	2684.2
2711.25533	2678.3
2713.86191	2668.1
2716.46687	2680.3
2719.07021	2676.2
2721.67194	2679.8
2724.27206	2667.8
2726.87057	2674.7
2729.46747	2661
2732.06276	2676.8
2734.65644	2678.4
2737.24852	2672.4
2739.83899	2659.5
2742.42786	2658.5
2745.01513	2649.4
2747.60079	2660.7
2750.18486	2662.8
2752.76733	2650.5
2755.3482	2651
2757.92747	2632.8
2760.50515	2633.2
2763.08123	2624.1
2765.65573	2613.7
2768.22863	2599.7
2770.79994	2603.7
2773.36967	2600.6
2775.9378	2595.8
2778.50435	2603.6
2781.06932	2592.2
2783.6327	2584.5
2786.1945	2594.6
2788.75471	2583.9
2791.31335	2566.7
2793.87041	2574.5
2796.42589	2576
2798.97979	2576
2801.53212	2556.1
2804.08288	2554.8
2806.63206	2556.2
2809.17967	2558.5
2811.72571	2542.4
2814.27018	2540.6
2816.81308	2545.5
2819.35442	2519.9
2821.89419	2523.9
2824.43239	2510.7
2826.96904	2514.8
2829.50412	2521.7
2832.03763	2508.5
2834.56959	2505.3
2837.1	2501.4
2839.62884	2496.4
2842.15613	2481.9
2844.68186	2499
2847.20604	2476.5
2849.72867	2481.3
2852.24974	2479.7
2854.76927	2478.1
2857.28724	2468.8
2859.80367	2470.9
2862.31855	2464.6
2864.83189	2474.6
2867.34368	2467.1
2869.85393	2464.9
2872.36264	2460.2
2874.8698	2460
2877.37543	2457.8
2879.87952	2446.6
2882.38207	2444.5
2884.88308	2438.6
2887.38256	2433.4
2889.88051	2442
2892.37692	2426.3
2894.8718	2431.4
2897.36515	2424.2
2899.85698	2424.4
2902.34727	2421.7
2904.83604	2418.3
2907.32328	2439.1
2909.809	2435.3
2912.29319	2432.1
2914.77587	2440.5
2917.25702	2445.6
2919.73665	2441.4
2922.21476	2441.3
2924.69136	2443.5
2927.16644	2431.5
2929.64	2419.4
2932.11205	2422.4
2934.58258	2412.1
2937.05161	2405.9
2939.51912	2412.3
2941.98513	2411.3
2944.44962	2390.8
2946.91261	2389.1
2949.37409	2393.3
2951.83407	2394.2
2954.29254	2391.4
2956.74951	2388.6
2959.20498	2394.7
2961.65895	2375
2964.11142	2372.9
2966.56239	2371.6
2969.01186	2370
2971.45984	2375.3
2973.90632	2377.8
2976.35131	2371.4
2978.7948	2374.5
2981.23681	2367.2
2983.67732	2368.2
2986.11635	2353.8
2988.55388	2342.2
2990.98993	2346.7
2993.4245	2331.4
2995.85758	2329.6
2998.28917	2331.6
3000.71928	2322.4
3003.14791	2322.1
3005.57506	2320.2
3008.00073	2297.3
3010.42493	2296.9
3012.84764	2295.8
3015.26888	2298.7
3017.68865	2283.7
3020.10694	2275.6
3022.52376	2271.5
3024.9391	2266.2
3027.35298	2263.8
3029.76539	2256.4
3032.17632	2252.6
3034.5858	2249.2
3036.9938	2233.6
3039.40034	2239.3
3041.80542	2228
3044.20903	2232.9
3046.61118	2226.7
3049.01187	2219.3
3051.4111	2215.9
3053.80888	2211.8
3056.20519	2206.7
3058.60005	2208.7
3060.99345	2198.2
3063.3854	2196.7
3065.7759	2176.7
3068.16494	2177.1
3070.55254	2181.1
3072.93868	2170.7
3075.32338	2169.3
3077.70662	2154.4
3080.08842	2153.1
3082.46878	2150.4
3084.84769	2136.6
3087.22515	2142.1
3089.60118	2132.2
3091.97576	2141
3094.3489	2133.7
3096.72061	2136.9
3099.09087	2137.5
3101.4597	2133.5
3103.82709	2138.3
3106.19305	2129.2
3108.55757	2122.6
3110.92066	2116.1
3113.28232	2110
3115.64255	2107.5
3118.00134	2100.4
3120.35871	2092
3122.71466	2087.3
3125.06917	2080.2
3127.42226	2083.4
3129.77393	2084.4
3132.12417	2083.9
3134.47299	2079.4
3136.82039	2072.2
3139.16636	2071.3
3141.51092	2074.3
3143.85406	2068.2
3146.19579	2067.4
3148.53609	2061.9
3150.87499	2070.2
3153.21246	2062.6
3155.54853	2071.8
3157.88318	2077.8
3160.21642	2081.1
3162.54826	2068.4
3164.87868	2060.9
3167.2077	2060.4
3169.5353	2056.4
3171.86151	2045.9
3174.18631	2053
3176.5097	2057.4
3178.83169	2042.3
3181.15228	2047.3
3183.47147	2032.4
3185.78926	2027.4
3188.10565	2019.2
3190.42065	2029.9
3192.73424	2014.4
3195.04645	2016.5
3197.35725	2004.4
3199.66667	2012.7
3201.97469	2015
3204.28132	2006.4
3206.58656	2008.7
3208.8904	2015.6
3211.19287	2014.9
3213.49394	2012.3
3215.79363	2012.3
3218.09193	2009.9
3220.38884	2016.4
3222.68438	2013.2
3224.97853	2008
3227.2713	2006.9
3229.56269	1997
3231.8527	2005.4
3234.14133	1988.9
3236.42858	1986
3238.71446	1979.2
3240.99896	1961.8
3243.28209	1964.3
3245.56384	1967.3
3247.84423	1974.1
3250.12324	1960.1
3252.40088	1966.1
3254.67715	1957.7
3256.95205	1944.8
3259.22558	1955.5
3261.49775	1950.1
3263.76855	1954.7
3266.03799	1949.4
3268.30606	1948.4
3270.57277	1953.5
3272.83812	1946
3275.10211	1925
3277.36474	1928.3
3279.62601	1921
3281.88593	1915.5
3284.14448	1923
3286.40168	1928.6
3288.65753	1913.4
3290.91202	1918.9
3293.16516	1904.1
3295.41695	1929.9
3297.66738	1897.8
3299.91647	1892.7
3302.16421	1875.8
3304.4106	1862.7
3306.65564	1859.2
3308.89933	1843.6
3311.14169	1821
3313.38269	1814.2
3315.62236	1800.4
3317.86068	1781.1
3320.09766	1774.8
3322.3333	1754.1
3324.5676	1748.7
3326.80056	1722.9
3329.03219	1709.7
3331.26248	1.7
3333.49143	-0.2
3335.71905	-1.3
