Data from AgNPs_UA_50uM_CRN_500uM_SU_RamanShift__12__13-57-50-316.txt Node

Date: Thu Aug 04 13:57:50 BST 2022
User: TCL
Spectrometer: QEP01345
Trigger mode: 4
Integration Time (sec): 1.000000E0
Scans to average: 10
Electric dark correction enabled: true
Nonlinearity correction enabled: false
Boxcar width: 0
XAxis mode: Raman Shifts
Number of Pixels in Spectrum: 1044
>>>>>Begin Spectral Data<<<<<
46.04893	0.3
50.45542	-0.7
54.85868	0.5
59.25871	-0.4
63.6555	14.2
68.04907	12.5
72.43941	14.5
76.82654	16.8
81.21044	16.7
85.59113	18.2
89.96862	18
94.34289	18
98.71396	18
103.08183	18.2
107.4465	18.7
111.80798	19.8
116.16626	19.8
120.52136	21.6
124.87327	23.6
129.222	28
133.56755	26.3
137.90993	29.3
142.24913	30.9
146.58517	35.8
150.91804	45
155.24774	53.2
159.57429	66.9
163.89768	87.3
168.21792	115.2
172.53501	159.2
176.84895	230.9
181.15975	326.6
185.46741	457
189.77193	642.3
194.07331	855
198.37157	1111.2
202.6667	1372.2
206.9587	1654.2
211.24758	1915.4
215.53334	2206.2
219.81599	2504.9
224.09553	2858.3
228.37195	3240.3
232.64527	3650.2
236.91549	4041.7
241.18261	4370
245.44663	4590.5
249.70755	4771.5
253.96539	4902.2
258.22014	5036.6
262.4718	5145.9
266.72039	5225.9
270.96589	5232.6
275.20832	5169.1
279.44768	5071.2
283.68397	4980.6
287.91719	4924
292.14735	4951.1
296.37445	5088.5
300.59849	5326.6
304.81948	5636.9
309.03742	5986.5
313.25231	6160.1
317.46415	6093.4
321.67296	5787.9
325.87872	5414.7
330.08145	5211.2
334.28114	5172.4
338.47781	5241.7
342.67145	5358.9
346.86207	5582.2
351.04966	5870.2
355.23424	6168.6
359.4158	6336.9
363.59435	6398.7
367.76989	6352.8
371.94243	6285.1
376.11196	6196.2
380.27849	6118.8
384.44203	6073.1
388.60257	6051
392.76012	6094.8
396.91468	6185
401.06626	6290.7
405.21485	6304.9
409.36047	6161.4
413.50311	5849.7
417.64277	5567.3
421.77947	5398.6
425.9132	5354.9
430.04396	5364.2
434.17176	5381.2
438.2966	5459.7
442.41849	5592.5
446.53742	5716.8
450.6534	5811.4
454.76644	5861.5
458.87653	5848.2
462.98368	5817.4
467.08789	5754.8
471.18916	5651.6
475.2875	5511.7
479.38291	5396.8
483.4754	5310.7
487.56496	5260.9
491.6516	5253.6
495.73531	5247.2
499.81612	5275.6
503.89401	5301.8
507.96899	5346.1
512.04106	5425.4
516.11023	5493.8
520.1765	5571.9
524.23987	5595
528.30034	5591.4
532.35792	5543
536.41261	5501
540.46441	5390.7
544.51333	5325.3
548.55936	5393.3
552.60252	5500.2
556.64279	5591.5
560.6802	5671.1
564.71473	5790.9
568.7464	5951
572.7752	5945.7
576.80114	5704.3
580.82422	5501.2
584.84444	5420.5
588.86181	5399.5
592.87633	5431.6
596.888	5532.6
600.89682	5874
604.9028	6758.9
608.90594	8694.9
612.90624	10745.4
616.90371	9849
620.89834	7026.3
624.89015	5824.3
628.87913	5670.3
632.86528	5832.7
636.84862	5926.8
640.82913	5775.4
644.80683	5497.8
648.78172	5329.1
652.75379	5360.2
656.72306	5574.5
660.68952	5786.8
664.65319	5693.3
668.61405	5465.2
672.57211	5397.7
676.52738	5387.7
680.47986	5322.9
684.42955	5226.2
688.37646	5185.7
692.32058	5240.2
696.26192	5300.9
700.20048	5396
704.13626	5448.2
708.06928	5387.5
711.99952	5344.7
715.927	5339.9
719.85171	5370.2
723.77365	5392.4
727.69284	5350.9
731.60928	5312.4
735.52295	5279
739.43388	5304
743.34206	5341.7
747.24749	5331
751.15017	5359.6
755.05012	5431.4
758.94733	5750.1
762.8418	6527.2
766.73354	7680.4
770.62254	8547.3
774.50882	8635.8
778.39237	8058.6
782.27321	7169.9
786.15132	6282.2
790.02671	5712.9
793.89938	5444.9
797.76935	5328
801.6366	5278.8
805.50115	5231.8
809.36299	5218.2
813.22213	5182.1
817.07857	5176.1
820.93231	5189.8
824.78336	5224.2
828.63172	5231.7
832.47738	5238.8
836.32036	5218
840.16066	5195.1
843.99827	5164.6
847.8332	5177.2
851.66546	5171.6
855.49504	5191.2
859.32195	5178.8
863.1462	5185.4
866.96777	5177.9
870.78668	5165.9
874.60293	5181
878.41652	5205.9
882.22745	5253.8
886.03573	5279.4
889.84136	5280.2
893.64433	5262.2
897.44466	5252.9
901.24235	5249.4
905.0374	5205.5
908.8298	5196.8
912.61957	5147.3
916.40671	5172.3
920.19121	5214.2
923.97308	5277.6
927.75233	5343
931.52895	5401
935.30295	5313.9
939.07433	5170.9
942.84309	5092.7
946.60924	5044.2
950.37278	5036
954.13371	5033.1
957.89203	5013.8
961.64774	5007.2
965.40086	4997.1
969.15137	4985.6
972.89929	4983.3
976.64461	4986.8
980.38733	4993.6
984.12747	4989.8
987.86502	5019.8
991.59999	5057.6
995.33237	5097.7
999.06217	5181.9
1002.78939	5294.1
1006.51404	5454.2
1010.23611	5557.2
1013.95561	5573.8
1017.67255	5569.1
1021.38692	5529.3
1025.09872	5444.9
1028.80796	5361.4
1032.51465	5324.1
1036.21877	5353.2
1039.92035	5411.7
1043.61937	5425.6
1047.31584	5455.8
1051.00976	5447.2
1054.70114	5433.8
1058.38998	5422.3
1062.07627	5448.3
1065.76003	5503.6
1069.44126	5582.7
1073.11995	5685.1
1076.79611	5818
1080.46974	5956
1084.14085	6080.8
1087.80943	6171.6
1091.47549	6215.7
1095.13903	6157.9
1098.80005	6036.5
1102.45857	5918.6
1106.11456	5817.8
1109.76805	5786.5
1113.41903	5841.3
1117.06751	5981.6
1120.71348	6216
1124.35696	6519.9
1127.99793	6724.1
1131.63641	6590
1135.2724	6257.7
1138.90589	6025.4
1142.5369	5898.9
1146.16542	5847.2
1149.79145	5803.9
1153.415	5712.6
1157.03607	5678.8
1160.65467	5734.6
1164.27079	5885.1
1167.88443	6075.1
1171.49561	6439.4
1175.10432	7018.3
1178.71056	7820.8
1182.31434	8470.3
1185.91565	8641.8
1189.51451	8474.5
1193.11091	8191.9
1196.70485	7876.2
1200.29634	7660.8
1203.88538	7411
1207.47197	7060.6
1211.05612	6745.5
1214.63782	6510.4
1218.21708	6332.8
1221.79391	6197.1
1225.36829	6103.2
1228.94024	6058
1232.50976	6055.6
1236.07685	6049.2
1239.6415	6089
1243.20374	6099.2
1246.76355	6136.4
1250.32093	6246.7
1253.8759	6381.8
1257.42845	6619.8
1260.97859	6862.7
1264.52631	7065
1268.07163	7198.5
1271.61453	7264.1
1275.15503	7301.4
1278.69312	7299.6
1282.22882	7322.3
1285.76211	7478.8
1289.29301	7703.1
1292.82151	7898.8
1296.34761	8091.4
1299.87133	8469.5
1303.39266	9081.4
1306.9116	10005.8
1310.42815	10984.2
1313.94233	11284.2
1317.45412	10674.1
1320.96354	9751.4
1324.47058	8934.5
1327.97525	8238.5
1331.47754	7882.1
1334.97747	7771.9
1338.47502	7905.3
1341.97022	8247.9
1345.46305	8858.9
1348.95352	9716.8
1352.44163	10720.3
1355.92738	11851
1359.41078	13314.2
1362.89183	14531.8
1366.37053	13848.6
1369.84688	11492.4
1373.32088	9326.4
1376.79254	8101.9
1380.26186	7576.6
1383.72883	7253.3
1387.19347	6950.6
1390.65578	6684.7
1394.11575	6465.7
1397.57339	6306
1401.0287	6192.1
1404.48168	6145.2
1407.93234	6163.8
1411.38068	6221.4
1414.82669	6314.4
1418.27039	6356.1
1421.71177	6334.4
1425.15083	6277.9
1428.58758	6217.5
1432.02203	6286
1435.45416	6366.1
1438.88399	6392.1
1442.31151	6415.7
1445.73673	6466.5
1449.15965	6518.9
1452.58027	6483.2
1455.9986	6395.3
1459.41463	6367
1462.82837	6431.4
1466.23982	6571.4
1469.64898	6721.8
1473.05586	6825.6
1476.46045	6898.5
1479.86276	6939.1
1483.26279	7052.9
1486.66054	7260.7
1490.05602	7538.2
1493.44922	7990.1
1496.84016	8728.5
1500.22882	9831.1
1503.61521	11297.8
1506.99934	12762.7
1510.38121	13705.3
1513.76081	13557.9
1517.13816	12266.2
1520.51324	10570
1523.88607	9161.9
1527.25665	8293.7
1530.62498	7863.9
1533.99105	7671.5
1537.35488	7534.8
1540.71647	7427.8
1544.07581	7375.5
1547.4329	7283.6
1550.78776	7188.9
1554.14038	7123.6
1557.49077	7144.3
1560.83892	7241.5
1564.18484	7478.4
1567.52853	7812.5
1570.86999	8045.6
1574.20922	8124.1
1577.54624	7958.3
1580.88103	7479.5
1584.2136	6960.4
1587.54395	6631.8
1590.87208	6606.9
1594.19801	6821.7
1597.52172	7166.6
1600.84321	7294.2
1604.16251	7236.2
1607.47959	7062.8
1610.79447	6830.3
1614.10715	6440.9
1617.41763	6088.6
1620.7259	5861.9
1624.03199	5719.9
1627.33587	5705.1
1630.63757	5774.8
1633.93707	5993.9
1637.23439	6401.7
1640.52951	7059.3
1643.82246	8039.6
1647.11321	9137.9
1650.40179	9736.7
1653.68819	9377.7
1656.97241	8168.5
1660.25446	6873.5
1663.53433	6003
1666.81203	5485.8
1670.08756	5179.6
1673.36092	4967
1676.63211	4876.4
1679.90115	4780.8
1683.16801	4726.4
1686.43272	4675.4
1689.69527	4648.7
1692.95567	4621.7
1696.2139	4578
1699.46999	4590.2
1702.72392	4596.4
1705.97571	4580.6
1709.22535	4576.6
1712.47284	4568.6
1715.71819	4582.4
1718.96139	4568.7
1722.20246	4559.9
1725.44139	4541.1
1728.67818	4508.3
1731.91284	4462.4
1735.14537	4453.4
1738.37576	4429.8
1741.60403	4413.5
1744.83017	4403.1
1748.05418	4384.7
1751.27607	4376.2
1754.49584	4357
1757.71349	4358.8
1760.92903	4354.4
1764.14244	4334.5
1767.35375	4331.5
1770.56294	4322.9
1773.77002	4299.1
1776.97499	4279
1780.17785	4268.9
1783.37861	4261.8
1786.57727	4240.9
1789.77382	4235.8
1792.96828	4229.4
1796.16064	4224.5
1799.3509	4237.8
1802.53907	4199.3
1805.72514	4194.8
1808.90913	4180.9
1812.09102	4173.8
1815.27083	4161.3
1818.44856	4151.2
1821.6242	4147.8
1824.79776	4143.3
1827.96924	4120.6
1831.13864	4110.8
1834.30597	4103.7
1837.47122	4093.6
1840.6344	4104.5
1843.7955	4105.5
1846.95454	4094.4
1850.11151	4102
1853.26642	4089.7
1856.41926	4085.2
1859.57004	4085
1862.71876	4069.3
1865.86542	4081.7
1869.01003	4056.4
1872.15258	4065.2
1875.29308	4067.3
1878.43152	4053
1881.56792	4061.9
1884.70227	4042.9
1887.83457	4032.6
1890.96482	4036.3
1894.09304	4019.1
1897.21921	4016.1
1900.34335	4012.4
1903.46544	3993.8
1906.58551	4000.1
1909.70353	3984.4
1912.81953	3988.5
1915.93349	3986.3
1919.04543	3992.4
1922.15534	3972.5
1925.26322	3944.7
1928.36908	3960.3
1931.47292	3936.5
1934.57473	3937.9
1937.67453	3917.5
1940.77232	3901.4
1943.86808	3899.5
1946.96184	3882.1
1950.05358	3885.9
1953.14331	3876.4
1956.23103	3862.3
1959.31675	3829.7
1962.40046	3834.8
1965.48217	3821.3
1968.56188	3812.2
1971.63959	3795.7
1974.7153	3792.3
1977.78901	3788.6
1980.86073	3779.4
1983.93046	3744.4
1986.99819	3744.8
1990.06394	3736.6
1993.1277	3719.2
1996.18947	3711.3
1999.24925	3684.2
2002.30706	3680.1
2005.36288	3672
2008.41672	3655.3
2011.46859	3644.3
2014.51848	3641.3
2017.56639	3632.5
2020.61233	3627.5
2023.6563	3603
2026.6983	3588.7
2029.73833	3575.9
2032.7764	3568.3
2035.8125	3554.3
2038.84664	3559.2
2041.87881	3551.1
2044.90903	3536.1
2047.93729	3533.2
2050.96359	3528.2
2053.98794	3508.1
2057.01034	3510.9
2060.03078	3517.4
2063.04927	3518
2066.06582	3493.8
2069.08042	3505.7
2072.09307	3488.6
2075.10378	3494.9
2078.11255	3494
2081.11938	3496.5
2084.12426	3505.8
2087.12722	3495
2090.12824	3478.8
2093.12732	3496.6
2096.12447	3480.4
2099.11969	3494.5
2102.11299	3487.8
2105.10435	3485.5
2108.09379	3492.9
2111.08131	3490.3
2114.0669	3498
2117.05057	3496.9
2120.03233	3506.7
2123.01216	3490.1
2125.99008	3497.5
2128.96609	3503.2
2131.94018	3507.1
2134.91236	3502.1
2137.88263	3494.6
2140.851	3506
2143.81746	3506.7
2146.78201	3519.5
2149.74466	3502.1
2152.7054	3489.4
2155.66425	3495
2158.6212	3496.1
2161.57625	3496.4
2164.52941	3477.9
2167.48067	3489.2
2170.43004	3496.8
2173.37752	3471.8
2176.32311	3485.6
2179.26681	3472.6
2182.20863	3488.3
2185.14856	3470
2188.08661	3481.3
2191.02278	3479.7
2193.95707	3474.3
2196.88948	3462.5
2199.82001	3464.3
2202.74867	3460.9
2205.67545	3459
2208.60037	3465.2
2211.52341	3450.9
2214.44458	3453.6
2217.36388	3435.1
2220.28132	3433.5
2223.1969	3413.6
2226.11061	3400.4
2229.02246	3414.7
2231.93245	3395.3
2234.84058	3404.9
2237.74686	3394.2
2240.65128	3390.8
2243.55385	3365.4
2246.45456	3377.8
2249.35343	3371.9
2252.25044	3380.5
2255.14561	3365.6
2258.03893	3370.7
2260.93041	3385.3
2263.82004	3361.5
2266.70783	3352
2269.59378	3350.2
2272.4779	3337.9
2275.36017	3306.4
2278.24061	3318.5
2281.11922	3297.2
2283.996	3314.2
2286.87094	3289.5
2289.74405	3283.6
2292.61534	3291.1
2295.4848	3278.4
2298.35243	3295.9
2301.21824	3277.7
2304.08223	3274.1
2306.94439	3261.4
2309.80474	3269.9
2312.66327	3283
2315.51999	3277.7
2318.37489	3268.6
2321.22797	3258.7
2324.07925	3252.7
2326.92871	3244.1
2329.77637	3240.5
2332.62222	3239.1
2335.46626	3210.6
2338.3085	3218.9
2341.14893	3221.4
2343.98756	3221.9
2346.8244	3227.2
2349.65943	3212.6
2352.49267	3222.5
2355.32411	3223.2
2358.15376	3217.8
2360.98161	3226.7
2363.80768	3226.6
2366.63195	3226.2
2369.45444	3207.4
2372.27514	3235.3
2375.09405	3214.4
2377.91118	3211.7
2380.72652	3197.7
2383.54009	3187.8
2386.35187	3188
2389.16188	3181.4
2391.97011	3182.7
2394.77657	3157.6
2397.58125	3144
2400.38416	3139.2
2403.18529	3125.3
2405.98466	3138.7
2408.78226	3116
2411.57809	3110.2
2414.37216	3114.4
2417.16446	3102.7
2419.955	3114.4
2422.74378	3112.4
2425.5308	3113.6
2428.31606	3105.2
2431.09956	3113.2
2433.88131	3093.9
2436.6613	3097.5
2439.43954	3100.1
2442.21603	3119.8
2444.99077	3091
2447.76377	3108.8
2450.53501	3085.1
2453.30451	3088.6
2456.07226	3090
2458.83827	3087.2
2461.60254	3086.3
2464.36507	3080.5
2467.12586	3078.8
2469.88492	3070.8
2472.64224	3072.3
2475.39782	3074
2478.15167	3087.6
2480.90379	3079.8
2483.65417	3079.9
2486.40283	3081.6
2489.14976	3101.4
2491.89497	3086.6
2494.63845	3092.9
2497.3802	3082.3
2500.12024	3072.4
2502.85855	3064.5
2505.59514	3078.1
2508.33002	3059
2511.06318	3049.6
2513.79462	3038.4
2516.52435	3022
2519.25237	3019.4
2521.97867	3010.6
2524.70327	2998.8
2527.42616	3008.5
2530.14734	3003.7
2532.86681	3012.8
2535.58458	2998.5
2538.30065	3001.4
2541.01501	2999.2
2543.72768	2997.2
2546.43864	2983.8
2549.14791	2979.3
2551.85548	2987.1
2554.56136	2997
2557.26554	2980.9
2559.96803	2984.2
2562.66883	2975.5
2565.36794	2984.6
2568.06536	2962.3
2570.7611	2942.6
2573.45514	2951.9
2576.14751	2938.6
2578.83819	2914.7
2581.52719	2926.3
2584.21451	2916.4
2586.90015	2910.7
2589.58411	2913.7
2592.2664	2912.9
2594.94701	2905.9
2597.62594	2905.3
2600.30321	2891.8
2602.9788	2892.1
2605.65273	2883.2
2608.32498	2900.7
2610.99557	2901.8
2613.66449	2896.7
2616.33175	2885.2
2618.99734	2879.5
2621.66128	2863.4
2624.32355	2877
2626.98416	2864.8
2629.64311	2856.5
2632.30041	2839.5
2634.95605	2854
2637.61004	2843.2
2640.26238	2825.8
2642.91306	2826.7
2645.56209	2824.8
2648.20948	2827.7
2650.85521	2816.1
2653.4993	2827.1
2656.14175	2822.2
2658.78255	2823
2661.42171	2822.3
2664.05923	2833.2
2666.6951	2833.9
2669.32934	2835.9
2671.96194	2825.2
2674.59291	2831.5
2677.22224	2825.5
2679.84993	2821.5
2682.476	2821.3
2685.10043	2817.5
2687.72324	2832.1
2690.34441	2828.8
2692.96396	2824.5
2695.58188	2826
2698.19818	2808.9
2700.81285	2822.8
2703.4259	2815.2
2706.03733	2826.8
2708.64714	2823.3
2711.25533	2811.5
2713.86191	2800.6
2716.46687	2805.4
2719.07021	2801.4
2721.67194	2812.5
2724.27206	2814.7
2726.87057	2806.4
2729.46747	2812.2
2732.06276	2809.6
2734.65644	2793.8
2737.24852	2800
2739.83899	2800.8
2742.42786	2799.5
2745.01513	2796.3
2747.60079	2788.2
2750.18486	2788.5
2752.76733	2777.1
2755.3482	2770.8
2757.92747	2757.9
2760.50515	2773.3
2763.08123	2756.2
2765.65573	2743.8
2768.22863	2747.3
2770.79994	2736.8
2773.36967	2742.1
2775.9378	2752.8
2778.50435	2738.5
2781.06932	2740.7
2783.6327	2732
2786.1945	2739.1
2788.75471	2726
2791.31335	2714.7
2793.87041	2716.2
2796.42589	2710.3
2798.97979	2715.2
2801.53212	2714.1
2804.08288	2696.1
2806.63206	2697.7
2809.17967	2701.2
2811.72571	2690.8
2814.27018	2689
2816.81308	2688.5
2819.35442	2683.1
2821.89419	2674.8
2824.43239	2655.9
2826.96904	2661.1
2829.50412	2670.4
2832.03763	2650.4
2834.56959	2652.8
2837.1	2631.5
2839.62884	2647
2842.15613	2627.8
2844.68186	2631.8
2847.20604	2623.2
2849.72867	2626.6
2852.24974	2616.5
2854.76927	2616.5
2857.28724	2616.3
2859.80367	2607.4
2862.31855	2612.1
2864.83189	2622.6
2867.34368	2619.7
2869.85393	2610.6
2872.36264	2597.9
2874.8698	2610.1
2877.37543	2600.8
2879.87952	2595.2
2882.38207	2607.1
2884.88308	2602.8
2887.38256	2585
2889.88051	2586.7
2892.37692	2586.8
2894.8718	2572.2
2897.36515	2571
2899.85698	2583.8
2902.34727	2580.9
2904.83604	2578.8
2907.32328	2585.3
2909.809	2589
2912.29319	2604.4
2914.77587	2593.5
2917.25702	2608.3
2919.73665	2591.5
2922.21476	2601.2
2924.69136	2596.6
2927.16644	2582.8
2929.64	2576.3
2932.11205	2572.2
2934.58258	2562.6
2937.05161	2568.6
2939.51912	2572.6
2941.98513	2558.6
2944.44962	2532.8
2946.91261	2548.7
2949.37409	2549
2951.83407	2554
2954.29254	2559.7
2956.74951	2549.8
2959.20498	2551.5
2961.65895	2532.1
2964.11142	2530.8
2966.56239	2515.3
2969.01186	2521.5
2971.45984	2529.3
2973.90632	2530.3
2976.35131	2522
2978.7948	2519.4
2981.23681	2511.8
2983.67732	2508.7
2986.11635	2499.2
2988.55388	2496.3
2990.98993	2497.8
2993.4245	2486.5
2995.85758	2490
2998.28917	2483.4
3000.71928	2476.8
3003.14791	2479.4
3005.57506	2465.2
3008.00073	2457.8
3010.42493	2463.2
3012.84764	2447.9
3015.26888	2442.4
3017.68865	2425.3
3020.10694	2432.8
3022.52376	2440.6
3024.9391	2414.5
3027.35298	2416.9
3029.76539	2405.9
3032.17632	2403.4
3034.5858	2402.5
3036.9938	2389.7
3039.40034	2389.1
3041.80542	2374.9
3044.20903	2373.7
3046.61118	2377.8
3049.01187	2366.9
3051.4111	2374.7
3053.80888	2354.2
3056.20519	2352.9
3058.60005	2343.3
3060.99345	2351.5
3063.3854	2330.5
3065.7759	2343.3
3068.16494	2334.3
3070.55254	2323.1
3072.93868	2318.4
3075.32338	2311.5
3077.70662	2315.3
3080.08842	2299
3082.46878	2301.2
3084.84769	2281.7
3087.22515	2286.5
3089.60118	2276.6
3091.97576	2283.7
3094.3489	2282.2
3096.72061	2287.7
3099.09087	2273.2
3101.4597	2279.6
3103.82709	2266.8
3106.19305	2257.5
3108.55757	2256.3
3110.92066	2278.3
3113.28232	2265.8
3115.64255	2257.7
3118.00134	2243.8
3120.35871	2238.3
3122.71466	2251.5
3125.06917	2224.6
3127.42226	2227.8
3129.77393	2226.7
3132.12417	2220.7
3134.47299	2228.7
3136.82039	2218.1
3139.16636	2223.8
3141.51092	2212.6
3143.85406	2210
3146.19579	2213.4
3148.53609	2213.8
3150.87499	2216.2
3153.21246	2213.9
3155.54853	2218.7
3157.88318	2221.8
3160.21642	2214.9
3162.54826	2223.1
3164.87868	2207.9
3167.2077	2208.3
3169.5353	2187.9
3171.86151	2190
3174.18631	2190.9
3176.5097	2197.3
3178.83169	2197.2
3181.15228	2190.9
3183.47147	2168.1
3185.78926	2180
3188.10565	2164.4
3190.42065	2163.3
3192.73424	2152.3
3195.04645	2157
3197.35725	2154.6
3199.66667	2151.1
3201.97469	2145.6
3204.28132	2155.3
3206.58656	2148.5
3208.8904	2152.2
3211.19287	2163.1
3213.49394	2157.2
3215.79363	2163.6
3218.09193	2156.8
3220.38884	2146.8
3222.68438	2157.9
3224.97853	2157
3227.2713	2146.3
3229.56269	2137
3231.8527	2133.5
3234.14133	2133.8
3236.42858	2133.3
3238.71446	2120.5
3240.99896	2116.2
3243.28209	2123.8
3245.56384	2110.8
3247.84423	2111.7
3250.12324	2106.7
3252.40088	2104.6
3254.67715	2114.8
3256.95205	2090.9
3259.22558	2090.1
3261.49775	2107.4
3263.76855	2095.3
3266.03799	2097.6
3268.30606	2096.7
3270.57277	2095.1
3272.83812	2081.7
3275.10211	2062.5
3277.36474	2062
3279.62601	2068.6
3281.88593	2071.1
3284.14448	2053.2
3286.40168	2073.3
3288.65753	2068.1
3290.91202	2056.6
3293.16516	2055.5
3295.41695	2064.1
3297.66738	2048.1
3299.91647	2033.5
3302.16421	2016.7
3304.4106	2009.3
3306.65564	1996
3308.89933	1978.6
3311.14169	1960.4
3313.38269	1953.3
3315.62236	1942.1
3317.86068	1923.9
3320.09766	1908.5
3322.3333	1899.5
3324.5676	1885.3
3326.80056	1850.3
3329.03219	1845.1
3331.26248	0
3333.49143	0.6
3335.71905	-0.9
