Data from AgNPs_UA_5uM_CRN_500uM_SU_RamanShift__225__12-06-53-185.txt Node

Date: Thu Aug 04 12:06:53 BST 2022
User: TCL
Spectrometer: QEP01345
Trigger mode: 4
Integration Time (sec): 1.000000E0
Scans to average: 10
Electric dark correction enabled: true
Nonlinearity correction enabled: false
Boxcar width: 0
XAxis mode: Raman Shifts
Number of Pixels in Spectrum: 1044
>>>>>Begin Spectral Data<<<<<
46.04893	2.0375
50.45542	-0.0625
54.85868	-0.5625
59.25871	-0.3625
63.6555	-57.5625
68.04907	-39.2625
72.43941	-72.1625
76.82654	-57.1625
81.21044	-56.1625
85.59113	-50.2625
89.96862	-76.2625
94.34289	-57.5625
98.71396	-77.2625
103.08183	-58.3625
107.4465	-49.6625
111.80798	-56.5625
116.16626	-45.6625
120.52136	-74.1625
124.87327	-49.7625
129.222	-63.4625
133.56755	-51.1625
137.90993	-61.5625
142.24913	-49.9625
146.58517	-43.8625
150.91804	-40.2625
155.24774	-29.0625
159.57429	-10.0625
163.89768	-5.1625
168.21792	38.7375
172.53501	58.2375
176.84895	141.3375
181.15975	274.2375
185.46741	425.8375
189.77193	605.5375
194.07331	886.8375
198.37157	1181.5375
202.6667	1473.6375
206.9587	1786.7375
211.24758	2106.3375
215.53334	2423.0375
219.81599	2786.7375
224.09553	3195.6375
228.37195	3644.9375
232.64527	4101.0375
236.91549	4575.3375
241.18261	4923.2375
245.44663	5211.6375
249.70755	5368.4375
253.96539	5510.3375
258.22014	5610.2375
262.4718	5687.3375
266.72039	5728.4375
270.96589	5697.6375
275.20832	5599.5375
279.44768	5481.7375
283.68397	5371.0375
287.91719	5330.4375
292.14735	5365.8375
296.37445	5524.1375
300.59849	5839.3375
304.81948	6189.7375
309.03742	6530.3375
313.25231	6785.7375
317.46415	6733.8375
321.67296	6354.0375
325.87872	5948.0375
330.08145	5723.9375
334.28114	5689.2375
338.47781	5749.2375
342.67145	5884.7375
346.86207	6142.1375
351.04966	6512.2375
355.23424	6883.2375
359.4158	7151.6375
363.59435	7207.0375
367.76989	7139.0375
371.94243	7017.6375
376.11196	6865.9375
380.27849	6795.3375
384.44203	6733.6375
388.60257	6695.7375
392.76012	6692.7375
396.91468	6834.9375
401.06626	6975.7375
405.21485	7010.2375
409.36047	6854.5375
413.50311	6517.1375
417.64277	6239.7375
421.77947	6013.7375
425.9132	5954.3375
430.04396	5952.6375
434.17176	5980.2375
438.2966	6061.0375
442.41849	6157.6375
446.53742	6263.7375
450.6534	6379.3375
454.76644	6442.2375
458.87653	6454.8375
462.98368	6411.2375
467.08789	6327.2375
471.18916	6261.3375
475.2875	6136.8375
479.38291	6024.7375
483.4754	5925.4375
487.56496	5882.9375
491.6516	5853.9375
495.73531	5847.9375
499.81612	5889.0375
503.89401	5972.4375
507.96899	6041.6375
512.04106	6130.7375
516.11023	6189.8375
520.1765	6324.5375
524.23987	6333.5375
528.30034	6325.2375
532.35792	6245.2375
536.41261	6199.9375
540.46441	6095.2375
544.51333	6044.9375
548.55936	6097.6375
552.60252	6217.1375
556.64279	6327.5375
560.6802	6453.3375
564.71473	6572.2375
568.7464	6785.3375
572.7752	6745.0375
576.80114	6439.6375
580.82422	6219.6375
584.84444	6105.4375
588.86181	6076.0375
592.87633	6102.3375
596.888	6237.3375
600.89682	6618.4375
604.9028	7600.6375
608.90594	9721.5375
612.90624	12099.9375
616.90371	11226.6375
620.89834	8102.8375
624.89015	6744.4375
628.87913	6544.6375
632.86528	6686.7375
636.84862	6856.4375
640.82913	6718.8375
644.80683	6377.6375
648.78172	6164.6375
652.75379	6204.0375
656.72306	6424.4375
660.68952	6680.5375
664.65319	6595.3375
668.61405	6347.7375
672.57211	6296.4375
676.52738	6302.9375
680.47986	6188.8375
684.42955	6099.0375
688.37646	6045.9375
692.32058	6048.2375
696.26192	6110.1375
700.20048	6228.2375
704.13626	6261.1375
708.06928	6214.0375
711.99952	6188.7375
715.927	6152.4375
719.85171	6199.5375
723.77365	6256.2375
727.69284	6222.8375
731.60928	6179.4375
735.52295	6194.2375
739.43388	6215.3375
743.34206	6243.3375
747.24749	6251.2375
751.15017	6264.5375
755.05012	6349.6375
758.94733	6714.4375
762.8418	7584.9375
766.73354	8938.0375
770.62254	9970.1375
774.50882	10080.2375
778.39237	9536.9375
782.27321	8597.9375
786.15132	7547.8375
790.02671	6828.1375
793.89938	6438.7375
797.76935	6323.3375
801.6366	6215.7375
805.50115	6181.4375
809.36299	6170.3375
813.22213	6156.8375
817.07857	6180.1375
820.93231	6156.6375
824.78336	6189.0375
828.63172	6214.6375
832.47738	6194.1375
836.32036	6217.2375
840.16066	6179.4375
843.99827	6161.2375
847.8332	6162.1375
851.66546	6164.5375
855.49504	6168.5375
859.32195	6200.2375
863.1462	6181.9375
866.96777	6214.1375
870.78668	6170.2375
874.60293	6197.1375
878.41652	6226.2375
882.22745	6287.3375
886.03573	6319.8375
889.84136	6306.0375
893.64433	6330.8375
897.44466	6308.5375
901.24235	6299.8375
905.0374	6289.8375
908.8298	6243.1375
912.61957	6206.8375
916.40671	6160.6375
920.19121	6211.0375
923.97308	6317.4375
927.75233	6362.1375
931.52895	6435.2375
935.30295	6409.2375
939.07433	6232.4375
942.84309	6119.1375
946.60924	6096.1375
950.37278	6057.0375
954.13371	6052.4375
957.89203	6033.1375
961.64774	6045.8375
965.40086	6057.1375
969.15137	6036.5375
972.89929	6041.7375
976.64461	6050.3375
980.38733	6092.1375
984.12747	6075.7375
987.86502	6092.9375
991.59999	6114.0375
995.33237	6192.4375
999.06217	6228.4375
1002.78939	6314.9375
1006.51404	6460.0375
1010.23611	6565.0375
1013.95561	6634.2375
1017.67255	6627.0375
1021.38692	6591.2375
1025.09872	6523.3375
1028.80796	6456.0375
1032.51465	6461.3375
1036.21877	6431.1375
1039.92035	6484.9375
1043.61937	6510.3375
1047.31584	6566.3375
1051.00976	6612.2375
1054.70114	6614.5375
1058.38998	6603.5375
1062.07627	6622.3375
1065.76003	6660.8375
1069.44126	6726.3375
1073.11995	6807.6375
1076.79611	6943.7375
1080.46974	7102.3375
1084.14085	7269.4375
1087.80943	7389.3375
1091.47549	7414.3375
1095.13903	7322.7375
1098.80005	7198.6375
1102.45857	7124.4375
1106.11456	7085.4375
1109.76805	7024.3375
1113.41903	7152.3375
1117.06751	7310.4375
1120.71348	7591.6375
1124.35696	7997.8375
1127.99793	8239.7375
1131.63641	8109.3375
1135.2724	7681.5375
1138.90589	7389.1375
1142.5369	7186.3375
1146.16542	7064.1375
1149.79145	6952.4375
1153.415	6908.7375
1157.03607	6916.9375
1160.65467	7012.2375
1164.27079	7231.2375
1167.88443	7486.0375
1171.49561	7916.3375
1175.10432	8561.0375
1178.71056	9472.8375
1182.31434	10293.2375
1185.91565	10528.8375
1189.51451	10384.2375
1193.11091	10137.8375
1196.70485	9876.6375
1200.29634	9642.9375
1203.88538	9350.9375
1207.47197	8885.1375
1211.05612	8422.4375
1214.63782	7989.7375
1218.21708	7731.7375
1221.79391	7551.1375
1225.36829	7495.6375
1228.94024	7487.3375
1232.50976	7518.8375
1236.07685	7534.2375
1239.6415	7581.3375
1243.20374	7573.3375
1246.76355	7603.3375
1250.32093	7672.5375
1253.8759	7734.6375
1257.42845	7944.9375
1260.97859	8153.3375
1264.52631	8371.7375
1268.07163	8554.7375
1271.61453	8672.9375
1275.15503	8732.9375
1278.69312	8741.3375
1282.22882	8808.7375
1285.76211	8991.2375
1289.29301	9254.6375
1292.82151	9524.1375
1296.34761	9755.4375
1299.87133	10168.3375
1303.39266	10869.3375
1306.9116	12040.8375
1310.42815	13299.5375
1313.94233	13770.8375
1317.45412	12946.3375
1320.96354	11788.9375
1324.47058	10750.5375
1327.97525	9983.8375
1331.47754	9548.9375
1334.97747	9458.1375
1338.47502	9562.4375
1341.97022	9937.4375
1345.46305	10688.5375
1348.95352	11813.7375
1352.44163	13138.0375
1355.92738	14506.2375
1359.41078	16248.9375
1362.89183	17789.0375
1366.37053	17152.6375
1369.84688	14231.0375
1373.32088	11471.9375
1376.79254	10024.4375
1380.26186	9333.2375
1383.72883	8913.4375
1387.19347	8492.6375
1390.65578	8140.9375
1394.11575	7887.9375
1397.57339	7722.2375
1401.0287	7611.3375
1404.48168	7571.6375
1407.93234	7581.1375
1411.38068	7598.8375
1414.82669	7677.1375
1418.27039	7777.6375
1421.71177	7766.6375
1425.15083	7677.9375
1428.58758	7582.6375
1432.02203	7611.9375
1435.45416	7683.3375
1438.88399	7685.0375
1442.31151	7687.2375
1445.73673	7736.5375
1449.15965	7804.2375
1452.58027	7816.5375
1455.9986	7809.7375
1459.41463	7816.1375
1462.82837	7920.7375
1466.23982	8120.6375
1469.64898	8333.1375
1473.05586	8470.2375
1476.46045	8582.1375
1479.86276	8651.8375
1483.26279	8784.6375
1486.66054	8963.9375
1490.05602	9254.1375
1493.44922	9803.0375
1496.84016	10699.5375
1500.22882	12124.5375
1503.61521	13886.3375
1506.99934	15723.0375
1510.38121	16927.1375
1513.76081	16798.5375
1517.13816	15226.6375
1520.51324	13020.4375
1523.88607	11266.4375
1527.25665	10247.2375
1530.62498	9725.6375
1533.99105	9518.2375
1537.35488	9388.9375
1540.71647	9295.9375
1544.07581	9185.6375
1547.4329	9039.5375
1550.78776	8891.0375
1554.14038	8811.5375
1557.49077	8806.6375
1560.83892	8882.6375
1564.18484	9122.0375
1567.52853	9464.2375
1570.86999	9775.8375
1574.20922	9955.7375
1577.54624	9832.5375
1580.88103	9310.4375
1584.2136	8586.6375
1587.54395	8226.9375
1590.87208	8132.1375
1594.19801	8303.6375
1597.52172	8652.0375
1600.84321	8817.7375
1604.16251	8693.5375
1607.47959	8460.0375
1610.79447	8278.8375
1614.10715	7991.6375
1617.41763	7685.4375
1620.7259	7389.2375
1624.03199	7265.6375
1627.33587	7186.2375
1630.63757	7223.2375
1633.93707	7458.2375
1637.23439	7889.2375
1640.52951	8580.1375
1643.82246	9589.1375
1647.11321	10782.2375
1650.40179	11537.1375
1653.68819	11185.5375
1656.97241	9936.8375
1660.25446	8498.3375
1663.53433	7475.7375
1666.81203	6857.4375
1670.08756	6516.3375
1673.36092	6345.9375
1676.63211	6177.2375
1679.90115	6071.1375
1683.16801	6009.3375
1686.43272	5902.2375
1689.69527	5860.3375
1692.95567	5811.0375
1696.2139	5802.1375
1699.46999	5724.2375
1702.72392	5755.6375
1705.97571	5744.8375
1709.22535	5714.0375
1712.47284	5755.3375
1715.71819	5776.0375
1718.96139	5765.9375
1722.20246	5752.6375
1725.44139	5715.7375
1728.67818	5686.2375
1731.91284	5643.2375
1735.14537	5601.3375
1738.37576	5562.8375
1741.60403	5562.4375
1744.83017	5505.7375
1748.05418	5542.5375
1751.27607	5522.9375
1754.49584	5494.9375
1757.71349	5465.4375
1760.92903	5449.1375
1764.14244	5422.5375
1767.35375	5412.6375
1770.56294	5395.3375
1773.77002	5388.3375
1776.97499	5414.0375
1780.17785	5373.8375
1783.37861	5371.5375
1786.57727	5382.5375
1789.77382	5305.6375
1792.96828	5350.8375
1796.16064	5335.1375
1799.3509	5329.0375
1802.53907	5329.2375
1805.72514	5290.1375
1808.90913	5269.0375
1812.09102	5263.4375
1815.27083	5272.8375
1818.44856	5253.3375
1821.6242	5253.2375
1824.79776	5235.2375
1827.96924	5221.2375
1831.13864	5192.9375
1834.30597	5206.1375
1837.47122	5182.4375
1840.6344	5163.4375
1843.7955	5152.8375
1846.95454	5136.5375
1850.11151	5178.2375
1853.26642	5151.0375
1856.41926	5127.5375
1859.57004	5129.5375
1862.71876	5122.0375
1865.86542	5131.9375
1869.01003	5124.3375
1872.15258	5103.3375
1875.29308	5116.2375
1878.43152	5104.2375
1881.56792	5092.1375
1884.70227	5073.8375
1887.83457	5070.5375
1890.96482	5052.5375
1894.09304	5044.8375
1897.21921	5034.5375
1900.34335	5033.0375
1903.46544	5015.8375
1906.58551	5044.1375
1909.70353	5025.0375
1912.81953	5022.5375
1915.93349	5006.5375
1919.04543	4987.2375
1922.15534	4974.5375
1925.26322	4975.1375
1928.36908	4959.0375
1931.47292	4948.9375
1934.57473	4974.4375
1937.67453	4927.0375
1940.77232	4913.9375
1943.86808	4886.3375
1946.96184	4892.7375
1950.05358	4868.5375
1953.14331	4861.7375
1956.23103	4858.6375
1959.31675	4815.3375
1962.40046	4772.2375
1965.48217	4798.3375
1968.56188	4788.9375
1971.63959	4783.6375
1974.7153	4770.6375
1977.78901	4753.6375
1980.86073	4732.2375
1983.93046	4719.2375
1986.99819	4628.5375
1990.06394	4647.5375
1993.1277	4668.4375
1996.18947	4636.3375
1999.24925	4614.8375
2002.30706	4614.0375
2005.36288	4592.1375
2008.41672	4581.2375
2011.46859	4549.7375
2014.51848	4546.7375
2017.56639	4518.7375
2020.61233	4499.2375
2023.6563	4509.3375
2026.6983	4464.3375
2029.73833	4473.0375
2032.7764	4477.7375
2035.8125	4423.6375
2038.84664	4432.0375
2041.87881	4406.8375
2044.90903	4431.8375
2047.93729	4416.0375
2050.96359	4379.3375
2053.98794	4392.2375
2057.01034	4394.6375
2060.03078	4366.0375
2063.04927	4374.4375
2066.06582	4387.3375
2069.08042	4358.7375
2072.09307	4374.3375
2075.10378	4356.2375
2078.11255	4343.2375
2081.11938	4351.9375
2084.12426	4346.6375
2087.12722	4337.9375
2090.12824	4330.5375
2093.12732	4343.1375
2096.12447	4344.3375
2099.11969	4342.5375
2102.11299	4326.7375
2105.10435	4341.5375
2108.09379	4342.5375
2111.08131	4333.9375
2114.0669	4324.8375
2117.05057	4333.6375
2120.03233	4324.5375
2123.01216	4339.6375
2125.99008	4345.3375
2128.96609	4344.4375
2131.94018	4354.3375
2134.91236	4355.9375
2137.88263	4333.4375
2140.851	4330.6375
2143.81746	4353.4375
2146.78201	4352.9375
2149.74466	4333.9375
2152.7054	4346.9375
2155.66425	4344.0375
2158.6212	4323.1375
2161.57625	4286.3375
2164.52941	4283.0375
2167.48067	4292.5375
2170.43004	4292.7375
2173.37752	4313.9375
2176.32311	4294.9375
2179.26681	4300.5375
2182.20863	4305.2375
2185.14856	4300.7375
2188.08661	4301.1375
2191.02278	4301.2375
2193.95707	4290.4375
2196.88948	4274.0375
2199.82001	4273.6375
2202.74867	4267.8375
2205.67545	4264.9375
2208.60037	4274.8375
2211.52341	4261.0375
2214.44458	4246.0375
2217.36388	4221.4375
2220.28132	4214.1375
2223.1969	4200.4375
2226.11061	4194.9375
2229.02246	4172.9375
2231.93245	4189.3375
2234.84058	4149.9375
2237.74686	4146.0375
2240.65128	4145.0375
2243.55385	4150.5375
2246.45456	4134.3375
2249.35343	4148.5375
2252.25044	4125.3375
2255.14561	4128.8375
2258.03893	4135.0375
2260.93041	4111.7375
2263.82004	4094.6375
2266.70783	4101.2375
2269.59378	4083.2375
2272.4779	4070.5375
2275.36017	4072.3375
2278.24061	4053.7375
2281.11922	4032.1375
2283.996	4047.4375
2286.87094	4019.2375
2289.74405	4020.2375
2292.61534	4011.1375
2295.4848	4006.4375
2298.35243	3999.3375
2301.21824	3986.0375
2304.08223	3985.8375
2306.94439	3976.9375
2309.80474	3982.4375
2312.66327	3982.7375
2315.51999	3958.2375
2318.37489	3963.9375
2321.22797	3939.5375
2324.07925	3933.2375
2326.92871	3927.4375
2329.77637	3920.8375
2332.62222	3908.5375
2335.46626	3884.1375
2338.3085	3878.7375
2341.14893	3898.8375
2343.98756	3899.7375
2346.8244	3880.6375
2349.65943	3868.3375
2352.49267	3865.1375
2355.32411	3880.1375
2358.15376	3868.3375
2360.98161	3870.2375
2363.80768	3852.6375
2366.63195	3874.5375
2369.45444	3883.2375
2372.27514	3871.5375
2375.09405	3878.6375
2377.91118	3850.9375
2380.72652	3845.7375
2383.54009	3834.0375
2386.35187	3833.8375
2389.16188	3809.2375
2391.97011	3818.3375
2394.77657	3790.7375
2397.58125	3798.8375
2400.38416	3776.4375
2403.18529	3754.1375
2405.98466	3744.1375
2408.78226	3763.8375
2411.57809	3755.8375
2414.37216	3728.7375
2417.16446	3735.6375
2419.955	3695.8375
2422.74378	3729.7375
2425.5308	3709.3375
2428.31606	3722.6375
2431.09956	3704.5375
2433.88131	3693.9375
2436.6613	3700.2375
2439.43954	3687.5375
2442.21603	3681.8375
2444.99077	3676.6375
2447.76377	3684.1375
2450.53501	3679.0375
2453.30451	3672.1375
2456.07226	3668.5375
2458.83827	3665.8375
2461.60254	3622.5375
2464.36507	3656.6375
2467.12586	3632.5375
2469.88492	3640.7375
2472.64224	3646.5375
2475.39782	3625.2375
2478.15167	3629.1375
2480.90379	3637.3375
2483.65417	3643.7375
2486.40283	3626.2375
2489.14976	3645.6375
2491.89497	3639.1375
2494.63845	3633.5375
2497.3802	3620.0375
2500.12024	3604.5375
2502.85855	3632.7375
2505.59514	3616.9375
2508.33002	3601.1375
2511.06318	3587.8375
2513.79462	3577.2375
2516.52435	3531.8375
2519.25237	3520.7375
2521.97867	3511.5375
2524.70327	3529.7375
2527.42616	3524.9375
2530.14734	3518.7375
2532.86681	3510.1375
2535.58458	3502.3375
2538.30065	3500.0375
2541.01501	3521.0375
2543.72768	3494.9375
2546.43864	3496.4375
2549.14791	3487.7375
2551.85548	3474.7375
2554.56136	3468.0375
2557.26554	3481.9375
2559.96803	3479.7375
2562.66883	3453.4375
2565.36794	3452.6375
2568.06536	3404.9375
2570.7611	3427.5375
2573.45514	3419.6375
2576.14751	3414.6375
2578.83819	3394.6375
2581.52719	3384.5375
2584.21451	3389.5375
2586.90015	3364.6375
2589.58411	3345.1375
2592.2664	3362.4375
2594.94701	3357.8375
2597.62594	3371.0375
2600.30321	3298.1375
2602.9788	3320.7375
2605.65273	3305.3375
2608.32498	3311.9375
2610.99557	3325.6375
2613.66449	3301.1375
2616.33175	3315.1375
2618.99734	3315.9375
2621.66128	3309.0375
2624.32355	3285.1375
2626.98416	3256.4375
2629.64311	3288.8375
2632.30041	3256.0375
2634.95605	3248.8375
2637.61004	3235.2375
2640.26238	3229.7375
2642.91306	3227.6375
2645.56209	3241.6375
2648.20948	3234.6375
2650.85521	3225.0375
2653.4993	3236.6375
2656.14175	3223.1375
2658.78255	3210.0375
2661.42171	3188.2375
2664.05923	3241.2375
2666.6951	3247.0375
2669.32934	3231.4375
2671.96194	3242.1375
2674.59291	3243.2375
2677.22224	3225.5375
2679.84993	3227.3375
2682.476	3223.5375
2685.10043	3212.6375
2687.72324	3200.4375
2690.34441	3227.3375
2692.96396	3190.0375
2695.58188	3218.8375
2698.19818	3202.2375
2700.81285	3193.4375
2703.4259	3182.5375
2706.03733	3167.2375
2708.64714	3168.1375
2711.25533	3186.4375
2713.86191	3193.8375
2716.46687	3195.3375
2719.07021	3182.5375
2721.67194	3191.2375
2724.27206	3213.8375
2726.87057	3181.6375
2729.46747	3174.5375
2732.06276	3179.4375
2734.65644	3165.8375
2737.24852	3171.9375
2739.83899	3136.1375
2742.42786	3153.7375
2745.01513	3166.7375
2747.60079	3137.0375
2750.18486	3111.5375
2752.76733	3139.6375
2755.3482	3110.0375
2757.92747	3117.2375
2760.50515	3102.3375
2763.08123	3106.2375
2765.65573	3102.4375
2768.22863	3090.0375
2770.79994	3065.4375
2773.36967	3069.2375
2775.9378	3059.9375
2778.50435	3059.9375
2781.06932	3067.0375
2783.6327	3051.8375
2786.1945	3072.1375
2788.75471	3047.9375
2791.31335	3047.4375
2793.87041	3047.0375
2796.42589	3031.2375
2798.97979	3027.1375
2801.53212	3013.3375
2804.08288	3027.8375
2806.63206	3022.5375
2809.17967	2990.0375
2811.72571	3005.3375
2814.27018	2991.4375
2816.81308	3000.8375
2819.35442	2961.9375
2821.89419	2972.2375
2824.43239	2962.2375
2826.96904	2984.8375
2829.50412	2965.5375
2832.03763	2948.9375
2834.56959	2968.8375
2837.1	2956.0375
2839.62884	2947.1375
2842.15613	2937.4375
2844.68186	2943.4375
2847.20604	2921.4375
2849.72867	2923.6375
2852.24974	2925.1375
2854.76927	2899.1375
2857.28724	2863.2375
2859.80367	2918.2375
2862.31855	2917.3375
2864.83189	2903.1375
2867.34368	2911.4375
2869.85393	2911.4375
2872.36264	2894.0375
2874.8698	2886.9375
2877.37543	2905.8375
2879.87952	2896.3375
2882.38207	2867.6375
2884.88308	2880.0375
2887.38256	2877.0375
2889.88051	2860.0375
2892.37692	2865.3375
2894.8718	2855.8375
2897.36515	2871.1375
2899.85698	2851.9375
2902.34727	2862.7375
2904.83604	2883.7375
2907.32328	2871.3375
2909.809	2881.3375
2912.29319	2877.2375
2914.77587	2883.1375
2917.25702	2892.5375
2919.73665	2913.4375
2922.21476	2907.6375
2924.69136	2890.6375
2927.16644	2883.3375
2929.64	2889.0375
2932.11205	2854.4375
2934.58258	2876.8375
2937.05161	2835.9375
2939.51912	2839.3375
2941.98513	2873.5375
2944.44962	2857.6375
2946.91261	2803.7375
2949.37409	2828.6375
2951.83407	2813.0375
2954.29254	2820.0375
2956.74951	2808.4375
2959.20498	2799.2375
2961.65895	2795.2375
2964.11142	2785.9375
2966.56239	2783.3375
2969.01186	2785.6375
2971.45984	2797.0375
2973.90632	2767.8375
2976.35131	2786.1375
2978.7948	2774.5375
2981.23681	2759.5375
2983.67732	2775.6375
2986.11635	2764.9375
2988.55388	2725.9375
2990.98993	2737.1375
2993.4245	2704.9375
2995.85758	2711.7375
2998.28917	2704.2375
3000.71928	2694.4375
3003.14791	2690.0375
3005.57506	2675.3375
3008.00073	2673.7375
3010.42493	2612.5375
3012.84764	2669.5375
3015.26888	2672.4375
3017.68865	2651.7375
3020.10694	2607.1375
3022.52376	2635.5375
3024.9391	2631.5375
3027.35298	2609.8375
3029.76539	2597.4375
3032.17632	2605.7375
3034.5858	2594.7375
3036.9938	2614.3375
3039.40034	2585.4375
3041.80542	2593.8375
3044.20903	2568.3375
3046.61118	2575.0375
3049.01187	2568.7375
3051.4111	2543.9375
3053.80888	2550.4375
3056.20519	2547.9375
3058.60005	2530.0375
3060.99345	2548.3375
3063.3854	2520.4375
3065.7759	2509.8375
3068.16494	2505.5375
3070.55254	2498.7375
3072.93868	2508.6375
3075.32338	2496.8375
3077.70662	2480.4375
3080.08842	2470.5375
3082.46878	2452.7375
3084.84769	2475.3375
3087.22515	2455.7375
3089.60118	2459.3375
3091.97576	2453.7375
3094.3489	2465.0375
3096.72061	2442.6375
3099.09087	2438.7375
3101.4597	2457.0375
3103.82709	2447.5375
3106.19305	2441.8375
3108.55757	2432.8375
3110.92066	2412.5375
3113.28232	2426.2375
3115.64255	2434.8375
3118.00134	2418.0375
3120.35871	2399.4375
3122.71466	2382.2375
3125.06917	2383.5375
3127.42226	2383.1375
3129.77393	2354.6375
3132.12417	2376.5375
3134.47299	2376.6375
3136.82039	2353.2375
3139.16636	2340.9375
3141.51092	2349.7375
3143.85406	2369.9375
3146.19579	2339.5375
3148.53609	2348.5375
3150.87499	2335.9375
3153.21246	2341.9375
3155.54853	2339.4375
3157.88318	2345.8375
3160.21642	2353.1375
3162.54826	2336.6375
3164.87868	2346.3375
3167.2077	2313.4375
3169.5353	2320.0375
3171.86151	2339.9375
3174.18631	2320.1375
3176.5097	2309.8375
3178.83169	2313.6375
3181.15228	2302.9375
3183.47147	2294.5375
3185.78926	2274.5375
3188.10565	2287.9375
3190.42065	2256.1375
3192.73424	2262.4375
3195.04645	2268.7375
3197.35725	2255.6375
3199.66667	2269.6375
3201.97469	2270.4375
3204.28132	2243.1375
3206.58656	2260.3375
3208.8904	2272.8375
3211.19287	2262.0375
3213.49394	2243.0375
3215.79363	2236.3375
3218.09193	2259.1375
3220.38884	2240.1375
3222.68438	2243.0375
3224.97853	2231.7375
3227.2713	2236.7375
3229.56269	2228.0375
3231.8527	2232.7375
3234.14133	2229.7375
3236.42858	2211.2375
3238.71446	2189.6375
3240.99896	2212.5375
3243.28209	2191.4375
3245.56384	2198.2375
3247.84423	2185.2375
3250.12324	2188.3375
3252.40088	2187.7375
3254.67715	2171.4375
3256.95205	2166.0375
3259.22558	2181.3375
3261.49775	2173.9375
3263.76855	2169.6375
3266.03799	2185.3375
3268.30606	2169.7375
3270.57277	2172.7375
3272.83812	2144.1375
3275.10211	2150.2375
3277.36474	2166.8375
3279.62601	2148.0375
3281.88593	2130.3375
3284.14448	2106.1375
3286.40168	2119.3375
3288.65753	2123.9375
3290.91202	2117.4375
3293.16516	2103.0375
3295.41695	2118.4375
3297.66738	2113.6375
3299.91647	2103.0375
3302.16421	2092.0375
3304.4106	2047.0375
3306.65564	2077.3375
3308.89933	2041.9375
3311.14169	2032.7375
3313.38269	2022.2375
3315.62236	2018.6375
3317.86068	1988.0375
3320.09766	1987.4375
3322.3333	1949.2375
3324.5676	1946.2375
3326.80056	1911.8375
3329.03219	1913.1375
3331.26248	-0.8625
3333.49143	0.2375
3335.71905	0.2375
