Data from AgNPs_UA_50uM_CRN_500uM_SU_RamanShift__57__14-05-20-325.txt Node

Date: Thu Aug 04 14:05:20 BST 2022
User: TCL
Spectrometer: QEP01345
Trigger mode: 4
Integration Time (sec): 1.000000E0
Scans to average: 10
Electric dark correction enabled: true
Nonlinearity correction enabled: false
Boxcar width: 0
XAxis mode: Raman Shifts
Number of Pixels in Spectrum: 1044
>>>>>Begin Spectral Data<<<<<
46.04893	1.0375
50.45542	-0.6625
54.85868	0.2375
59.25871	-0.4625
63.6555	18.9375
68.04907	18.2375
72.43941	19.8375
76.82654	21.3375
81.21044	21.0375
85.59113	22.3375
89.96862	22.5375
94.34289	25.8375
98.71396	24.5375
103.08183	23.2375
107.4465	23.4375
111.80798	22.7375
116.16626	25.9375
120.52136	29.9375
124.87327	31.3375
129.222	33.5375
133.56755	37.4375
137.90993	38.7375
142.24913	40.6375
146.58517	48.8375
150.91804	55.0375
155.24774	69.4375
159.57429	89.4375
163.89768	111.6375
168.21792	149.6375
172.53501	209.4375
176.84895	293.7375
181.15975	421.7375
185.46741	590.2375
189.77193	826.8375
194.07331	1112.8375
198.37157	1438.9375
202.6667	1779.4375
206.9587	2121.1375
211.24758	2479.1375
215.53334	2827.7375
219.81599	3208.7375
224.09553	3641.8375
228.37195	4094.9375
232.64527	4619.6375
236.91549	5088.0375
241.18261	5495.4375
245.44663	5818.2375
249.70755	6075.9375
253.96539	6305.2375
258.22014	6502.0375
262.4718	6686.5375
266.72039	6806.4375
270.96589	6852.1375
275.20832	6800.7375
279.44768	6698.1375
283.68397	6589.5375
287.91719	6520.3375
292.14735	6492.8375
296.37445	6642.1375
300.59849	6876.9375
304.81948	7191.6375
309.03742	7493.5375
313.25231	7657.9375
317.46415	7535.4375
321.67296	7197.1375
325.87872	6834.6375
330.08145	6623.9375
334.28114	6641.7375
338.47781	6714.3375
342.67145	6864.2375
346.86207	7106.3375
351.04966	7437.4375
355.23424	7746.9375
359.4158	7963.5375
363.59435	8062.9375
367.76989	8079.3375
371.94243	8031.8375
376.11196	7983.7375
380.27849	7931.9375
384.44203	7913.2375
388.60257	7927.1375
392.76012	7976.7375
396.91468	8099.4375
401.06626	8218.0375
405.21485	8258.2375
409.36047	8094.3375
413.50311	7788.7375
417.64277	7473.8375
421.77947	7314.7375
425.9132	7203.4375
430.04396	7215.2375
434.17176	7246.8375
438.2966	7325.0375
442.41849	7489.1375
446.53742	7675.2375
450.6534	7800.6375
454.76644	7948.4375
458.87653	7979.2375
462.98368	7945.3375
467.08789	7907.5375
471.18916	7732.3375
475.2875	7521.7375
479.38291	7368.2375
483.4754	7275.1375
487.56496	7214.6375
491.6516	7169.2375
495.73531	7147.5375
499.81612	7163.2375
503.89401	7241.5375
507.96899	7289.9375
512.04106	7333.4375
516.11023	7421.8375
520.1765	7488.7375
524.23987	7490.2375
528.30034	7481.9375
532.35792	7452.0375
536.41261	7362.0375
540.46441	7262.5375
544.51333	7236.3375
548.55936	7285.6375
552.60252	7381.0375
556.64279	7544.7375
560.6802	7630.7375
564.71473	7753.7375
568.7464	7923.6375
572.7752	7878.7375
576.80114	7617.6375
580.82422	7397.4375
584.84444	7309.9375
588.86181	7320.3375
592.87633	7406.1375
596.888	7569.5375
600.89682	7958.3375
604.9028	9010.1375
608.90594	11324.6375
612.90624	13613.9375
616.90371	12379.5375
620.89834	9217.5375
624.89015	7968.5375
628.87913	7823.9375
632.86528	7977.4375
636.84862	8003.9375
640.82913	7749.7375
644.80683	7385.8375
648.78172	7199.0375
652.75379	7246.1375
656.72306	7527.7375
660.68952	7802.0375
664.65319	7741.8375
668.61405	7551.7375
672.57211	7577.1375
676.52738	7546.4375
680.47986	7382.8375
684.42955	7217.3375
688.37646	7172.3375
692.32058	7259.7375
696.26192	7401.2375
700.20048	7544.5375
704.13626	7575.9375
708.06928	7461.4375
711.99952	7378.1375
715.927	7382.6375
719.85171	7435.7375
723.77365	7445.5375
727.69284	7361.2375
731.60928	7281.4375
735.52295	7272.7375
739.43388	7304.9375
743.34206	7327.9375
747.24749	7352.9375
751.15017	7358.7375
755.05012	7463.2375
758.94733	7799.7375
762.8418	8631.3375
766.73354	9855.1375
770.62254	10791.3375
774.50882	10969.8375
778.39237	10444.4375
782.27321	9519.8375
786.15132	8545.0375
790.02671	7892.9375
793.89938	7541.9375
797.76935	7392.2375
801.6366	7335.5375
805.50115	7262.0375
809.36299	7238.4375
813.22213	7223.7375
817.07857	7207.1375
820.93231	7220.8375
824.78336	7218.3375
828.63172	7260.3375
832.47738	7257.4375
836.32036	7246.5375
840.16066	7221.0375
843.99827	7225.8375
847.8332	7207.2375
851.66546	7188.6375
855.49504	7206.7375
859.32195	7202.3375
863.1462	7196.0375
866.96777	7168.2375
870.78668	7180.8375
874.60293	7195.0375
878.41652	7216.8375
882.22745	7291.2375
886.03573	7332.2375
889.84136	7299.7375
893.64433	7281.3375
897.44466	7259.9375
901.24235	7235.7375
905.0374	7220.3375
908.8298	7188.5375
912.61957	7151.3375
916.40671	7168.0375
920.19121	7203.0375
923.97308	7272.5375
927.75233	7384.5375
931.52895	7454.4375
935.30295	7388.3375
939.07433	7229.7375
942.84309	7094.3375
946.60924	7076.5375
950.37278	7046.2375
954.13371	7016.1375
957.89203	7001.8375
961.64774	6998.5375
965.40086	6959.2375
969.15137	6952.9375
972.89929	6936.9375
976.64461	6934.5375
980.38733	6947.7375
984.12747	6981.7375
987.86502	7000.7375
991.59999	7055.4375
995.33237	7162.4375
999.06217	7291.8375
1002.78939	7455.0375
1006.51404	7567.7375
1010.23611	7677.5375
1013.95561	7751.5375
1017.67255	7766.5375
1021.38692	7753.8375
1025.09872	7683.3375
1028.80796	7680.5375
1032.51465	7746.7375
1036.21877	7830.9375
1039.92035	7860.2375
1043.61937	7814.3375
1047.31584	7735.8375
1051.00976	7661.9375
1054.70114	7664.1375
1058.38998	7637.9375
1062.07627	7670.7375
1065.76003	7718.2375
1069.44126	7792.9375
1073.11995	7917.8375
1076.79611	8062.9375
1080.46974	8199.7375
1084.14085	8342.0375
1087.80943	8452.8375
1091.47549	8463.3375
1095.13903	8403.8375
1098.80005	8313.0375
1102.45857	8287.2375
1106.11456	8266.3375
1109.76805	8244.5375
1113.41903	8272.1375
1117.06751	8406.5375
1120.71348	8614.5375
1124.35696	8875.7375
1127.99793	9036.9375
1131.63641	8861.1375
1135.2724	8512.8375
1138.90589	8224.2375
1142.5369	8056.9375
1146.16542	7933.3375
1149.79145	7883.3375
1153.415	7789.8375
1157.03607	7788.3375
1160.65467	7879.3375
1164.27079	8061.5375
1167.88443	8377.8375
1171.49561	8852.7375
1175.10432	9576.0375
1178.71056	10539.2375
1182.31434	11319.8375
1185.91565	11591.5375
1189.51451	11398.1375
1193.11091	10989.4375
1196.70485	10547.4375
1200.29634	10175.5375
1203.88538	9795.2375
1207.47197	9356.2375
1211.05612	8923.0375
1214.63782	8619.5375
1218.21708	8462.2375
1221.79391	8374.7375
1225.36829	8360.8375
1228.94024	8357.3375
1232.50976	8314.0375
1236.07685	8295.1375
1239.6415	8306.9375
1243.20374	8326.9375
1246.76355	8386.5375
1250.32093	8510.6375
1253.8759	8667.2375
1257.42845	8932.5375
1260.97859	9222.5375
1264.52631	9511.9375
1268.07163	9730.7375
1271.61453	9848.2375
1275.15503	9885.8375
1278.69312	9958.0375
1282.22882	9999.6375
1285.76211	10194.6375
1289.29301	10399.6375
1292.82151	10611.7375
1296.34761	10874.1375
1299.87133	11326.1375
1303.39266	12104.8375
1306.9116	13254.7375
1310.42815	14526.1375
1313.94233	14930.7375
1317.45412	14308.1375
1320.96354	13243.6375
1324.47058	12267.6375
1327.97525	11440.9375
1331.47754	10954.1375
1334.97747	10859.8375
1338.47502	11003.8375
1341.97022	11399.1375
1345.46305	12104.3375
1348.95352	13058.8375
1352.44163	14132.6375
1355.92738	15354.6375
1359.41078	16996.5375
1362.89183	18139.5375
1366.37053	17140.7375
1369.84688	14524.8375
1373.32088	12161.8375
1376.79254	10846.1375
1380.26186	10226.5375
1383.72883	9864.3375
1387.19347	9527.0375
1390.65578	9189.1375
1394.11575	8864.5375
1397.57339	8643.7375
1401.0287	8577.9375
1404.48168	8524.6375
1407.93234	8629.9375
1411.38068	8776.8375
1414.82669	8969.3375
1418.27039	9035.5375
1421.71177	8976.5375
1425.15083	8888.6375
1428.58758	8863.4375
1432.02203	8951.1375
1435.45416	9064.4375
1438.88399	9021.1375
1442.31151	8949.2375
1445.73673	8949.8375
1449.15965	8967.5375
1452.58027	8874.8375
1455.9986	8762.6375
1459.41463	8720.6375
1462.82837	8781.0375
1466.23982	8952.5375
1469.64898	9116.8375
1473.05586	9265.5375
1476.46045	9388.6375
1479.86276	9504.0375
1483.26279	9668.2375
1486.66054	9904.8375
1490.05602	10238.5375
1493.44922	10774.6375
1496.84016	11585.4375
1500.22882	12759.3375
1503.61521	14257.1375
1506.99934	15751.5375
1510.38121	16704.0375
1513.76081	16534.0375
1517.13816	15154.9375
1520.51324	13347.0375
1523.88607	11756.2375
1527.25665	10794.6375
1530.62498	10271.7375
1533.99105	10006.0375
1537.35488	9845.1375
1540.71647	9707.6375
1544.07581	9565.7375
1547.4329	9475.6375
1550.78776	9406.9375
1554.14038	9363.0375
1557.49077	9449.7375
1560.83892	9597.0375
1564.18484	9881.8375
1567.52853	10197.3375
1570.86999	10398.2375
1574.20922	10433.2375
1577.54624	10230.2375
1580.88103	9726.0375
1584.2136	9193.3375
1587.54395	8921.8375
1590.87208	9002.3375
1594.19801	9402.8375
1597.52172	9909.7375
1600.84321	10117.4375
1604.16251	9936.1375
1607.47959	9623.8375
1610.79447	9210.0375
1614.10715	8696.0375
1617.41763	8240.2375
1620.7259	7936.1375
1624.03199	7773.4375
1627.33587	7791.4375
1630.63757	7911.1375
1633.93707	8308.2375
1637.23439	8896.7375
1640.52951	9841.7375
1643.82246	11106.9375
1647.11321	12383.4375
1650.40179	12920.7375
1653.68819	12207.5375
1656.97241	10585.4375
1660.25446	9043.5375
1663.53433	8016.7375
1666.81203	7408.1375
1670.08756	7072.9375
1673.36092	6839.3375
1676.63211	6697.6375
1679.90115	6600.1375
1683.16801	6531.3375
1686.43272	6465.7375
1689.69527	6403.4375
1692.95567	6373.3375
1696.2139	6336.7375
1699.46999	6349.2375
1702.72392	6316.3375
1705.97571	6322.5375
1709.22535	6334.8375
1712.47284	6330.3375
1715.71819	6343.6375
1718.96139	6329.0375
1722.20246	6297.1375
1725.44139	6279.4375
1728.67818	6221.3375
1731.91284	6182.6375
1735.14537	6153.8375
1738.37576	6121.1375
1741.60403	6108.0375
1744.83017	6101.1375
1748.05418	6099.9375
1751.27607	6066.3375
1754.49584	6041.7375
1757.71349	6022.1375
1760.92903	6018.4375
1764.14244	6006.2375
1767.35375	6005.0375
1770.56294	5983.6375
1773.77002	5986.5375
1776.97499	5965.8375
1780.17785	5931.3375
1783.37861	5916.9375
1786.57727	5905.8375
1789.77382	5893.1375
1792.96828	5897.5375
1796.16064	5866.3375
1799.3509	5851.0375
1802.53907	5849.6375
1805.72514	5821.1375
1808.90913	5816.2375
1812.09102	5804.4375
1815.27083	5776.5375
1818.44856	5764.3375
1821.6242	5749.8375
1824.79776	5744.7375
1827.96924	5719.5375
1831.13864	5707.5375
1834.30597	5684.2375
1837.47122	5677.0375
1840.6344	5693.3375
1843.7955	5661.7375
1846.95454	5664.2375
1850.11151	5663.8375
1853.26642	5649.0375
1856.41926	5663.6375
1859.57004	5664.2375
1862.71876	5652.8375
1865.86542	5632.8375
1869.01003	5649.4375
1872.15258	5635.5375
1875.29308	5648.2375
1878.43152	5635.2375
1881.56792	5618.2375
1884.70227	5607.5375
1887.83457	5601.9375
1890.96482	5599.8375
1894.09304	5589.7375
1897.21921	5580.6375
1900.34335	5538.5375
1903.46544	5538.5375
1906.58551	5534.1375
1909.70353	5537.8375
1912.81953	5498.8375
1915.93349	5510.0375
1919.04543	5509.9375
1922.15534	5491.6375
1925.26322	5485.5375
1928.36908	5473.3375
1931.47292	5458.7375
1934.57473	5451.6375
1937.67453	5441.4375
1940.77232	5403.5375
1943.86808	5391.8375
1946.96184	5386.2375
1950.05358	5381.0375
1953.14331	5358.8375
1956.23103	5341.8375
1959.31675	5300.7375
1962.40046	5308.0375
1965.48217	5290.8375
1968.56188	5259.8375
1971.63959	5266.4375
1974.7153	5252.5375
1977.78901	5242.7375
1980.86073	5219.7375
1983.93046	5205.5375
1986.99819	5169.8375
1990.06394	5142.8375
1993.1277	5134.4375
1996.18947	5124.6375
1999.24925	5103.8375
2002.30706	5094.4375
2005.36288	5064.5375
2008.41672	5048.1375
2011.46859	5039.0375
2014.51848	5036.6375
2017.56639	5014.0375
2020.61233	4986.9375
2023.6563	4974.9375
2026.6983	4953.1375
2029.73833	4938.9375
2032.7764	4920.4375
2035.8125	4914.1375
2038.84664	4903.4375
2041.87881	4909.3375
2044.90903	4882.9375
2047.93729	4878.6375
2050.96359	4871.7375
2053.98794	4856.5375
2057.01034	4850.8375
2060.03078	4846.9375
2063.04927	4850.7375
2066.06582	4858.5375
2069.08042	4837.4375
2072.09307	4815.8375
2075.10378	4814.9375
2078.11255	4802.3375
2081.11938	4812.5375
2084.12426	4794.3375
2087.12722	4821.6375
2090.12824	4793.5375
2093.12732	4801.2375
2096.12447	4803.4375
2099.11969	4799.7375
2102.11299	4804.4375
2105.10435	4803.2375
2108.09379	4800.0375
2111.08131	4787.1375
2114.0669	4801.8375
2117.05057	4800.5375
2120.03233	4814.0375
2123.01216	4806.2375
2125.99008	4805.1375
2128.96609	4827.0375
2131.94018	4814.1375
2134.91236	4808.7375
2137.88263	4804.3375
2140.851	4812.9375
2143.81746	4802.6375
2146.78201	4807.1375
2149.74466	4804.8375
2152.7054	4799.5375
2155.66425	4791.9375
2158.6212	4791.1375
2161.57625	4777.4375
2164.52941	4791.8375
2167.48067	4779.2375
2170.43004	4786.2375
2173.37752	4779.4375
2176.32311	4772.7375
2179.26681	4762.4375
2182.20863	4786.1375
2185.14856	4784.0375
2188.08661	4776.6375
2191.02278	4763.8375
2193.95707	4747.4375
2196.88948	4743.0375
2199.82001	4748.4375
2202.74867	4752.9375
2205.67545	4731.6375
2208.60037	4740.6375
2211.52341	4729.6375
2214.44458	4737.2375
2217.36388	4726.5375
2220.28132	4704.6375
2223.1969	4666.1375
2226.11061	4670.4375
2229.02246	4675.7375
2231.93245	4664.1375
2234.84058	4645.5375
2237.74686	4633.0375
2240.65128	4638.4375
2243.55385	4628.4375
2246.45456	4624.1375
2249.35343	4622.4375
2252.25044	4610.6375
2255.14561	4605.0375
2258.03893	4617.5375
2260.93041	4604.2375
2263.82004	4582.3375
2266.70783	4583.0375
2269.59378	4565.4375
2272.4779	4547.0375
2275.36017	4531.4375
2278.24061	4504.0375
2281.11922	4501.9375
2283.996	4502.6375
2286.87094	4485.9375
2289.74405	4475.5375
2292.61534	4479.7375
2295.4848	4482.3375
2298.35243	4476.3375
2301.21824	4476.1375
2304.08223	4460.6375
2306.94439	4460.4375
2309.80474	4473.0375
2312.66327	4453.0375
2315.51999	4467.8375
2318.37489	4450.4375
2321.22797	4437.6375
2324.07925	4435.8375
2326.92871	4410.7375
2329.77637	4413.4375
2332.62222	4413.4375
2335.46626	4397.1375
2338.3085	4400.6375
2341.14893	4392.1375
2343.98756	4397.2375
2346.8244	4399.2375
2349.65943	4401.6375
2352.49267	4373.3375
2355.32411	4375.1375
2358.15376	4383.9375
2360.98161	4383.5375
2363.80768	4382.9375
2366.63195	4378.6375
2369.45444	4358.3375
2372.27514	4372.5375
2375.09405	4371.4375
2377.91118	4359.0375
2380.72652	4339.1375
2383.54009	4300.5375
2386.35187	4324.4375
2389.16188	4312.5375
2391.97011	4309.4375
2394.77657	4276.4375
2397.58125	4258.9375
2400.38416	4253.4375
2403.18529	4249.3375
2405.98466	4248.1375
2408.78226	4226.2375
2411.57809	4235.3375
2414.37216	4208.8375
2417.16446	4213.3375
2419.955	4198.4375
2422.74378	4207.4375
2425.5308	4214.8375
2428.31606	4193.9375
2431.09956	4203.3375
2433.88131	4185.9375
2436.6613	4184.5375
2439.43954	4185.9375
2442.21603	4191.5375
2444.99077	4187.8375
2447.76377	4181.7375
2450.53501	4168.6375
2453.30451	4158.8375
2456.07226	4179.9375
2458.83827	4154.8375
2461.60254	4148.3375
2464.36507	4171.6375
2467.12586	4138.8375
2469.88492	4148.6375
2472.64224	4145.6375
2475.39782	4143.5375
2478.15167	4138.4375
2480.90379	4120.2375
2483.65417	4143.3375
2486.40283	4139.0375
2489.14976	4159.7375
2491.89497	4158.5375
2494.63845	4143.3375
2497.3802	4141.1375
2500.12024	4121.9375
2502.85855	4124.3375
2505.59514	4111.6375
2508.33002	4104.4375
2511.06318	4088.5375
2513.79462	4085.4375
2516.52435	4073.8375
2519.25237	4065.2375
2521.97867	4055.3375
2524.70327	4052.2375
2527.42616	4051.1375
2530.14734	4056.0375
2532.86681	4041.8375
2535.58458	4055.7375
2538.30065	4036.4375
2541.01501	4035.4375
2543.72768	4021.1375
2546.43864	4013.4375
2549.14791	4008.7375
2551.85548	3997.1375
2554.56136	4004.8375
2557.26554	3996.8375
2559.96803	3986.1375
2562.66883	3972.0375
2565.36794	3971.2375
2568.06536	3970.1375
2570.7611	3951.1375
2573.45514	3954.8375
2576.14751	3949.6375
2578.83819	3922.6375
2581.52719	3927.5375
2584.21451	3928.3375
2586.90015	3914.9375
2589.58411	3916.8375
2592.2664	3909.9375
2594.94701	3903.2375
2597.62594	3893.3375
2600.30321	3902.9375
2602.9788	3902.5375
2605.65273	3878.1375
2608.32498	3881.2375
2610.99557	3879.7375
2613.66449	3881.8375
2616.33175	3871.4375
2618.99734	3877.9375
2621.66128	3856.3375
2624.32355	3860.2375
2626.98416	3856.5375
2629.64311	3857.1375
2632.30041	3850.3375
2634.95605	3834.1375
2637.61004	3810.1375
2640.26238	3825.3375
2642.91306	3816.7375
2645.56209	3803.3375
2648.20948	3810.6375
2650.85521	3797.2375
2653.4993	3793.1375
2656.14175	3790.4375
2658.78255	3806.8375
2661.42171	3799.4375
2664.05923	3790.6375
2666.6951	3797.8375
2669.32934	3792.1375
2671.96194	3782.0375
2674.59291	3795.5375
2677.22224	3793.7375
2679.84993	3800.3375
2682.476	3773.3375
2685.10043	3794.1375
2687.72324	3789.2375
2690.34441	3773.0375
2692.96396	3781.5375
2695.58188	3767.2375
2698.19818	3765.5375
2700.81285	3768.0375
2703.4259	3766.7375
2706.03733	3781.7375
2708.64714	3767.3375
2711.25533	3755.8375
2713.86191	3757.3375
2716.46687	3761.1375
2719.07021	3753.4375
2721.67194	3763.4375
2724.27206	3758.9375
2726.87057	3763.7375
2729.46747	3750.0375
2732.06276	3744.3375
2734.65644	3732.3375
2737.24852	3735.1375
2739.83899	3742.7375
2742.42786	3736.9375
2745.01513	3711.6375
2747.60079	3707.0375
2750.18486	3721.5375
2752.76733	3709.1375
2755.3482	3695.2375
2757.92747	3686.0375
2760.50515	3692.0375
2763.08123	3688.1375
2765.65573	3670.6375
2768.22863	3657.5375
2770.79994	3651.4375
2773.36967	3647.7375
2775.9378	3661.2375
2778.50435	3663.4375
2781.06932	3656.4375
2783.6327	3641.8375
2786.1945	3640.1375
2788.75471	3651.2375
2791.31335	3638.4375
2793.87041	3619.9375
2796.42589	3632.7375
2798.97979	3632.5375
2801.53212	3608.7375
2804.08288	3601.6375
2806.63206	3615.1375
2809.17967	3587.1375
2811.72571	3581.9375
2814.27018	3566.8375
2816.81308	3563.3375
2819.35442	3554.5375
2821.89419	3553.1375
2824.43239	3551.9375
2826.96904	3552.1375
2829.50412	3549.4375
2832.03763	3537.0375
2834.56959	3520.3375
2837.1	3520.3375
2839.62884	3513.6375
2842.15613	3502.2375
2844.68186	3517.5375
2847.20604	3500.9375
2849.72867	3498.2375
2852.24974	3487.9375
2854.76927	3497.4375
2857.28724	3467.7375
2859.80367	3485.0375
2862.31855	3483.4375
2864.83189	3488.4375
2867.34368	3478.3375
2869.85393	3469.1375
2872.36264	3465.0375
2874.8698	3466.9375
2877.37543	3461.2375
2879.87952	3466.5375
2882.38207	3455.2375
2884.88308	3430.1375
2887.38256	3439.5375
2889.88051	3427.5375
2892.37692	3426.4375
2894.8718	3415.5375
2897.36515	3420.8375
2899.85698	3426.0375
2902.34727	3427.5375
2904.83604	3436.3375
2907.32328	3440.0375
2909.809	3442.5375
2912.29319	3445.6375
2914.77587	3439.1375
2917.25702	3439.9375
2919.73665	3436.4375
2922.21476	3438.9375
2924.69136	3433.9375
2927.16644	3429.1375
2929.64	3420.6375
2932.11205	3406.3375
2934.58258	3396.4375
2937.05161	3401.7375
2939.51912	3398.6375
2941.98513	3377.4375
2944.44962	3386.4375
2946.91261	3371.5375
2949.37409	3372.9375
2951.83407	3383.0375
2954.29254	3385.3375
2956.74951	3383.5375
2959.20498	3382.7375
2961.65895	3349.5375
2964.11142	3360.6375
2966.56239	3344.0375
2969.01186	3343.5375
2971.45984	3354.5375
2973.90632	3353.5375
2976.35131	3334.8375
2978.7948	3338.6375
2981.23681	3340.0375
2983.67732	3323.7375
2986.11635	3315.4375
2988.55388	3296.3375
2990.98993	3295.2375
2993.4245	3288.3375
2995.85758	3293.2375
2998.28917	3277.4375
3000.71928	3259.0375
3003.14791	3256.7375
3005.57506	3247.8375
3008.00073	3240.0375
3010.42493	3237.1375
3012.84764	3227.5375
3015.26888	3223.4375
3017.68865	3218.7375
3020.10694	3195.0375
3022.52376	3203.4375
3024.9391	3181.5375
3027.35298	3176.1375
3029.76539	3165.4375
3032.17632	3169.1375
3034.5858	3151.5375
3036.9938	3153.1375
3039.40034	3138.8375
3041.80542	3141.4375
3044.20903	3131.5375
3046.61118	3136.0375
3049.01187	3129.4375
3051.4111	3110.3375
3053.80888	3105.5375
3056.20519	3096.1375
3058.60005	3098.0375
3060.99345	3097.6375
3063.3854	3093.6375
3065.7759	3072.2375
3068.16494	3067.1375
3070.55254	3059.6375
3072.93868	3051.9375
3075.32338	3033.3375
3077.70662	3024.1375
3080.08842	3025.7375
3082.46878	3013.6375
3084.84769	3003.5375
3087.22515	2995.8375
3089.60118	3002.4375
3091.97576	3006.1375
3094.3489	2994.3375
3096.72061	2983.4375
3099.09087	2986.4375
3101.4597	2986.1375
3103.82709	2986.2375
3106.19305	2967.8375
3108.55757	2963.7375
3110.92066	2968.6375
3113.28232	2976.7375
3115.64255	2958.1375
3118.00134	2941.0375
3120.35871	2947.7375
3122.71466	2940.1375
3125.06917	2932.1375
3127.42226	2915.5375
3129.77393	2924.9375
3132.12417	2918.7375
3134.47299	2916.1375
3136.82039	2908.6375
3139.16636	2898.8375
3141.51092	2908.7375
3143.85406	2893.3375
3146.19579	2899.4375
3148.53609	2891.1375
3150.87499	2902.5375
3153.21246	2900.5375
3155.54853	2901.5375
3157.88318	2900.1375
3160.21642	2895.4375
3162.54826	2899.4375
3164.87868	2887.0375
3167.2077	2884.5375
3169.5353	2876.0375
3171.86151	2879.9375
3174.18631	2864.7375
3176.5097	2865.3375
3178.83169	2857.8375
3181.15228	2868.5375
3183.47147	2849.1375
3185.78926	2845.4375
3188.10565	2824.2375
3190.42065	2825.6375
3192.73424	2823.0375
3195.04645	2821.8375
3197.35725	2804.2375
3199.66667	2814.3375
3201.97469	2817.6375
3204.28132	2803.3375
3206.58656	2821.7375
3208.8904	2810.6375
3211.19287	2812.9375
3213.49394	2821.9375
3215.79363	2809.2375
3218.09193	2824.0375
3220.38884	2811.7375
3222.68438	2816.3375
3224.97853	2793.0375
3227.2713	2792.1375
3229.56269	2795.2375
3231.8527	2780.2375
3234.14133	2789.9375
3236.42858	2771.5375
3238.71446	2762.9375
3240.99896	2764.8375
3243.28209	2759.9375
3245.56384	2744.4375
3247.84423	2757.9375
3250.12324	2746.2375
3252.40088	2744.9375
3254.67715	2737.4375
3256.95205	2734.6375
3259.22558	2735.9375
3261.49775	2723.3375
3263.76855	2735.1375
3266.03799	2734.9375
3268.30606	2725.2375
3270.57277	2728.4375
3272.83812	2715.3375
3275.10211	2687.7375
3277.36474	2693.7375
3279.62601	2701.0375
3281.88593	2683.2375
3284.14448	2690.3375
3286.40168	2691.7375
3288.65753	2698.4375
3290.91202	2685.6375
3293.16516	2678.8375
3295.41695	2687.9375
3297.66738	2664.5375
3299.91647	2648.1375
3302.16421	2621.9375
3304.4106	2611.3375
3306.65564	2599.6375
3308.89933	2589.1375
3311.14169	2566.2375
3313.38269	2544.8375
3315.62236	2524.5375
3317.86068	2501.8375
3320.09766	2481.7375
3322.3333	2465.4375
3324.5676	2449.1375
3326.80056	2410.2375
3329.03219	2397.9375
3331.26248	0.3375
3333.49143	-0.3625
3335.71905	0.2375
