Data from AgNPs_UA_5uM_CRN_500uM_SU_RamanShift__60__11-39-23-151.txt Node

Date: Thu Aug 04 11:39:23 BST 2022
User: TCL
Spectrometer: QEP01345
Trigger mode: 4
Integration Time (sec): 1.000000E0
Scans to average: 10
Electric dark correction enabled: true
Nonlinearity correction enabled: false
Boxcar width: 0
XAxis mode: Raman Shifts
Number of Pixels in Spectrum: 1044
>>>>>Begin Spectral Data<<<<<
46.04893	0.4625
50.45542	0.0625
54.85868	0.1625
59.25871	-0.5375
63.6555	-57.1375
68.04907	-37.1375
72.43941	-68.3375
76.82654	-55.3375
81.21044	-54.2375
85.59113	-48.5375
89.96862	-73.4375
94.34289	-52.5375
98.71396	-73.3375
103.08183	-53.8375
107.4465	-47.5375
111.80798	-53.4375
116.16626	-41.0375
120.52136	-69.8375
124.87327	-45.7375
129.222	-54.9375
133.56755	-43.3375
137.90993	-54.7375
142.24913	-42.8375
146.58517	-33.5375
150.91804	-26.7375
155.24774	-11.6375
159.57429	14.7625
163.89768	27.7625
168.21792	83.2625
172.53501	124.4625
176.84895	235.9625
181.15975	412.7625
185.46741	620.2625
189.77193	873.8625
194.07331	1255.7625
198.37157	1660.1625
202.6667	2064.1625
206.9587	2526.5625
211.24758	2994.1625
215.53334	3518.7625
219.81599	4107.6625
224.09553	4803.7625
228.37195	5520.1625
232.64527	6182.0625
236.91549	6768.4625
241.18261	7107.6625
245.44663	7280.2625
249.70755	7322.2625
253.96539	7400.8625
258.22014	7494.9625
262.4718	7592.8625
266.72039	7639.3625
270.96589	7513.1625
275.20832	7267.9625
279.44768	7019.3625
283.68397	6806.1625
287.91719	6751.6625
292.14735	6843.7625
296.37445	7259.3625
300.59849	7955.9625
304.81948	8922.6625
309.03742	10010.6625
313.25231	10809.2625
317.46415	10675.0625
321.67296	9544.7625
325.87872	8229.5625
330.08145	7492.8625
334.28114	7335.2625
338.47781	7550.4625
342.67145	7962.8625
346.86207	8680.6625
351.04966	9742.5625
355.23424	10826.1625
359.4158	11286.9625
363.59435	10983.8625
367.76989	10370.1625
371.94243	9777.7625
376.11196	9270.4625
380.27849	8942.1625
384.44203	8673.4625
388.60257	8550.5625
392.76012	8589.0625
396.91468	8827.7625
401.06626	9132.7625
405.21485	9173.1625
409.36047	8716.4625
413.50311	7903.3625
417.64277	7147.5625
421.77947	6694.8625
425.9132	6470.2625
430.04396	6360.4625
434.17176	6330.7625
438.2966	6448.1625
442.41849	6608.3625
446.53742	6790.2625
450.6534	6929.6625
454.76644	6939.1625
458.87653	6908.9625
462.98368	6828.4625
467.08789	6719.5625
471.18916	6545.3625
475.2875	6314.4625
479.38291	6137.6625
483.4754	5995.0625
487.56496	5964.3625
491.6516	5904.7625
495.73531	5891.6625
499.81612	5957.6625
503.89401	6093.4625
507.96899	6256.3625
512.04106	6438.7625
516.11023	6638.3625
520.1765	6814.1625
524.23987	6872.1625
528.30034	6847.1625
532.35792	6705.8625
536.41261	6597.2625
540.46441	6429.4625
544.51333	6299.6625
548.55936	6311.1625
552.60252	6438.6625
556.64279	6621.0625
560.6802	6945.3625
564.71473	7656.5625
568.7464	8544.2625
572.7752	8474.4625
576.80114	7303.3625
580.82422	6351.4625
584.84444	5965.1625
588.86181	5837.9625
592.87633	5862.3625
596.888	6026.9625
600.89682	6671.5625
604.9028	8716.3625
608.90594	13798.4625
612.90624	19938.3625
616.90371	18174.2625
620.89834	10559.7625
624.89015	7240.6625
628.87913	6850.9625
632.86528	7363.7625
636.84862	7591.8625
640.82913	7020.2625
644.80683	6219.9625
648.78172	5822.1625
652.75379	5947.4625
656.72306	6566.2625
660.68952	7145.5625
664.65319	6864.1625
668.61405	6143.4625
672.57211	5862.4625
676.52738	5887.4625
680.47986	5785.2625
684.42955	5615.2625
688.37646	5566.0625
692.32058	5577.4625
696.26192	5687.3625
700.20048	5830.1625
704.13626	5849.5625
708.06928	5763.1625
711.99952	5727.8625
715.927	5741.2625
719.85171	5899.3625
723.77365	6019.6625
727.69284	5906.8625
731.60928	5788.0625
735.52295	5745.4625
739.43388	5800.8625
743.34206	5834.0625
747.24749	5856.0625
751.15017	5875.1625
755.05012	6099.7625
758.94733	7069.9625
762.8418	9277.3625
766.73354	12182.2625
770.62254	13713.6625
774.50882	13170.6625
778.39237	12139.8625
782.27321	10524.1625
786.15132	8337.1625
790.02671	6833.8625
793.89938	6103.7625
797.76935	5884.0625
801.6366	5746.3625
805.50115	5674.1625
809.36299	5652.7625
813.22213	5627.3625
817.07857	5653.3625
820.93231	5660.7625
824.78336	5744.9625
828.63172	5823.0625
832.47738	5861.8625
836.32036	5803.2625
840.16066	5627.9625
843.99827	5550.1625
847.8332	5505.3625
851.66546	5525.6625
855.49504	5507.3625
859.32195	5520.9625
863.1462	5474.0625
866.96777	5467.6625
870.78668	5462.1625
874.60293	5508.7625
878.41652	5558.5625
882.22745	5681.6625
886.03573	5752.7625
889.84136	5721.3625
893.64433	5691.5625
897.44466	5695.8625
901.24235	5692.9625
905.0374	5644.7625
908.8298	5499.0625
912.61957	5411.6625
916.40671	5317.7625
920.19121	5384.2625
923.97308	5541.9625
927.75233	5819.5625
931.52895	6138.0625
935.30295	5983.8625
939.07433	5540.8625
942.84309	5248.1625
946.60924	5141.4625
950.37278	5085.5625
954.13371	5085.7625
957.89203	5073.6625
961.64774	5089.0625
965.40086	5070.0625
969.15137	5031.1625
972.89929	5070.9625
976.64461	5059.4625
980.38733	5041.4625
984.12747	5031.6625
987.86502	5060.9625
991.59999	5080.7625
995.33237	5157.5625
999.06217	5204.0625
1002.78939	5363.8625
1006.51404	5614.6625
1010.23611	5727.0625
1013.95561	5655.3625
1017.67255	5510.8625
1021.38692	5406.5625
1025.09872	5297.4625
1028.80796	5225.3625
1032.51465	5246.2625
1036.21877	5263.9625
1039.92035	5333.8625
1043.61937	5366.0625
1047.31584	5453.6625
1051.00976	5469.6625
1054.70114	5447.1625
1058.38998	5397.4625
1062.07627	5394.7625
1065.76003	5402.7625
1069.44126	5469.2625
1073.11995	5574.2625
1076.79611	5823.9625
1080.46974	6205.9625
1084.14085	6739.8625
1087.80943	7177.6625
1091.47549	7176.4625
1095.13903	6768.6625
1098.80005	6372.7625
1102.45857	6189.5625
1106.11456	6171.4625
1109.76805	6176.2625
1113.41903	6428.9625
1117.06751	6894.8625
1120.71348	7630.9625
1124.35696	8749.5625
1127.99793	9527.2625
1131.63641	8929.9625
1135.2724	7718.2625
1138.90589	6877.3625
1142.5369	6423.0625
1146.16542	6115.0625
1149.79145	5908.3625
1153.415	5836.2625
1157.03607	5868.8625
1160.65467	6014.8625
1164.27079	6337.8625
1167.88443	6787.3625
1171.49561	7582.0625
1175.10432	8892.6625
1178.71056	10754.3625
1182.31434	12075.1625
1185.91565	11951.2625
1189.51451	10799.3625
1193.11091	9609.4625
1196.70485	8823.3625
1200.29634	8486.1625
1203.88538	8083.8625
1207.47197	7306.9625
1211.05612	6584.6625
1214.63782	6108.5625
1218.21708	5858.3625
1221.79391	5761.8625
1225.36829	5723.8625
1228.94024	5745.4625
1232.50976	5733.7625
1236.07685	5754.5625
1239.6415	5800.2625
1243.20374	5885.1625
1246.76355	6005.9625
1250.32093	6176.5625
1253.8759	6372.8625
1257.42845	6781.2625
1260.97859	7282.4625
1264.52631	7785.8625
1268.07163	8065.4625
1271.61453	8117.4625
1275.15503	7974.5625
1278.69312	7761.0625
1282.22882	7910.6625
1285.76211	8546.2625
1289.29301	9428.5625
1292.82151	10032.8625
1296.34761	10285.9625
1299.87133	10909.7625
1303.39266	12474.5625
1306.9116	15408.9625
1310.42815	18959.4625
1313.94233	20129.1625
1317.45412	17448.9625
1320.96354	13664.1625
1324.47058	10754.9625
1327.97525	8942.0625
1331.47754	8005.2625
1334.97747	7691.1625
1338.47502	7850.2625
1341.97022	8552.2625
1345.46305	10173.6625
1348.95352	12478.6625
1352.44163	14824.7625
1355.92738	17604.4625
1359.41078	22365.9625
1362.89183	27526.3625
1366.37053	26385.3625
1369.84688	19061.2625
1373.32088	12864.6625
1376.79254	10159.1625
1380.26186	8981.2625
1383.72883	8029.8625
1387.19347	7185.5625
1390.65578	6507.2625
1394.11575	6132.0625
1397.57339	5943.2625
1401.0287	5799.4625
1404.48168	5679.9625
1407.93234	5665.0625
1411.38068	5742.9625
1414.82669	6038.8625
1418.27039	6382.4625
1421.71177	6471.0625
1425.15083	6289.5625
1428.58758	6297.5625
1432.02203	6574.0625
1435.45416	6811.5625
1438.88399	6606.3625
1442.31151	6352.5625
1445.73673	6298.6625
1449.15965	6272.0625
1452.58027	6194.2625
1455.9986	6080.1625
1459.41463	5977.5625
1462.82837	5978.4625
1466.23982	6187.2625
1469.64898	6440.2625
1473.05586	6550.9625
1476.46045	6566.5625
1479.86276	6599.0625
1483.26279	6814.5625
1486.66054	7291.6625
1490.05602	8038.8625
1493.44922	9243.0625
1496.84016	11142.0625
1500.22882	14093.4625
1503.61521	18117.4625
1506.99934	23233.1625
1510.38121	28050.7625
1513.76081	29740.5625
1517.13816	26378.0625
1520.51324	20165.9625
1523.88607	14688.7625
1527.25665	11217.2625
1530.62498	9284.3625
1533.99105	8161.6625
1537.35488	7439.0625
1540.71647	7011.0625
1544.07581	6829.6625
1547.4329	6849.1625
1550.78776	6951.0625
1554.14038	7203.2625
1557.49077	7573.5625
1560.83892	8244.3625
1564.18484	9266.5625
1567.52853	10404.9625
1570.86999	11142.3625
1574.20922	11256.8625
1577.54624	10827.1625
1580.88103	9473.2625
1584.2136	7807.2625
1587.54395	6843.8625
1590.87208	6596.6625
1594.19801	6882.8625
1597.52172	7419.3625
1600.84321	7455.5625
1604.16251	6882.7625
1607.47959	6356.1625
1610.79447	6030.2625
1614.10715	5709.8625
1617.41763	5479.8625
1620.7259	5346.4625
1624.03199	5371.1625
1627.33587	5460.1625
1630.63757	5702.3625
1633.93707	6237.4625
1637.23439	7095.9625
1640.52951	8737.4625
1643.82246	11526.7625
1647.11321	15227.4625
1650.40179	18147.8625
1653.68819	17849.5625
1656.97241	14387.0625
1660.25446	10401.2625
1663.53433	7708.8625
1666.81203	6209.9625
1670.08756	5449.9625
1673.36092	5057.0625
1676.63211	4779.7625
1679.90115	4642.2625
1683.16801	4503.9625
1686.43272	4396.3625
1689.69527	4342.7625
1692.95567	4266.1625
1696.2139	4240.9625
1699.46999	4191.0625
1702.72392	4180.0625
1705.97571	4184.1625
1709.22535	4169.2625
1712.47284	4228.2625
1715.71819	4240.1625
1718.96139	4252.6625
1722.20246	4228.8625
1725.44139	4182.5625
1728.67818	4136.5625
1731.91284	4080.7625
1735.14537	4024.6625
1738.37576	3995.1625
1741.60403	3993.5625
1744.83017	3939.6625
1748.05418	3926.7625
1751.27607	3931.8625
1754.49584	3887.1625
1757.71349	3827.4625
1760.92903	3814.8625
1764.14244	3752.7625
1767.35375	3742.7625
1770.56294	3702.5625
1773.77002	3673.6625
1776.97499	3667.6625
1780.17785	3626.8625
1783.37861	3614.6625
1786.57727	3629.6625
1789.77382	3561.4625
1792.96828	3595.5625
1796.16064	3597.8625
1799.3509	3598.9625
1802.53907	3592.6625
1805.72514	3548.3625
1808.90913	3540.1625
1812.09102	3556.2625
1815.27083	3516.5625
1818.44856	3510.5625
1821.6242	3496.5625
1824.79776	3476.7625
1827.96924	3476.8625
1831.13864	3442.8625
1834.30597	3437.1625
1837.47122	3411.4625
1840.6344	3394.4625
1843.7955	3369.5625
1846.95454	3348.3625
1850.11151	3376.1625
1853.26642	3332.1625
1856.41926	3346.3625
1859.57004	3338.7625
1862.71876	3346.4625
1865.86542	3360.5625
1869.01003	3356.3625
1872.15258	3324.2625
1875.29308	3356.8625
1878.43152	3350.3625
1881.56792	3337.5625
1884.70227	3305.6625
1887.83457	3313.7625
1890.96482	3278.4625
1894.09304	3280.7625
1897.21921	3272.9625
1900.34335	3273.4625
1903.46544	3260.4625
1906.58551	3273.7625
1909.70353	3267.2625
1912.81953	3263.4625
1915.93349	3257.1625
1919.04543	3238.7625
1922.15534	3217.3625
1925.26322	3217.0625
1928.36908	3178.9625
1931.47292	3181.2625
1934.57473	3180.1625
1937.67453	3132.0625
1940.77232	3103.6625
1943.86808	3112.4625
1946.96184	3088.9625
1950.05358	3067.9625
1953.14331	3055.7625
1956.23103	3062.6625
1959.31675	3034.2625
1962.40046	3001.9625
1965.48217	3044.0625
1968.56188	3051.2625
1971.63959	3044.6625
1974.7153	3058.9625
1977.78901	3037.3625
1980.86073	3016.5625
1983.93046	2965.0625
1986.99819	2885.7625
1990.06394	2892.7625
1993.1277	2919.6625
1996.18947	2898.6625
1999.24925	2866.6625
2002.30706	2873.4625
2005.36288	2869.7625
2008.41672	2852.9625
2011.46859	2826.0625
2014.51848	2813.4625
2017.56639	2793.3625
2020.61233	2784.8625
2023.6563	2779.1625
2026.6983	2750.1625
2029.73833	2746.2625
2032.7764	2762.1625
2035.8125	2710.8625
2038.84664	2718.0625
2041.87881	2709.5625
2044.90903	2722.3625
2047.93729	2724.8625
2050.96359	2698.3625
2053.98794	2693.8625
2057.01034	2694.3625
2060.03078	2668.9625
2063.04927	2654.2625
2066.06582	2654.9625
2069.08042	2639.2625
2072.09307	2647.4625
2075.10378	2647.3625
2078.11255	2626.4625
2081.11938	2621.6625
2084.12426	2630.0625
2087.12722	2626.7625
2090.12824	2619.4625
2093.12732	2626.5625
2096.12447	2632.5625
2099.11969	2637.1625
2102.11299	2613.0625
2105.10435	2645.9625
2108.09379	2624.4625
2111.08131	2619.0625
2114.0669	2628.5625
2117.05057	2629.2625
2120.03233	2626.6625
2123.01216	2664.5625
2125.99008	2665.5625
2128.96609	2679.8625
2131.94018	2669.4625
2134.91236	2670.8625
2137.88263	2637.2625
2140.851	2628.3625
2143.81746	2650.9625
2146.78201	2622.4625
2149.74466	2595.9625
2152.7054	2608.8625
2155.66425	2584.5625
2158.6212	2577.6625
2161.57625	2567.9625
2164.52941	2531.0625
2167.48067	2564.0625
2170.43004	2553.1625
2173.37752	2560.7625
2176.32311	2578.9625
2179.26681	2578.4625
2182.20863	2570.8625
2185.14856	2569.9625
2188.08661	2557.0625
2191.02278	2575.7625
2193.95707	2541.8625
2196.88948	2521.7625
2199.82001	2527.8625
2202.74867	2518.4625
2205.67545	2531.6625
2208.60037	2529.4625
2211.52341	2525.4625
2214.44458	2506.6625
2217.36388	2504.3625
2220.28132	2492.2625
2223.1969	2475.7625
2226.11061	2478.8625
2229.02246	2457.1625
2231.93245	2466.1625
2234.84058	2450.6625
2237.74686	2433.4625
2240.65128	2438.5625
2243.55385	2455.4625
2246.45456	2424.1625
2249.35343	2444.8625
2252.25044	2449.4625
2255.14561	2464.8625
2258.03893	2482.0625
2260.93041	2477.6625
2263.82004	2489.5625
2266.70783	2504.9625
2269.59378	2471.2625
2272.4779	2447.2625
2275.36017	2468.8625
2278.24061	2449.4625
2281.11922	2416.3625
2283.996	2427.3625
2286.87094	2401.4625
2289.74405	2392.0625
2292.61534	2381.7625
2295.4848	2379.2625
2298.35243	2367.5625
2301.21824	2351.3625
2304.08223	2339.4625
2306.94439	2359.7625
2309.80474	2364.0625
2312.66327	2366.2625
2315.51999	2324.8625
2318.37489	2331.0625
2321.22797	2330.9625
2324.07925	2320.3625
2326.92871	2316.8625
2329.77637	2298.8625
2332.62222	2297.0625
2335.46626	2279.9625
2338.3085	2291.6625
2341.14893	2305.4625
2343.98756	2321.6625
2346.8244	2289.2625
2349.65943	2293.3625
2352.49267	2292.8625
2355.32411	2319.1625
2358.15376	2315.5625
2360.98161	2336.0625
2363.80768	2320.7625
2366.63195	2343.1625
2369.45444	2355.1625
2372.27514	2353.5625
2375.09405	2365.3625
2377.91118	2329.3625
2380.72652	2313.6625
2383.54009	2313.6625
2386.35187	2322.5625
2389.16188	2285.5625
2391.97011	2277.9625
2394.77657	2258.2625
2397.58125	2262.8625
2400.38416	2241.8625
2403.18529	2221.1625
2405.98466	2212.2625
2408.78226	2199.7625
2411.57809	2205.5625
2414.37216	2176.9625
2417.16446	2197.5625
2419.955	2171.2625
2422.74378	2194.8625
2425.5308	2188.2625
2428.31606	2196.9625
2431.09956	2199.3625
2433.88131	2186.9625
2436.6613	2194.3625
2439.43954	2187.5625
2442.21603	2196.6625
2444.99077	2193.3625
2447.76377	2211.0625
2450.53501	2200.4625
2453.30451	2196.7625
2456.07226	2207.8625
2458.83827	2206.6625
2461.60254	2162.0625
2464.36507	2190.6625
2467.12586	2175.3625
2469.88492	2177.3625
2472.64224	2190.8625
2475.39782	2175.7625
2478.15167	2195.4625
2480.90379	2185.4625
2483.65417	2214.7625
2486.40283	2232.2625
2489.14976	2233.4625
2491.89497	2228.2625
2494.63845	2227.7625
2497.3802	2224.0625
2500.12024	2210.1625
2502.85855	2201.6625
2505.59514	2193.4625
2508.33002	2175.1625
2511.06318	2129.1625
2513.79462	2128.4625
2516.52435	2066.6625
2519.25237	2050.4625
2521.97867	2059.8625
2524.70327	2040.4625
2527.42616	2035.9625
2530.14734	2045.3625
2532.86681	2022.9625
2535.58458	2022.3625
2538.30065	2020.9625
2541.01501	2037.7625
2543.72768	2029.2625
2546.43864	2029.0625
2549.14791	2027.0625
2551.85548	2009.6625
2554.56136	2022.3625
2557.26554	2028.7625
2559.96803	2031.9625
2562.66883	2030.3625
2565.36794	2021.5625
2568.06536	1995.8625
2570.7611	2024.3625
2573.45514	2010.7625
2576.14751	2008.6625
2578.83819	1989.7625
2581.52719	1972.7625
2584.21451	1975.4625
2586.90015	1964.5625
2589.58411	1944.1625
2592.2664	1962.4625
2594.94701	1960.1625
2597.62594	1968.7625
2600.30321	1905.3625
2602.9788	1933.2625
2605.65273	1920.6625
2608.32498	1936.0625
2610.99557	1952.8625
2613.66449	1925.2625
2616.33175	1935.9625
2618.99734	1935.3625
2621.66128	1923.6625
2624.32355	1916.3625
2626.98416	1896.9625
2629.64311	1887.5625
2632.30041	1891.6625
2634.95605	1871.1625
2637.61004	1847.2625
2640.26238	1834.0625
2642.91306	1837.7625
2645.56209	1850.9625
2648.20948	1846.1625
2650.85521	1826.5625
2653.4993	1851.3625
2656.14175	1845.6625
2658.78255	1830.7625
2661.42171	1806.8625
2664.05923	1851.3625
2666.6951	1864.6625
2669.32934	1879.2625
2671.96194	1883.6625
2674.59291	1874.6625
2677.22224	1884.3625
2679.84993	1877.3625
2682.476	1852.7625
2685.10043	1855.7625
2687.72324	1839.7625
2690.34441	1837.8625
2692.96396	1833.2625
2695.58188	1850.7625
2698.19818	1831.3625
2700.81285	1828.6625
2703.4259	1813.2625
2706.03733	1787.5625
2708.64714	1795.3625
2711.25533	1819.7625
2713.86191	1828.1625
2716.46687	1823.5625
2719.07021	1831.0625
2721.67194	1833.0625
2724.27206	1840.5625
2726.87057	1818.7625
2729.46747	1805.1625
2732.06276	1812.1625
2734.65644	1792.5625
2737.24852	1787.6625
2739.83899	1773.3625
2742.42786	1784.4625
2745.01513	1789.1625
2747.60079	1762.9625
2750.18486	1751.1625
2752.76733	1755.0625
2755.3482	1737.7625
2757.92747	1741.7625
2760.50515	1711.6625
2763.08123	1707.2625
2765.65573	1723.8625
2768.22863	1702.7625
2770.79994	1701.4625
2773.36967	1692.5625
2775.9378	1689.2625
2778.50435	1682.8625
2781.06932	1688.0625
2783.6327	1676.5625
2786.1945	1703.5625
2788.75471	1686.5625
2791.31335	1685.0625
2793.87041	1686.2625
2796.42589	1675.2625
2798.97979	1671.5625
2801.53212	1674.4625
2804.08288	1700.5625
2806.63206	1691.9625
2809.17967	1686.2625
2811.72571	1708.5625
2814.27018	1706.9625
2816.81308	1701.0625
2819.35442	1680.3625
2821.89419	1711.5625
2824.43239	1702.4625
2826.96904	1745.2625
2829.50412	1708.5625
2832.03763	1717.1625
2834.56959	1706.2625
2837.1	1698.9625
2839.62884	1706.5625
2842.15613	1683.5625
2844.68186	1686.3625
2847.20604	1662.8625
2849.72867	1674.1625
2852.24974	1690.4625
2854.76927	1667.5625
2857.28724	1634.8625
2859.80367	1706.1625
2862.31855	1716.3625
2864.83189	1711.7625
2867.34368	1723.8625
2869.85393	1743.5625
2872.36264	1718.0625
2874.8698	1724.1625
2877.37543	1732.9625
2879.87952	1700.9625
2882.38207	1683.9625
2884.88308	1686.6625
2887.38256	1680.7625
2889.88051	1676.9625
2892.37692	1665.9625
2894.8718	1651.3625
2897.36515	1661.7625
2899.85698	1653.6625
2902.34727	1661.9625
2904.83604	1666.3625
2907.32328	1684.8625
2909.809	1695.2625
2912.29319	1705.2625
2914.77587	1705.6625
2917.25702	1727.0625
2919.73665	1720.3625
2922.21476	1699.1625
2924.69136	1688.3625
2927.16644	1668.3625
2929.64	1659.9625
2932.11205	1636.9625
2934.58258	1637.7625
2937.05161	1621.8625
2939.51912	1629.9625
2941.98513	1636.9625
2944.44962	1614.9625
2946.91261	1607.2625
2949.37409	1616.3625
2951.83407	1606.6625
2954.29254	1605.9625
2956.74951	1611.5625
2959.20498	1600.4625
2961.65895	1608.0625
2964.11142	1601.9625
2966.56239	1594.0625
2969.01186	1600.7625
2971.45984	1598.2625
2973.90632	1584.6625
2976.35131	1599.2625
2978.7948	1596.1625
2981.23681	1582.6625
2983.67732	1598.3625
2986.11635	1602.7625
2988.55388	1574.9625
2990.98993	1581.3625
2993.4245	1573.6625
2995.85758	1569.3625
2998.28917	1572.5625
3000.71928	1565.0625
3003.14791	1566.2625
3005.57506	1556.7625
3008.00073	1543.0625
3010.42493	1486.4625
3012.84764	1548.8625
3015.26888	1538.7625
3017.68865	1528.0625
3020.10694	1496.9625
3022.52376	1507.3625
3024.9391	1501.9625
3027.35298	1492.3625
3029.76539	1486.4625
3032.17632	1472.5625
3034.5858	1463.7625
3036.9938	1459.7625
3039.40034	1454.2625
3041.80542	1436.4625
3044.20903	1408.6625
3046.61118	1405.5625
3049.01187	1424.3625
3051.4111	1411.1625
3053.80888	1396.4625
3056.20519	1391.2625
3058.60005	1374.0625
3060.99345	1401.0625
3063.3854	1383.4625
3065.7759	1366.2625
3068.16494	1364.2625
3070.55254	1356.7625
3072.93868	1369.0625
3075.32338	1362.4625
3077.70662	1347.4625
3080.08842	1342.8625
3082.46878	1326.9625
3084.84769	1350.4625
3087.22515	1328.8625
3089.60118	1347.5625
3091.97576	1327.2625
3094.3489	1339.3625
3096.72061	1326.8625
3099.09087	1313.5625
3101.4597	1325.3625
3103.82709	1314.8625
3106.19305	1301.6625
3108.55757	1318.7625
3110.92066	1306.2625
3113.28232	1327.4625
3115.64255	1323.9625
3118.00134	1324.1625
3120.35871	1301.6625
3122.71466	1288.0625
3125.06917	1293.7625
3127.42226	1297.1625
3129.77393	1277.5625
3132.12417	1292.4625
3134.47299	1296.3625
3136.82039	1276.2625
3139.16636	1254.1625
3141.51092	1281.1625
3143.85406	1295.3625
3146.19579	1274.5625
3148.53609	1271.8625
3150.87499	1273.7625
3153.21246	1273.2625
3155.54853	1282.2625
3157.88318	1280.9625
3160.21642	1282.2625
3162.54826	1285.8625
3164.87868	1285.8625
3167.2077	1252.2625
3169.5353	1258.2625
3171.86151	1270.1625
3174.18631	1252.2625
3176.5097	1248.7625
3178.83169	1245.8625
3181.15228	1240.4625
3183.47147	1224.3625
3185.78926	1201.9625
3188.10565	1224.5625
3190.42065	1197.9625
3192.73424	1204.7625
3195.04645	1202.8625
3197.35725	1196.3625
3199.66667	1201.0625
3201.97469	1207.1625
3204.28132	1194.5625
3206.58656	1209.3625
3208.8904	1222.2625
3211.19287	1211.3625
3213.49394	1200.7625
3215.79363	1203.7625
3218.09193	1212.3625
3220.38884	1205.6625
3222.68438	1208.9625
3224.97853	1192.3625
3227.2713	1203.1625
3229.56269	1188.9625
3231.8527	1191.0625
3234.14133	1186.8625
3236.42858	1179.5625
3238.71446	1165.6625
3240.99896	1176.8625
3243.28209	1163.4625
3245.56384	1171.7625
3247.84423	1158.0625
3250.12324	1162.2625
3252.40088	1165.5625
3254.67715	1150.0625
3256.95205	1149.4625
3259.22558	1157.1625
3261.49775	1161.9625
3263.76855	1150.1625
3266.03799	1155.7625
3268.30606	1156.3625
3270.57277	1161.8625
3272.83812	1144.8625
3275.10211	1144.7625
3277.36474	1168.1625
3279.62601	1152.0625
3281.88593	1149.8625
3284.14448	1133.0625
3286.40168	1161.0625
3288.65753	1148.7625
3290.91202	1158.6625
3293.16516	1141.7625
3295.41695	1179.9625
3297.66738	1183.6625
3299.91647	1161.3625
3302.16421	1173.7625
3304.4106	1131.6625
3306.65564	1159.4625
3308.89933	1136.7625
3311.14169	1133.4625
3313.38269	1133.0625
3315.62236	1117.0625
3317.86068	1116.0625
3320.09766	1122.1625
3322.3333	1092.3625
3324.5676	1096.9625
3326.80056	1083.3625
3329.03219	1090.3625
3331.26248	-0.2375
3333.49143	-1.0375
3335.71905	0.2625
