Data from AgNPs_UA_20uM_CRN_500uM_SU_RamanShift__75__13-49-00-306.txt Node

Date: Thu Aug 04 13:49:00 BST 2022
User: TCL
Spectrometer: QEP01345
Trigger mode: 4
Integration Time (sec): 1.000000E0
Scans to average: 10
Electric dark correction enabled: true
Nonlinearity correction enabled: false
Boxcar width: 0
XAxis mode: Raman Shifts
Number of Pixels in Spectrum: 1044
>>>>>Begin Spectral Data<<<<<
46.04893	-1.5625
50.45542	-0.5625
54.85868	0.8375
59.25871	0.5375
63.6555	13.1375
68.04907	11.9375
72.43941	14.6375
76.82654	13.3375
81.21044	12.9375
85.59113	12.6375
89.96862	15.4375
94.34289	14.5375
98.71396	16.0375
103.08183	17.0375
107.4465	13.2375
111.80798	18.0375
116.16626	19.0375
120.52136	18.8375
124.87327	20.1375
129.222	22.5375
133.56755	19.2375
137.90993	22.5375
142.24913	25.7375
146.58517	29.6375
150.91804	33.5375
155.24774	40.5375
159.57429	52.2375
163.89768	63.7375
168.21792	86.8375
172.53501	118.4375
176.84895	166.1375
181.15975	236.3375
185.46741	328.9375
189.77193	457.6375
194.07331	613.9375
198.37157	793.7375
202.6667	986.8375
206.9587	1170.8375
211.24758	1363.2375
215.53334	1552.7375
219.81599	1766.2375
224.09553	2000.4375
228.37195	2263.1375
232.64527	2524.4375
236.91549	2806.7375
241.18261	3027.1375
245.44663	3225.6375
249.70755	3383.9375
253.96539	3498.8375
258.22014	3602.2375
262.4718	3713.1375
266.72039	3789.1375
270.96589	3823.5375
275.20832	3812.6375
279.44768	3756.2375
283.68397	3703.2375
287.91719	3651.8375
292.14735	3655.9375
296.37445	3733.1375
300.59849	3838.1375
304.81948	4014.4375
309.03742	4165.5375
313.25231	4205.7375
317.46415	4162.7375
321.67296	3984.9375
325.87872	3800.1375
330.08145	3713.0375
334.28114	3707.5375
338.47781	3772.8375
342.67145	3846.2375
346.86207	3973.7375
351.04966	4138.1375
355.23424	4304.7375
359.4158	4422.0375
363.59435	4482.2375
367.76989	4501.1375
371.94243	4495.3375
376.11196	4493.0375
380.27849	4497.4375
384.44203	4466.8375
388.60257	4468.4375
392.76012	4487.4375
396.91468	4576.1375
401.06626	4656.7375
405.21485	4696.5375
409.36047	4604.0375
413.50311	4449.3375
417.64277	4284.8375
421.77947	4177.8375
425.9132	4148.0375
430.04396	4179.7375
434.17176	4200.3375
438.2966	4290.6375
442.41849	4403.8375
446.53742	4537.8375
450.6534	4648.2375
454.76644	4720.6375
458.87653	4693.4375
462.98368	4669.8375
467.08789	4618.8375
471.18916	4514.8375
475.2875	4416.8375
479.38291	4319.7375
483.4754	4266.8375
487.56496	4222.8375
491.6516	4187.5375
495.73531	4177.8375
499.81612	4164.8375
503.89401	4203.9375
507.96899	4243.3375
512.04106	4275.0375
516.11023	4322.3375
520.1765	4379.0375
524.23987	4387.5375
528.30034	4371.8375
532.35792	4345.1375
536.41261	4303.7375
540.46441	4238.8375
544.51333	4217.0375
548.55936	4257.6375
552.60252	4321.7375
556.64279	4379.8375
560.6802	4429.2375
564.71473	4484.2375
568.7464	4559.5375
572.7752	4578.4375
576.80114	4474.8375
580.82422	4370.5375
584.84444	4369.2375
588.86181	4413.5375
592.87633	4500.9375
596.888	4594.8375
600.89682	4790.8375
604.9028	5353.7375
608.90594	6586.3375
612.90624	7823.1375
616.90371	7128.8375
620.89834	5416.7375
624.89015	4727.3375
628.87913	4640.3375
632.86528	4652.6375
636.84862	4664.7375
640.82913	4548.0375
644.80683	4374.1375
648.78172	4267.4375
652.75379	4310.3375
656.72306	4470.8375
660.68952	4636.5375
664.65319	4562.1375
668.61405	4426.9375
672.57211	4392.5375
676.52738	4380.4375
680.47986	4338.7375
684.42955	4293.2375
688.37646	4291.7375
692.32058	4318.9375
696.26192	4372.8375
700.20048	4431.7375
704.13626	4466.2375
708.06928	4417.5375
711.99952	4371.4375
715.927	4377.8375
719.85171	4403.9375
723.77365	4405.4375
727.69284	4353.1375
731.60928	4327.1375
735.52295	4332.5375
739.43388	4355.9375
743.34206	4378.2375
747.24749	4407.2375
751.15017	4427.7375
755.05012	4489.5375
758.94733	4681.2375
762.8418	5124.6375
766.73354	5790.8375
770.62254	6378.2375
774.50882	6538.2375
778.39237	6176.8375
782.27321	5563.3375
786.15132	4993.4375
790.02671	4642.7375
793.89938	4487.1375
797.76935	4427.7375
801.6366	4398.0375
805.50115	4364.9375
809.36299	4368.4375
813.22213	4351.2375
817.07857	4349.9375
820.93231	4339.6375
824.78336	4353.5375
828.63172	4372.5375
832.47738	4383.9375
836.32036	4391.7375
840.16066	4386.2375
843.99827	4385.8375
847.8332	4395.8375
851.66546	4392.9375
855.49504	4394.5375
859.32195	4396.7375
863.1462	4396.9375
866.96777	4372.5375
870.78668	4369.2375
874.60293	4378.8375
878.41652	4390.1375
882.22745	4419.1375
886.03573	4464.1375
889.84136	4434.6375
893.64433	4414.3375
897.44466	4402.6375
901.24235	4388.1375
905.0374	4377.3375
908.8298	4372.2375
912.61957	4346.7375
916.40671	4374.5375
920.19121	4409.8375
923.97308	4472.0375
927.75233	4530.1375
931.52895	4565.7375
935.30295	4504.2375
939.07433	4421.0375
942.84309	4340.5375
946.60924	4322.4375
950.37278	4303.8375
954.13371	4285.7375
957.89203	4302.9375
961.64774	4279.3375
965.40086	4268.3375
969.15137	4239.7375
972.89929	4244.9375
976.64461	4255.8375
980.38733	4260.1375
984.12747	4272.2375
987.86502	4328.3375
991.59999	4350.0375
995.33237	4433.2375
999.06217	4565.0375
1002.78939	4650.9375
1006.51404	4735.1375
1010.23611	4798.0375
1013.95561	4834.8375
1017.67255	4846.4375
1021.38692	4829.8375
1025.09872	4792.4375
1028.80796	4803.5375
1032.51465	4862.3375
1036.21877	4941.2375
1039.92035	4932.8375
1043.61937	4927.5375
1047.31584	4841.9375
1051.00976	4788.7375
1054.70114	4769.9375
1058.38998	4779.1375
1062.07627	4811.6375
1065.76003	4845.4375
1069.44126	4902.3375
1073.11995	4974.7375
1076.79611	5022.4375
1080.46974	5063.9375
1084.14085	5139.2375
1087.80943	5189.0375
1091.47549	5222.8375
1095.13903	5153.4375
1098.80005	5032.6375
1102.45857	4952.4375
1106.11456	4907.6375
1109.76805	4931.5375
1113.41903	4989.1375
1117.06751	5104.1375
1120.71348	5255.3375
1124.35696	5418.3375
1127.99793	5532.0375
1131.63641	5451.4375
1135.2724	5257.7375
1138.90589	5108.6375
1142.5369	4994.7375
1146.16542	4933.2375
1149.79145	4887.6375
1153.415	4870.0375
1157.03607	4857.1375
1160.65467	4927.1375
1164.27079	5049.9375
1167.88443	5223.2375
1171.49561	5500.3375
1175.10432	5942.6375
1178.71056	6530.3375
1182.31434	7072.9375
1185.91565	7269.8375
1189.51451	7230.5375
1193.11091	6980.8375
1196.70485	6646.8375
1200.29634	6367.5375
1203.88538	6096.5375
1207.47197	5822.7375
1211.05612	5582.2375
1214.63782	5439.2375
1218.21708	5368.2375
1221.79391	5344.6375
1225.36829	5363.4375
1228.94024	5368.8375
1232.50976	5348.6375
1236.07685	5327.0375
1239.6415	5340.3375
1243.20374	5367.2375
1246.76355	5410.5375
1250.32093	5471.4375
1253.8759	5582.8375
1257.42845	5753.9375
1260.97859	5900.5375
1264.52631	6075.9375
1268.07163	6169.8375
1271.61453	6264.9375
1275.15503	6340.7375
1278.69312	6399.5375
1282.22882	6511.1375
1285.76211	6622.3375
1289.29301	6820.1375
1292.82151	7002.9375
1296.34761	7212.2375
1299.87133	7550.6375
1303.39266	8013.3375
1306.9116	8707.0375
1310.42815	9340.5375
1313.94233	9546.6375
1317.45412	9194.1375
1320.96354	8617.3375
1324.47058	8033.2375
1327.97525	7594.8375
1331.47754	7342.9375
1334.97747	7330.3375
1338.47502	7497.7375
1341.97022	7714.9375
1345.46305	8034.8375
1348.95352	8480.5375
1352.44163	9019.5375
1355.92738	9719.3375
1359.41078	10654.0375
1362.89183	11335.7375
1366.37053	10736.7375
1369.84688	9143.6375
1373.32088	7737.8375
1376.79254	6940.8375
1380.26186	6596.2375
1383.72883	6436.0375
1387.19347	6277.4375
1390.65578	6084.9375
1394.11575	5903.0375
1397.57339	5763.0375
1401.0287	5682.2375
1404.48168	5706.1375
1407.93234	5742.9375
1411.38068	5879.2375
1414.82669	5969.2375
1418.27039	5974.3375
1421.71177	5936.8375
1425.15083	5898.8375
1428.58758	5931.0375
1432.02203	6055.1375
1435.45416	6136.2375
1438.88399	6119.9375
1442.31151	6081.2375
1445.73673	6027.1375
1449.15965	6031.0375
1452.58027	5958.7375
1455.9986	5890.6375
1459.41463	5875.9375
1462.82837	5919.0375
1466.23982	6009.0375
1469.64898	6106.6375
1473.05586	6174.7375
1476.46045	6233.2375
1479.86276	6295.4375
1483.26279	6382.1375
1486.66054	6493.2375
1490.05602	6718.7375
1493.44922	7041.8375
1496.84016	7547.6375
1500.22882	8285.9375
1503.61521	9191.6375
1506.99934	10075.6375
1510.38121	10562.5375
1513.76081	10343.5375
1517.13816	9450.6375
1520.51324	8401.2375
1523.88607	7598.9375
1527.25665	7103.1375
1530.62498	6884.1375
1533.99105	6733.4375
1537.35488	6690.1375
1540.71647	6627.1375
1544.07581	6594.5375
1547.4329	6506.4375
1550.78776	6466.0375
1554.14038	6398.1375
1557.49077	6382.5375
1560.83892	6430.1375
1564.18484	6542.1375
1567.52853	6700.7375
1570.86999	6817.4375
1574.20922	6850.1375
1577.54624	6717.6375
1580.88103	6398.0375
1584.2136	6090.5375
1587.54395	5963.7375
1590.87208	6071.0375
1594.19801	6399.6375
1597.52172	6815.7375
1600.84321	7070.4375
1604.16251	7054.4375
1607.47959	6801.4375
1610.79447	6484.1375
1614.10715	6061.5375
1617.41763	5692.7375
1620.7259	5421.9375
1624.03199	5294.7375
1627.33587	5291.4375
1630.63757	5391.5375
1633.93707	5663.8375
1637.23439	6098.7375
1640.52951	6715.9375
1643.82246	7491.1375
1647.11321	8181.6375
1650.40179	8342.0375
1653.68819	7777.9375
1656.97241	6711.0375
1660.25446	5783.7375
1663.53433	5168.3375
1666.81203	4836.4375
1670.08756	4618.4375
1673.36092	4483.8375
1676.63211	4401.7375
1679.90115	4330.6375
1683.16801	4285.5375
1686.43272	4262.9375
1689.69527	4218.5375
1692.95567	4206.1375
1696.2139	4200.7375
1699.46999	4174.6375
1702.72392	4170.7375
1705.97571	4161.4375
1709.22535	4174.6375
1712.47284	4169.0375
1715.71819	4168.1375
1718.96139	4162.9375
1722.20246	4154.0375
1725.44139	4124.8375
1728.67818	4120.1375
1731.91284	4091.9375
1735.14537	4091.1375
1738.37576	4054.4375
1741.60403	4050.6375
1744.83017	4051.6375
1748.05418	4026.8375
1751.27607	4030.2375
1754.49584	4012.9375
1757.71349	3997.8375
1760.92903	4005.4375
1764.14244	3998.3375
1767.35375	3982.9375
1770.56294	3994.0375
1773.77002	3979.8375
1776.97499	3959.8375
1780.17785	3959.6375
1783.37861	3940.5375
1786.57727	3937.7375
1789.77382	3931.7375
1792.96828	3928.2375
1796.16064	3919.4375
1799.3509	3920.9375
1802.53907	3913.4375
1805.72514	3904.5375
1808.90913	3901.6375
1812.09102	3882.6375
1815.27083	3879.8375
1818.44856	3857.3375
1821.6242	3864.6375
1824.79776	3866.2375
1827.96924	3862.4375
1831.13864	3854.7375
1834.30597	3853.0375
1837.47122	3845.7375
1840.6344	3831.0375
1843.7955	3827.8375
1846.95454	3835.4375
1850.11151	3831.9375
1853.26642	3833.4375
1856.41926	3822.3375
1859.57004	3829.1375
1862.71876	3806.8375
1865.86542	3831.6375
1869.01003	3812.6375
1872.15258	3808.9375
1875.29308	3813.0375
1878.43152	3817.7375
1881.56792	3819.7375
1884.70227	3817.7375
1887.83457	3805.4375
1890.96482	3798.4375
1894.09304	3801.4375
1897.21921	3794.2375
1900.34335	3792.1375
1903.46544	3774.5375
1906.58551	3780.7375
1909.70353	3792.1375
1912.81953	3790.1375
1915.93349	3772.5375
1919.04543	3758.1375
1922.15534	3762.0375
1925.26322	3760.7375
1928.36908	3742.5375
1931.47292	3742.9375
1934.57473	3742.5375
1937.67453	3738.6375
1940.77232	3733.1375
1943.86808	3720.4375
1946.96184	3705.7375
1950.05358	3696.9375
1953.14331	3693.6375
1956.23103	3675.9375
1959.31675	3660.1375
1962.40046	3651.0375
1965.48217	3638.3375
1968.56188	3618.1375
1971.63959	3636.8375
1974.7153	3612.5375
1977.78901	3604.9375
1980.86073	3578.9375
1983.93046	3579.0375
1986.99819	3571.6375
1990.06394	3551.8375
1993.1277	3559.2375
1996.18947	3547.5375
1999.24925	3537.6375
2002.30706	3521.2375
2005.36288	3507.4375
2008.41672	3507.2375
2011.46859	3481.6375
2014.51848	3483.4375
2017.56639	3454.8375
2020.61233	3459.8375
2023.6563	3459.5375
2026.6983	3448.4375
2029.73833	3443.7375
2032.7764	3427.5375
2035.8125	3428.2375
2038.84664	3420.6375
2041.87881	3420.7375
2044.90903	3409.8375
2047.93729	3399.2375
2050.96359	3402.9375
2053.98794	3392.3375
2057.01034	3391.3375
2060.03078	3393.5375
2063.04927	3379.1375
2066.06582	3380.9375
2069.08042	3382.8375
2072.09307	3377.7375
2075.10378	3374.7375
2078.11255	3372.2375
2081.11938	3370.5375
2084.12426	3371.1375
2087.12722	3379.0375
2090.12824	3364.2375
2093.12732	3380.3375
2096.12447	3376.9375
2099.11969	3375.8375
2102.11299	3384.7375
2105.10435	3375.5375
2108.09379	3366.7375
2111.08131	3360.8375
2114.0669	3372.3375
2117.05057	3388.0375
2120.03233	3371.4375
2123.01216	3363.1375
2125.99008	3377.6375
2128.96609	3391.6375
2131.94018	3397.8375
2134.91236	3382.4375
2137.88263	3396.0375
2140.851	3378.4375
2143.81746	3391.4375
2146.78201	3409.2375
2149.74466	3379.4375
2152.7054	3389.7375
2155.66425	3378.9375
2158.6212	3401.8375
2161.57625	3395.0375
2164.52941	3376.3375
2167.48067	3385.8375
2170.43004	3391.3375
2173.37752	3371.7375
2176.32311	3385.8375
2179.26681	3388.5375
2182.20863	3375.4375
2185.14856	3378.8375
2188.08661	3387.4375
2191.02278	3372.5375
2193.95707	3388.3375
2196.88948	3384.1375
2199.82001	3379.2375
2202.74867	3382.7375
2205.67545	3370.0375
2208.60037	3382.8375
2211.52341	3371.5375
2214.44458	3352.7375
2217.36388	3361.1375
2220.28132	3330.7375
2223.1969	3330.5375
2226.11061	3339.8375
2229.02246	3321.2375
2231.93245	3315.7375
2234.84058	3310.5375
2237.74686	3305.0375
2240.65128	3302.1375
2243.55385	3306.7375
2246.45456	3296.0375
2249.35343	3299.8375
2252.25044	3289.4375
2255.14561	3293.7375
2258.03893	3291.5375
2260.93041	3287.5375
2263.82004	3299.5375
2266.70783	3275.5375
2269.59378	3260.5375
2272.4779	3250.9375
2275.36017	3242.8375
2278.24061	3242.1375
2281.11922	3223.6375
2283.996	3204.5375
2286.87094	3221.9375
2289.74405	3211.5375
2292.61534	3206.8375
2295.4848	3216.4375
2298.35243	3208.3375
2301.21824	3209.9375
2304.08223	3207.2375
2306.94439	3214.3375
2309.80474	3217.4375
2312.66327	3199.7375
2315.51999	3207.3375
2318.37489	3207.3375
2321.22797	3199.2375
2324.07925	3202.5375
2326.92871	3188.6375
2329.77637	3188.1375
2332.62222	3178.3375
2335.46626	3172.5375
2338.3085	3178.9375
2341.14893	3173.9375
2343.98756	3171.9375
2346.8244	3183.6375
2349.65943	3179.7375
2352.49267	3187.3375
2355.32411	3180.7375
2358.15376	3172.4375
2360.98161	3173.7375
2363.80768	3166.1375
2366.63195	3175.5375
2369.45444	3171.4375
2372.27514	3158.6375
2375.09405	3150.6375
2377.91118	3151.4375
2380.72652	3150.3375
2383.54009	3142.7375
2386.35187	3127.0375
2389.16188	3136.3375
2391.97011	3119.1375
2394.77657	3126.5375
2397.58125	3105.3375
2400.38416	3112.2375
2403.18529	3096.8375
2405.98466	3104.6375
2408.78226	3087.6375
2411.57809	3080.3375
2414.37216	3081.1375
2417.16446	3071.1375
2419.955	3073.8375
2422.74378	3069.2375
2425.5308	3071.5375
2428.31606	3055.2375
2431.09956	3062.4375
2433.88131	3052.3375
2436.6613	3053.2375
2439.43954	3056.0375
2442.21603	3065.1375
2444.99077	3054.0375
2447.76377	3055.9375
2450.53501	3046.3375
2453.30451	3048.7375
2456.07226	3037.8375
2458.83827	3051.2375
2461.60254	3032.5375
2464.36507	3036.2375
2467.12586	3047.6375
2469.88492	3022.1375
2472.64224	3038.2375
2475.39782	3039.4375
2478.15167	3041.6375
2480.90379	3026.9375
2483.65417	3036.3375
2486.40283	3032.4375
2489.14976	3039.7375
2491.89497	3039.7375
2494.63845	3040.2375
2497.3802	3046.1375
2500.12024	3041.5375
2502.85855	3015.8375
2505.59514	3025.3375
2508.33002	3014.5375
2511.06318	3001.9375
2513.79462	2995.8375
2516.52435	2998.7375
2519.25237	2996.7375
2521.97867	3000.7375
2524.70327	2998.0375
2527.42616	2992.4375
2530.14734	2980.4375
2532.86681	2977.6375
2535.58458	2979.4375
2538.30065	2979.5375
2541.01501	2965.2375
2543.72768	2976.7375
2546.43864	2980.7375
2549.14791	2973.5375
2551.85548	2969.3375
2554.56136	2965.3375
2557.26554	2960.2375
2559.96803	2946.3375
2562.66883	2950.8375
2565.36794	2945.3375
2568.06536	2938.5375
2570.7611	2920.1375
2573.45514	2934.7375
2576.14751	2926.3375
2578.83819	2932.2375
2581.52719	2919.7375
2584.21451	2919.1375
2586.90015	2908.5375
2589.58411	2898.2375
2592.2664	2898.1375
2594.94701	2910.7375
2597.62594	2901.3375
2600.30321	2901.3375
2602.9788	2889.3375
2605.65273	2891.7375
2608.32498	2892.1375
2610.99557	2882.2375
2613.66449	2882.1375
2616.33175	2892.2375
2618.99734	2876.4375
2621.66128	2878.3375
2624.32355	2878.5375
2626.98416	2888.2375
2629.64311	2888.4375
2632.30041	2882.5375
2634.95605	2884.4375
2637.61004	2868.4375
2640.26238	2865.8375
2642.91306	2869.6375
2645.56209	2858.7375
2648.20948	2861.5375
2650.85521	2861.7375
2653.4993	2845.3375
2656.14175	2851.3375
2658.78255	2855.7375
2661.42171	2857.4375
2664.05923	2879.6375
2666.6951	2870.4375
2669.32934	2876.9375
2671.96194	2870.4375
2674.59291	2870.2375
2677.22224	2865.8375
2679.84993	2872.1375
2682.476	2860.4375
2685.10043	2876.1375
2687.72324	2839.0375
2690.34441	2869.4375
2692.96396	2852.3375
2695.58188	2863.3375
2698.19818	2864.0375
2700.81285	2852.8375
2703.4259	2870.6375
2706.03733	2855.2375
2708.64714	2849.1375
2711.25533	2846.9375
2713.86191	2848.3375
2716.46687	2863.7375
2719.07021	2856.6375
2721.67194	2864.3375
2724.27206	2864.0375
2726.87057	2848.2375
2729.46747	2866.0375
2732.06276	2857.2375
2734.65644	2848.7375
2737.24852	2854.2375
2739.83899	2855.3375
2742.42786	2846.3375
2745.01513	2842.3375
2747.60079	2839.0375
2750.18486	2843.2375
2752.76733	2840.0375
2755.3482	2826.0375
2757.92747	2832.8375
2760.50515	2808.7375
2763.08123	2823.1375
2765.65573	2807.2375
2768.22863	2815.2375
2770.79994	2809.7375
2773.36967	2812.2375
2775.9378	2820.5375
2778.50435	2808.7375
2781.06932	2802.2375
2783.6327	2806.9375
2786.1945	2801.1375
2788.75471	2789.0375
2791.31335	2791.2375
2793.87041	2784.1375
2796.42589	2786.7375
2798.97979	2772.6375
2801.53212	2781.8375
2804.08288	2784.2375
2806.63206	2769.3375
2809.17967	2769.7375
2811.72571	2760.6375
2814.27018	2765.0375
2816.81308	2754.7375
2819.35442	2758.1375
2821.89419	2748.8375
2824.43239	2735.9375
2826.96904	2733.4375
2829.50412	2732.6375
2832.03763	2724.9375
2834.56959	2732.9375
2837.1	2723.0375
2839.62884	2725.4375
2842.15613	2727.6375
2844.68186	2730.7375
2847.20604	2707.0375
2849.72867	2724.4375
2852.24974	2709.1375
2854.76927	2705.2375
2857.28724	2680.6375
2859.80367	2687.1375
2862.31855	2691.1375
2864.83189	2696.5375
2867.34368	2690.4375
2869.85393	2690.2375
2872.36264	2681.1375
2874.8698	2676.2375
2877.37543	2666.3375
2879.87952	2678.1375
2882.38207	2670.0375
2884.88308	2673.2375
2887.38256	2671.7375
2889.88051	2665.8375
2892.37692	2659.5375
2894.8718	2658.6375
2897.36515	2662.5375
2899.85698	2666.7375
2902.34727	2676.4375
2904.83604	2668.1375
2907.32328	2661.9375
2909.809	2675.9375
2912.29319	2684.3375
2914.77587	2682.4375
2917.25702	2687.1375
2919.73665	2675.2375
2922.21476	2682.6375
2924.69136	2678.5375
2927.16644	2680.0375
2929.64	2677.1375
2932.11205	2676.5375
2934.58258	2662.9375
2937.05161	2667.0375
2939.51912	2665.4375
2941.98513	2666.8375
2944.44962	2633.4375
2946.91261	2646.9375
2949.37409	2654.3375
2951.83407	2651.0375
2954.29254	2648.3375
2956.74951	2640.6375
2959.20498	2638.5375
2961.65895	2626.1375
2964.11142	2629.4375
2966.56239	2627.7375
2969.01186	2636.4375
2971.45984	2627.3375
2973.90632	2626.4375
2976.35131	2633.8375
2978.7948	2616.7375
2981.23681	2605.2375
2983.67732	2594.6375
2986.11635	2601.0375
2988.55388	2603.4375
2990.98993	2589.6375
2993.4245	2598.9375
2995.85758	2583.9375
2998.28917	2581.1375
3000.71928	2577.3375
3003.14791	2555.5375
3005.57506	2567.4375
3008.00073	2552.5375
3010.42493	2541.4375
3012.84764	2535.1375
3015.26888	2534.9375
3017.68865	2536.9375
3020.10694	2515.6375
3022.52376	2513.3375
3024.9391	2517.5375
3027.35298	2512.1375
3029.76539	2496.2375
3032.17632	2496.1375
3034.5858	2503.2375
3036.9938	2496.6375
3039.40034	2485.4375
3041.80542	2477.5375
3044.20903	2475.9375
3046.61118	2481.4375
3049.01187	2466.4375
3051.4111	2456.3375
3053.80888	2454.2375
3056.20519	2459.0375
3058.60005	2444.5375
3060.99345	2441.6375
3063.3854	2437.2375
3065.7759	2437.9375
3068.16494	2444.2375
3070.55254	2425.7375
3072.93868	2407.2375
3075.32338	2420.0375
3077.70662	2409.1375
3080.08842	2400.7375
3082.46878	2389.7375
3084.84769	2382.8375
3087.22515	2377.3375
3089.60118	2386.8375
3091.97576	2385.5375
3094.3489	2384.1375
3096.72061	2368.4375
3099.09087	2378.5375
3101.4597	2368.6375
3103.82709	2366.4375
3106.19305	2371.5375
3108.55757	2368.4375
3110.92066	2358.0375
3113.28232	2349.6375
3115.64255	2358.4375
3118.00134	2357.7375
3120.35871	2344.3375
3122.71466	2344.3375
3125.06917	2339.1375
3127.42226	2329.4375
3129.77393	2323.4375
3132.12417	2320.4375
3134.47299	2333.9375
3136.82039	2307.9375
3139.16636	2313.5375
3141.51092	2312.9375
3143.85406	2320.4375
3146.19579	2317.9375
3148.53609	2317.0375
3150.87499	2323.1375
3153.21246	2318.2375
3155.54853	2318.8375
3157.88318	2323.0375
3160.21642	2324.0375
3162.54826	2323.5375
3164.87868	2312.6375
3167.2077	2311.8375
3169.5353	2304.9375
3171.86151	2299.9375
3174.18631	2298.4375
3176.5097	2297.0375
3178.83169	2286.6375
3181.15228	2292.4375
3183.47147	2288.1375
3185.78926	2284.7375
3188.10565	2277.0375
3190.42065	2270.3375
3192.73424	2273.2375
3195.04645	2256.2375
3197.35725	2256.3375
3199.66667	2265.1375
3201.97469	2268.4375
3204.28132	2250.8375
3206.58656	2256.3375
3208.8904	2264.2375
3211.19287	2259.1375
3213.49394	2276.1375
3215.79363	2273.7375
3218.09193	2260.5375
3220.38884	2253.1375
3222.68438	2257.9375
3224.97853	2261.8375
3227.2713	2265.7375
3229.56269	2249.0375
3231.8527	2251.1375
3234.14133	2246.9375
3236.42858	2236.7375
3238.71446	2237.0375
3240.99896	2232.9375
3243.28209	2236.7375
3245.56384	2226.2375
3247.84423	2223.0375
3250.12324	2220.7375
3252.40088	2227.3375
3254.67715	2224.7375
3256.95205	2215.8375
3259.22558	2208.8375
3261.49775	2206.3375
3263.76855	2220.6375
3266.03799	2210.8375
3268.30606	2206.3375
3270.57277	2222.0375
3272.83812	2215.1375
3275.10211	2197.9375
3277.36474	2189.6375
3279.62601	2185.1375
3281.88593	2175.9375
3284.14448	2189.1375
3286.40168	2176.6375
3288.65753	2178.4375
3290.91202	2179.2375
3293.16516	2167.3375
3295.41695	2180.0375
3297.66738	2155.1375
3299.91647	2152.3375
3302.16421	2146.3375
3304.4106	2133.5375
3306.65564	2105.2375
3308.89933	2095.5375
3311.14169	2076.0375
3313.38269	2066.4375
3315.62236	2052.7375
3317.86068	2042.0375
3320.09766	2018.7375
3322.3333	1991.3375
3324.5676	1983.1375
3326.80056	1966.3375
3329.03219	1949.7375
3331.26248	2.5375
3333.49143	-1.3625
3335.71905	-1.8625
