Data from AgNPs_UA_50uM_CRN_500uM_SU_RamanShift__33__14-01-20-320.txt Node

Date: Thu Aug 04 14:01:20 BST 2022
User: TCL
Spectrometer: QEP01345
Trigger mode: 4
Integration Time (sec): 1.000000E0
Scans to average: 10
Electric dark correction enabled: true
Nonlinearity correction enabled: false
Boxcar width: 0
XAxis mode: Raman Shifts
Number of Pixels in Spectrum: 1044
>>>>>Begin Spectral Data<<<<<
46.04893	0.8
50.45542	0.1
54.85868	0.1
59.25871	-0.9
63.6555	14.7
68.04907	12.2
72.43941	13.6
76.82654	15.6
81.21044	14.4
85.59113	16.9
89.96862	16.6
94.34289	19
98.71396	18.5
103.08183	17.4
107.4465	19.8
111.80798	18.8
116.16626	21.1
120.52136	22.4
124.87327	23.5
129.222	25.3
133.56755	28.9
137.90993	28
142.24913	29.4
146.58517	35.5
150.91804	40.2
155.24774	49.7
159.57429	61.8
163.89768	82.4
168.21792	106
172.53501	148
176.84895	205.4
181.15975	294.3
185.46741	410.1
189.77193	576.5
194.07331	769.3
198.37157	993.4
202.6667	1236.4
206.9587	1483.2
211.24758	1714.6
215.53334	1954.7
219.81599	2235.1
224.09553	2526.8
228.37195	2855.7
232.64527	3213.4
236.91549	3556.3
241.18261	3867.4
245.44663	4108.7
249.70755	4310
253.96539	4474.5
258.22014	4588.9
262.4718	4730.8
266.72039	4790.9
270.96589	4800.4
275.20832	4772.1
279.44768	4698.5
283.68397	4635.2
287.91719	4574.8
292.14735	4583
296.37445	4654.5
300.59849	4814.8
304.81948	5018.1
309.03742	5196.5
313.25231	5319.8
317.46415	5263.6
321.67296	5052.2
325.87872	4786.9
330.08145	4692.5
334.28114	4670.7
338.47781	4734.8
342.67145	4846.7
346.86207	4996.2
351.04966	5212.6
355.23424	5408.1
359.4158	5568.7
363.59435	5639.3
367.76989	5639.6
371.94243	5615.8
376.11196	5557.3
380.27849	5528.2
384.44203	5514.2
388.60257	5537.2
392.76012	5571.3
396.91468	5616
401.06626	5714.6
405.21485	5754.2
409.36047	5657.4
413.50311	5464.2
417.64277	5295
421.77947	5188.5
425.9132	5114.3
430.04396	5129.7
434.17176	5162.4
438.2966	5212.7
442.41849	5309.2
446.53742	5385.6
450.6534	5487.7
454.76644	5540.5
458.87653	5568.3
462.98368	5564.8
467.08789	5533.9
471.18916	5450
475.2875	5354.2
479.38291	5264.4
483.4754	5205.6
487.56496	5170.6
491.6516	5152.5
495.73531	5164.6
499.81612	5174.2
503.89401	5225.5
507.96899	5267.7
512.04106	5301.5
516.11023	5373.6
520.1765	5407.7
524.23987	5415.1
528.30034	5419.9
532.35792	5387.2
536.41261	5358.9
540.46441	5287.6
544.51333	5252.5
548.55936	5297.2
552.60252	5374.8
556.64279	5448.6
560.6802	5501.6
564.71473	5571.2
568.7464	5664.9
572.7752	5663.6
576.80114	5510.7
580.82422	5368.2
584.84444	5332.7
588.86181	5332.8
592.87633	5357
596.888	5449.9
600.89682	5707.4
604.9028	6318.4
608.90594	7708.1
612.90624	9107.7
616.90371	8433
620.89834	6502.4
624.89015	5683.2
628.87913	5584.5
632.86528	5703.4
636.84862	5770
640.82913	5672.1
644.80683	5470.6
648.78172	5364.8
652.75379	5380.1
656.72306	5535.1
660.68952	5716.2
664.65319	5674.7
668.61405	5546.3
672.57211	5511.4
676.52738	5525.4
680.47986	5456.8
684.42955	5376.1
688.37646	5346.8
692.32058	5376
696.26192	5453.7
700.20048	5534.6
704.13626	5561.5
708.06928	5515.9
711.99952	5488
715.927	5484.3
719.85171	5513.8
723.77365	5532.2
727.69284	5491.9
731.60928	5451
735.52295	5435.9
739.43388	5461.2
743.34206	5456.8
747.24749	5472.6
751.15017	5487.6
755.05012	5553.5
758.94733	5759.4
762.8418	6281.1
766.73354	7061.1
770.62254	7689.6
774.50882	7786.6
778.39237	7437.1
782.27321	6871.4
786.15132	6251.4
790.02671	5828.9
793.89938	5623.1
797.76935	5531.1
801.6366	5472.6
805.50115	5451.1
809.36299	5437.5
813.22213	5415.4
817.07857	5422.4
820.93231	5405
824.78336	5443.4
828.63172	5455.9
832.47738	5460.5
836.32036	5448.8
840.16066	5427.3
843.99827	5427
847.8332	5403.4
851.66546	5439.5
855.49504	5446.7
859.32195	5443.5
863.1462	5451
866.96777	5445
870.78668	5445.8
874.60293	5458.2
878.41652	5494.4
882.22745	5530.7
886.03573	5554.2
889.84136	5552.3
893.64433	5520.8
897.44466	5510.2
901.24235	5508.5
905.0374	5498.7
908.8298	5486.8
912.61957	5482.1
916.40671	5459
920.19121	5480.2
923.97308	5532.6
927.75233	5592.5
931.52895	5622
935.30295	5563.6
939.07433	5467.7
942.84309	5398.3
946.60924	5379.4
950.37278	5366.1
954.13371	5351.2
957.89203	5365
961.64774	5356.5
965.40086	5331.4
969.15137	5349.7
972.89929	5314.2
976.64461	5334.9
980.38733	5333.7
984.12747	5351.1
987.86502	5365.7
991.59999	5394.5
995.33237	5424.2
999.06217	5469.2
1002.78939	5537.3
1006.51404	5633.7
1010.23611	5704.4
1013.95561	5772.2
1017.67255	5758.6
1021.38692	5723.2
1025.09872	5660.6
1028.80796	5594.8
1032.51465	5587.2
1036.21877	5590.5
1039.92035	5611.2
1043.61937	5635.5
1047.31584	5662.6
1051.00976	5687.3
1054.70114	5683.1
1058.38998	5667.2
1062.07627	5709.6
1065.76003	5755.3
1069.44126	5795.9
1073.11995	5914.7
1076.79611	6009.3
1080.46974	6108.5
1084.14085	6196.6
1087.80943	6264.1
1091.47549	6276.9
1095.13903	6268.1
1098.80005	6196
1102.45857	6169.6
1106.11456	6139.9
1109.76805	6079.2
1113.41903	6096.4
1117.06751	6173.7
1120.71348	6314
1124.35696	6491.8
1127.99793	6623.9
1131.63641	6526.5
1135.2724	6310.8
1138.90589	6138.1
1142.5369	6047.6
1146.16542	6004.7
1149.79145	5965.7
1153.415	5906.9
1157.03607	5871.8
1160.65467	5918.8
1164.27079	6002.3
1167.88443	6166.4
1171.49561	6424.6
1175.10432	6831.5
1178.71056	7436.5
1182.31434	7891.5
1185.91565	8040.4
1189.51451	7919.8
1193.11091	7736.4
1196.70485	7506.6
1200.29634	7336
1203.88538	7165.4
1207.47197	6910.7
1211.05612	6680.2
1214.63782	6483.7
1218.21708	6350.2
1221.79391	6236.1
1225.36829	6193.7
1228.94024	6166.7
1232.50976	6152.9
1236.07685	6193
1239.6415	6200.3
1243.20374	6228.1
1246.76355	6241.1
1250.32093	6310.1
1253.8759	6426.1
1257.42845	6578.1
1260.97859	6721.3
1264.52631	6886
1268.07163	7011.1
1271.61453	7067.9
1275.15503	7079.8
1278.69312	7056.5
1282.22882	7070.3
1285.76211	7137.1
1289.29301	7283.1
1292.82151	7429.2
1296.34761	7565.5
1299.87133	7813.9
1303.39266	8227.1
1306.9116	8850.2
1310.42815	9568.3
1313.94233	9744.5
1317.45412	9310.8
1320.96354	8693.7
1324.47058	8147
1327.97525	7706.9
1331.47754	7450
1334.97747	7367.7
1338.47502	7454.8
1341.97022	7700.5
1345.46305	8156.5
1348.95352	8805
1352.44163	9556.1
1355.92738	10293.3
1359.41078	11267.9
1362.89183	12066
1366.37053	11595
1369.84688	9990.6
1373.32088	8478.6
1376.79254	7607.1
1380.26186	7219.2
1383.72883	6981.1
1387.19347	6757.6
1390.65578	6553.6
1394.11575	6373.4
1397.57339	6243.7
1401.0287	6161.4
1404.48168	6148.3
1407.93234	6134.1
1411.38068	6189.5
1414.82669	6267.6
1418.27039	6293.3
1421.71177	6281.7
1425.15083	6216.7
1428.58758	6168.8
1432.02203	6203.3
1435.45416	6220.6
1438.88399	6243.8
1442.31151	6259.8
1445.73673	6307.7
1449.15965	6324.5
1452.58027	6300.1
1455.9986	6266.9
1459.41463	6241.4
1462.82837	6285.2
1466.23982	6395.1
1469.64898	6506.3
1473.05586	6609.7
1476.46045	6694.7
1479.86276	6715.9
1483.26279	6824.1
1486.66054	6974.7
1490.05602	7150.7
1493.44922	7505.6
1496.84016	8001.7
1500.22882	8772.3
1503.61521	9815.5
1506.99934	10757.8
1510.38121	11330
1513.76081	11155.4
1517.13816	10223.5
1520.51324	9080
1523.88607	8136.6
1527.25665	7568.2
1530.62498	7286.2
1533.99105	7166.4
1537.35488	7091.6
1540.71647	7008.3
1544.07581	6941.6
1547.4329	6891.7
1550.78776	6829
1554.14038	6797.4
1557.49077	6778.3
1560.83892	6859.3
1564.18484	7032.2
1567.52853	7279.4
1570.86999	7431.7
1574.20922	7486.9
1577.54624	7387.4
1580.88103	7078.3
1584.2136	6699.6
1587.54395	6468.3
1590.87208	6437
1594.19801	6588.6
1597.52172	6796.9
1600.84321	6875
1604.16251	6831.6
1607.47959	6712.9
1610.79447	6526.8
1614.10715	6297
1617.41763	6048.6
1620.7259	5876
1624.03199	5778.8
1627.33587	5750
1630.63757	5788.4
1633.93707	5940.5
1637.23439	6208.4
1640.52951	6657
1643.82246	7324.2
1647.11321	8054.4
1650.40179	8491.8
1653.68819	8224.7
1656.97241	7425.3
1660.25446	6569.1
1663.53433	5961.6
1666.81203	5601
1670.08756	5399
1673.36092	5263.2
1676.63211	5183.3
1679.90115	5128.6
1683.16801	5068.9
1686.43272	5048.1
1689.69527	5017.4
1692.95567	4971.4
1696.2139	4959.1
1699.46999	4947
1702.72392	4956.2
1705.97571	4953.2
1709.22535	4951.4
1712.47284	4949.2
1715.71819	4957
1718.96139	4946.1
1722.20246	4935
1725.44139	4908.3
1728.67818	4891.2
1731.91284	4846.1
1735.14537	4828.2
1738.37576	4806.9
1741.60403	4820
1744.83017	4780
1748.05418	4786.6
1751.27607	4778.2
1754.49584	4748.4
1757.71349	4747
1760.92903	4758.6
1764.14244	4752.9
1767.35375	4738.8
1770.56294	4730.6
1773.77002	4712.8
1776.97499	4706.9
1780.17785	4689.3
1783.37861	4672
1786.57727	4659.3
1789.77382	4653.1
1792.96828	4662.4
1796.16064	4650
1799.3509	4641.6
1802.53907	4644
1805.72514	4612.7
1808.90913	4597.1
1812.09102	4599.9
1815.27083	4585.4
1818.44856	4574.5
1821.6242	4567.1
1824.79776	4570
1827.96924	4551.7
1831.13864	4537.6
1834.30597	4522.1
1837.47122	4503.7
1840.6344	4521.2
1843.7955	4520.5
1846.95454	4499.8
1850.11151	4504.2
1853.26642	4504.3
1856.41926	4498.9
1859.57004	4509.6
1862.71876	4495.5
1865.86542	4491.9
1869.01003	4480.7
1872.15258	4494.4
1875.29308	4480.8
1878.43152	4483.8
1881.56792	4483
1884.70227	4473.5
1887.83457	4444.4
1890.96482	4447.1
1894.09304	4426.9
1897.21921	4430.6
1900.34335	4408.8
1903.46544	4419.9
1906.58551	4397.1
1909.70353	4392.2
1912.81953	4393.6
1915.93349	4389.3
1919.04543	4383.7
1922.15534	4360
1925.26322	4354.9
1928.36908	4344.4
1931.47292	4346.8
1934.57473	4337
1937.67453	4309.6
1940.77232	4309.8
1943.86808	4300.5
1946.96184	4285
1950.05358	4268.6
1953.14331	4263.1
1956.23103	4248.7
1959.31675	4231.6
1962.40046	4223.5
1965.48217	4209.8
1968.56188	4201.5
1971.63959	4194.2
1974.7153	4200.5
1977.78901	4190.1
1980.86073	4158
1983.93046	4145.8
1986.99819	4126.4
1990.06394	4128.6
1993.1277	4104.9
1996.18947	4079.7
1999.24925	4062.1
2002.30706	4054.9
2005.36288	4038.6
2008.41672	4022.3
2011.46859	4026.2
2014.51848	4023.7
2017.56639	4007.9
2020.61233	4001.7
2023.6563	3979.6
2026.6983	3946.6
2029.73833	3954.5
2032.7764	3935.5
2035.8125	3924.5
2038.84664	3916.3
2041.87881	3899
2044.90903	3897.1
2047.93729	3892.2
2050.96359	3887.5
2053.98794	3885.4
2057.01034	3868.4
2060.03078	3871.8
2063.04927	3859.9
2066.06582	3875.4
2069.08042	3872.3
2072.09307	3847.3
2075.10378	3843
2078.11255	3839.9
2081.11938	3845.8
2084.12426	3855.9
2087.12722	3852.6
2090.12824	3848.5
2093.12732	3849
2096.12447	3834
2099.11969	3839.3
2102.11299	3855
2105.10435	3852.8
2108.09379	3855.1
2111.08131	3841.3
2114.0669	3846.1
2117.05057	3834.4
2120.03233	3840.6
2123.01216	3848.5
2125.99008	3850.6
2128.96609	3870.8
2131.94018	3879.5
2134.91236	3857.3
2137.88263	3862.7
2140.851	3861.3
2143.81746	3854.5
2146.78201	3843.1
2149.74466	3874
2152.7054	3858.4
2155.66425	3853.4
2158.6212	3842.5
2161.57625	3832.7
2164.52941	3842.7
2167.48067	3840.5
2170.43004	3832.3
2173.37752	3852.4
2176.32311	3825.2
2179.26681	3845.5
2182.20863	3832.9
2185.14856	3839.3
2188.08661	3841.8
2191.02278	3832.7
2193.95707	3811.1
2196.88948	3823.8
2199.82001	3807.2
2202.74867	3801.2
2205.67545	3808.4
2208.60037	3799.6
2211.52341	3805.8
2214.44458	3790.2
2217.36388	3778.3
2220.28132	3775.1
2223.1969	3747
2226.11061	3735.7
2229.02246	3738.5
2231.93245	3744.7
2234.84058	3731.8
2237.74686	3734
2240.65128	3725.7
2243.55385	3697.6
2246.45456	3717.8
2249.35343	3699.1
2252.25044	3694.7
2255.14561	3702.5
2258.03893	3710.2
2260.93041	3705.9
2263.82004	3688.2
2266.70783	3676.3
2269.59378	3662.5
2272.4779	3656.6
2275.36017	3639.3
2278.24061	3619.1
2281.11922	3619.7
2283.996	3623.4
2286.87094	3616.3
2289.74405	3600.4
2292.61534	3593.3
2295.4848	3596.6
2298.35243	3604.4
2301.21824	3603.4
2304.08223	3579.1
2306.94439	3580.1
2309.80474	3582.2
2312.66327	3564.6
2315.51999	3569.3
2318.37489	3565.9
2321.22797	3555
2324.07925	3554.9
2326.92871	3539.3
2329.77637	3535.8
2332.62222	3527.8
2335.46626	3511.6
2338.3085	3518.1
2341.14893	3507.6
2343.98756	3527.4
2346.8244	3506.2
2349.65943	3496.2
2352.49267	3496.7
2355.32411	3499.9
2358.15376	3489.6
2360.98161	3498.6
2363.80768	3503.9
2366.63195	3493.8
2369.45444	3488
2372.27514	3475.2
2375.09405	3479
2377.91118	3484.3
2380.72652	3457.1
2383.54009	3446.3
2386.35187	3444.7
2389.16188	3437.8
2391.97011	3426
2394.77657	3423.4
2397.58125	3403.6
2400.38416	3401.2
2403.18529	3401.2
2405.98466	3394
2408.78226	3377.4
2411.57809	3385.5
2414.37216	3374.9
2417.16446	3367.1
2419.955	3377.2
2422.74378	3380.5
2425.5308	3366.9
2428.31606	3356.9
2431.09956	3358.7
2433.88131	3357.2
2436.6613	3352.7
2439.43954	3347.3
2442.21603	3346.9
2444.99077	3339.3
2447.76377	3336.4
2450.53501	3334.2
2453.30451	3325.3
2456.07226	3333
2458.83827	3339.9
2461.60254	3320.5
2464.36507	3311
2467.12586	3309.5
2469.88492	3320.4
2472.64224	3311.8
2475.39782	3308.7
2478.15167	3302.3
2480.90379	3296.4
2483.65417	3302
2486.40283	3312.1
2489.14976	3305.4
2491.89497	3313.6
2494.63845	3297
2497.3802	3291.7
2500.12024	3283
2502.85855	3278.2
2505.59514	3272.4
2508.33002	3270.1
2511.06318	3259.8
2513.79462	3249
2516.52435	3239
2519.25237	3224.9
2521.97867	3214.6
2524.70327	3214.7
2527.42616	3208.1
2530.14734	3212.7
2532.86681	3213.9
2535.58458	3204.1
2538.30065	3220.5
2541.01501	3204.1
2543.72768	3195
2546.43864	3183.3
2549.14791	3196.6
2551.85548	3188.4
2554.56136	3193.1
2557.26554	3179.1
2559.96803	3174.1
2562.66883	3153.1
2565.36794	3164
2568.06536	3141.2
2570.7611	3135.5
2573.45514	3125.7
2576.14751	3117.7
2578.83819	3115.3
2581.52719	3097.8
2584.21451	3115.6
2586.90015	3097.6
2589.58411	3099.6
2592.2664	3077.6
2594.94701	3076.7
2597.62594	3080.6
2600.30321	3069.5
2602.9788	3072.8
2605.65273	3058.1
2608.32498	3049.9
2610.99557	3059.4
2613.66449	3060.5
2616.33175	3056.7
2618.99734	3041.4
2621.66128	3037.5
2624.32355	3025.6
2626.98416	3018.8
2629.64311	2996.3
2632.30041	2995.8
2634.95605	2988.6
2637.61004	2991.2
2640.26238	2980.9
2642.91306	2978.5
2645.56209	2989
2648.20948	2988.2
2650.85521	2975.4
2653.4993	2983
2656.14175	2981.1
2658.78255	2971
2661.42171	2983.4
2664.05923	2968.6
2666.6951	2979.9
2669.32934	2976.1
2671.96194	2961.9
2674.59291	2974.7
2677.22224	2958.3
2679.84993	2957.9
2682.476	2963.1
2685.10043	2963.6
2687.72324	2967.3
2690.34441	2953.2
2692.96396	2962.2
2695.58188	2938.3
2698.19818	2961
2700.81285	2957.9
2703.4259	2953.3
2706.03733	2956.7
2708.64714	2956.6
2711.25533	2939.5
2713.86191	2933.8
2716.46687	2944.6
2719.07021	2945.8
2721.67194	2943.5
2724.27206	2948.8
2726.87057	2935.7
2729.46747	2940.2
2732.06276	2934.8
2734.65644	2934
2737.24852	2917.3
2739.83899	2925.8
2742.42786	2930.4
2745.01513	2906
2747.60079	2912.8
2750.18486	2912.3
2752.76733	2907
2755.3482	2896.8
2757.92747	2899.4
2760.50515	2884.9
2763.08123	2883.9
2765.65573	2877.5
2768.22863	2863.4
2770.79994	2858.9
2773.36967	2845.4
2775.9378	2861.3
2778.50435	2845.2
2781.06932	2842.1
2783.6327	2851.2
2786.1945	2851.3
2788.75471	2839.7
2791.31335	2821.5
2793.87041	2824.7
2796.42589	2823.2
2798.97979	2821.2
2801.53212	2806.1
2804.08288	2809.6
2806.63206	2791.7
2809.17967	2796.8
2811.72571	2769
2814.27018	2770
2816.81308	2775.8
2819.35442	2773.5
2821.89419	2740.3
2824.43239	2736.5
2826.96904	2741.1
2829.50412	2743
2832.03763	2730.8
2834.56959	2720.9
2837.1	2726
2839.62884	2721.4
2842.15613	2716.8
2844.68186	2714.2
2847.20604	2717
2849.72867	2702.4
2852.24974	2695.8
2854.76927	2702.8
2857.28724	2690.9
2859.80367	2677.3
2862.31855	2682.5
2864.83189	2684.9
2867.34368	2682.2
2869.85393	2685
2872.36264	2692.2
2874.8698	2683.1
2877.37543	2675.6
2879.87952	2672.2
2882.38207	2658.7
2884.88308	2657.6
2887.38256	2654.7
2889.88051	2653.2
2892.37692	2654.5
2894.8718	2646
2897.36515	2656.8
2899.85698	2657.7
2902.34727	2649.6
2904.83604	2650.2
2907.32328	2648.3
2909.809	2650.3
2912.29319	2661.3
2914.77587	2650.4
2917.25702	2651
2919.73665	2651.6
2922.21476	2644.1
2924.69136	2652.7
2927.16644	2636.7
2929.64	2634.7
2932.11205	2633.5
2934.58258	2621.8
2937.05161	2628.2
2939.51912	2624.5
2941.98513	2623
2944.44962	2614.5
2946.91261	2607
2949.37409	2613.7
2951.83407	2605.8
2954.29254	2611.4
2956.74951	2613
2959.20498	2593.2
2961.65895	2595.7
2964.11142	2586.3
2966.56239	2584.7
2969.01186	2582.8
2971.45984	2590.4
2973.90632	2587.3
2976.35131	2577.8
2978.7948	2577.9
2981.23681	2576.7
2983.67732	2569.4
2986.11635	2559.6
2988.55388	2557.3
2990.98993	2557.1
2993.4245	2547.4
2995.85758	2535.4
2998.28917	2542.2
3000.71928	2534.8
3003.14791	2521
3005.57506	2522.5
3008.00073	2513.6
3010.42493	2516
3012.84764	2504.1
3015.26888	2495.1
3017.68865	2504
3020.10694	2488.9
3022.52376	2483.1
3024.9391	2467.4
3027.35298	2466.3
3029.76539	2457.9
3032.17632	2460.3
3034.5858	2436.4
3036.9938	2433.9
3039.40034	2431.4
3041.80542	2441
3044.20903	2438.4
3046.61118	2430.7
3049.01187	2418.6
3051.4111	2417.8
3053.80888	2407.2
3056.20519	2405.3
3058.60005	2400.3
3060.99345	2407
3063.3854	2398.3
3065.7759	2390.8
3068.16494	2383.5
3070.55254	2366.1
3072.93868	2362.9
3075.32338	2367.9
3077.70662	2352.4
3080.08842	2343.1
3082.46878	2353
3084.84769	2328.7
3087.22515	2329.8
3089.60118	2334.4
3091.97576	2335.1
3094.3489	2322.2
3096.72061	2338.8
3099.09087	2327.6
3101.4597	2319.9
3103.82709	2319.3
3106.19305	2317.1
3108.55757	2317.1
3110.92066	2308.6
3113.28232	2314.6
3115.64255	2315.4
3118.00134	2302.3
3120.35871	2295.5
3122.71466	2289.2
3125.06917	2284.5
3127.42226	2274.2
3129.77393	2271.2
3132.12417	2278.9
3134.47299	2271
3136.82039	2266.4
3139.16636	2268.1
3141.51092	2261
3143.85406	2252.3
3146.19579	2252.1
3148.53609	2246.2
3150.87499	2254.1
3153.21246	2252.1
3155.54853	2263.6
3157.88318	2258.4
3160.21642	2257.8
3162.54826	2252.3
3164.87868	2256.3
3167.2077	2249.2
3169.5353	2233.5
3171.86151	2239.8
3174.18631	2247.8
3176.5097	2238.6
3178.83169	2239
3181.15228	2241.8
3183.47147	2239.5
3185.78926	2231
3188.10565	2211.4
3190.42065	2201.9
3192.73424	2213.4
3195.04645	2200.5
3197.35725	2200.2
3199.66667	2196.2
3201.97469	2211.1
3204.28132	2189.6
3206.58656	2192.9
3208.8904	2203
3211.19287	2191.4
3213.49394	2197.1
3215.79363	2199.2
3218.09193	2199.6
3220.38884	2193.7
3222.68438	2198.3
3224.97853	2185.2
3227.2713	2188.6
3229.56269	2176.1
3231.8527	2175.6
3234.14133	2176.7
3236.42858	2166.4
3238.71446	2164.2
3240.99896	2152.6
3243.28209	2159.5
3245.56384	2145.5
3247.84423	2156.5
3250.12324	2148.6
3252.40088	2141.7
3254.67715	2146.2
3256.95205	2135
3259.22558	2127.3
3261.49775	2144.1
3263.76855	2130.3
3266.03799	2129.3
3268.30606	2117.1
3270.57277	2132.8
3272.83812	2121.7
3275.10211	2111.3
3277.36474	2111.2
3279.62601	2103.2
3281.88593	2099.1
3284.14448	2089.8
3286.40168	2103.9
3288.65753	2094.9
3290.91202	2089.6
3293.16516	2085.2
3295.41695	2076.4
3297.66738	2072.3
3299.91647	2052.3
3302.16421	2036.4
3304.4106	2030.3
3306.65564	2022.7
3308.89933	1999.5
3311.14169	1994.1
3313.38269	1972
3315.62236	1963.5
3317.86068	1944
3320.09766	1927.6
3322.3333	1918.9
3324.5676	1906.8
3326.80056	1869.7
3329.03219	1855.2
3331.26248	0.3
3333.49143	0.5
3335.71905	-0.7
