Data from AgNPs_UA_5uM_CRN_500uM_SU_RamanShift__252__12-11-23-190.txt Node

Date: Thu Aug 04 12:11:23 BST 2022
User: TCL
Spectrometer: QEP01345
Trigger mode: 4
Integration Time (sec): 1.000000E0
Scans to average: 10
Electric dark correction enabled: true
Nonlinearity correction enabled: false
Boxcar width: 0
XAxis mode: Raman Shifts
Number of Pixels in Spectrum: 1044
>>>>>Begin Spectral Data<<<<<
46.04893	-0.5
50.45542	0.6
54.85868	-0.4
59.25871	-0.3
63.6555	-56.4
68.04907	-39.9
72.43941	-72.2
76.82654	-57.8
81.21044	-56.2
85.59113	-48.3
89.96862	-74.4
94.34289	-55.5
98.71396	-78.9
103.08183	-59.4
107.4465	-49.3
111.80798	-58.1
116.16626	-45.2
120.52136	-75.9
124.87327	-50.6
129.222	-62.5
133.56755	-48.3
137.90993	-65.5
142.24913	-53
146.58517	-43.9
150.91804	-42.3
155.24774	-31.9
159.57429	-10.7
163.89768	-7.5
168.21792	35.8
172.53501	54.5
176.84895	134.5
181.15975	264.3
185.46741	408.1
189.77193	586.7
194.07331	869.3
198.37157	1148.2
202.6667	1429.7
206.9587	1736.3
211.24758	2050.2
215.53334	2370.3
219.81599	2708.7
224.09553	3101.1
228.37195	3528.6
232.64527	3971.8
236.91549	4434
241.18261	4787.9
245.44663	5050.4
249.70755	5228.8
253.96539	5336.9
258.22014	5434.1
262.4718	5504.9
266.72039	5549
270.96589	5507.8
275.20832	5432.8
279.44768	5334.5
283.68397	5231.9
287.91719	5156.6
292.14735	5217
296.37445	5381
300.59849	5650.5
304.81948	5980
309.03742	6359.3
313.25231	6611.6
317.46415	6568.9
321.67296	6196.6
325.87872	5796.5
330.08145	5598.4
334.28114	5529.8
338.47781	5604.7
342.67145	5743.2
346.86207	5959.9
351.04966	6307
355.23424	6697.1
359.4158	6964.9
363.59435	7017.1
367.76989	6947.3
371.94243	6803.6
376.11196	6699.4
380.27849	6608.7
384.44203	6536.7
388.60257	6517
392.76012	6503.2
396.91468	6623.7
401.06626	6775.9
405.21485	6816.6
409.36047	6650
413.50311	6325.8
417.64277	6048.6
421.77947	5836.3
425.9132	5784.3
430.04396	5742.7
434.17176	5819.1
438.2966	5877.4
442.41849	5942.5
446.53742	6070.2
450.6534	6179.6
454.76644	6227.9
458.87653	6248.3
462.98368	6204.7
467.08789	6136.6
471.18916	6044.1
475.2875	5953.1
479.38291	5834.7
483.4754	5735.7
487.56496	5705.5
491.6516	5662.2
495.73531	5671.6
499.81612	5704.6
503.89401	5808.8
507.96899	5827.1
512.04106	5928.8
516.11023	6035.6
520.1765	6112.4
524.23987	6112.1
528.30034	6129.9
532.35792	6042
536.41261	5970.8
540.46441	5901
544.51333	5834.9
548.55936	5881.3
552.60252	6017.1
556.64279	6149.7
560.6802	6244.1
564.71473	6355.1
568.7464	6560.2
572.7752	6537.8
576.80114	6252.8
580.82422	6015.2
584.84444	5907.1
588.86181	5894.3
592.87633	5913.6
596.888	6043.2
600.89682	6412.8
604.9028	7367.5
608.90594	9433.1
612.90624	11785.8
616.90371	10917.2
620.89834	7872.3
624.89015	6521.7
628.87913	6321.9
632.86528	6468.8
636.84862	6625.7
640.82913	6482.2
644.80683	6145.8
648.78172	5968.9
652.75379	5990.2
656.72306	6195.3
660.68952	6464.5
664.65319	6377.4
668.61405	6137.7
672.57211	6068
676.52738	6059.1
680.47986	5959.5
684.42955	5866.5
688.37646	5823.7
692.32058	5839.4
696.26192	5898.3
700.20048	5991.7
704.13626	6052.9
708.06928	5994.2
711.99952	5972.2
715.927	5934.3
719.85171	5986.2
723.77365	6038.2
727.69284	6012.3
731.60928	5969.8
735.52295	5944.9
739.43388	5987.7
743.34206	6017.2
747.24749	6043.2
751.15017	6065.7
755.05012	6133.7
758.94733	6508.5
762.8418	7343.5
766.73354	8695
770.62254	9695.9
774.50882	9819.5
778.39237	9260.7
782.27321	8323.6
786.15132	7265.9
790.02671	6586.9
793.89938	6202.5
797.76935	6098.1
801.6366	6005.4
805.50115	5951.4
809.36299	5941.8
813.22213	5924.2
817.07857	5941.6
820.93231	5923.3
824.78336	5950.5
828.63172	5972.6
832.47738	5965.7
836.32036	5977.4
840.16066	5933.3
843.99827	5935.6
847.8332	5913.3
851.66546	5919.3
855.49504	5918.6
859.32195	5964.6
863.1462	5956.9
866.96777	5946.9
870.78668	5933.1
874.60293	5959.4
878.41652	5984.4
882.22745	6063.6
886.03573	6082.2
889.84136	6062
893.64433	6084.6
897.44466	6067.1
901.24235	6063.1
905.0374	6059.2
908.8298	5999.9
912.61957	5968.6
916.40671	5920.8
920.19121	5985.1
923.97308	6059.4
927.75233	6116.6
931.52895	6180.8
935.30295	6155.9
939.07433	6002.8
942.84309	5887.8
946.60924	5846.2
950.37278	5809.4
954.13371	5819.1
957.89203	5814.8
961.64774	5832.4
965.40086	5799.1
969.15137	5793.9
972.89929	5812.4
976.64461	5799.7
980.38733	5825.2
984.12747	5810.8
987.86502	5838.9
991.59999	5847.1
995.33237	5927.5
999.06217	5999.2
1002.78939	6076.5
1006.51404	6196
1010.23611	6314.1
1013.95561	6357.3
1017.67255	6360.5
1021.38692	6328.3
1025.09872	6254.5
1028.80796	6168.8
1032.51465	6185
1036.21877	6180.1
1039.92035	6237.3
1043.61937	6250.1
1047.31584	6316.3
1051.00976	6349.8
1054.70114	6356.2
1058.38998	6352.8
1062.07627	6345.6
1065.76003	6383.3
1069.44126	6473.6
1073.11995	6545.2
1076.79611	6672.4
1080.46974	6825.1
1084.14085	6984.1
1087.80943	7106.1
1091.47549	7150.4
1095.13903	7053.7
1098.80005	6941.1
1102.45857	6845.6
1106.11456	6801.6
1109.76805	6756.6
1113.41903	6868.8
1117.06751	7045.8
1120.71348	7304.9
1124.35696	7689.6
1127.99793	7962.1
1131.63641	7817
1135.2724	7398.3
1138.90589	7109.3
1142.5369	6890
1146.16542	6809.9
1149.79145	6685.3
1153.415	6638.7
1157.03607	6635.7
1160.65467	6748.7
1164.27079	6958.6
1167.88443	7229.9
1171.49561	7656.9
1175.10432	8278.1
1178.71056	9199.7
1182.31434	9978.3
1185.91565	10247.5
1189.51451	10102
1193.11091	9823.8
1196.70485	9593.9
1200.29634	9342.4
1203.88538	9053.7
1207.47197	8604.2
1211.05612	8109.1
1214.63782	7700.6
1218.21708	7432.2
1221.79391	7285.5
1225.36829	7219.8
1228.94024	7200.4
1232.50976	7220.1
1236.07685	7261.3
1239.6415	7273.5
1243.20374	7309.7
1246.76355	7334.2
1250.32093	7410
1253.8759	7472.5
1257.42845	7645.9
1260.97859	7861.7
1264.52631	8090.5
1268.07163	8255.7
1271.61453	8365.4
1275.15503	8426.6
1278.69312	8432.6
1282.22882	8492.7
1285.76211	8690
1289.29301	8944.3
1292.82151	9208.6
1296.34761	9456.5
1299.87133	9839.4
1303.39266	10554.6
1306.9116	11697.4
1310.42815	12929.4
1313.94233	13370.8
1317.45412	12579.7
1320.96354	11443.5
1324.47058	10422.9
1327.97525	9653.9
1331.47754	9263
1334.97747	9119.6
1338.47502	9255.8
1341.97022	9620.3
1345.46305	10364.1
1348.95352	11480.9
1352.44163	12755.5
1355.92738	14160.1
1359.41078	15832.1
1362.89183	17389.5
1366.37053	16759.5
1369.84688	13900.4
1373.32088	11166.5
1376.79254	9729.1
1380.26186	9021.3
1383.72883	8615.6
1387.19347	8189
1390.65578	7847.4
1394.11575	7619.9
1397.57339	7452.6
1401.0287	7354.8
1404.48168	7293.2
1407.93234	7298.4
1411.38068	7316.9
1414.82669	7383.4
1418.27039	7472.4
1421.71177	7452.1
1425.15083	7359.6
1428.58758	7285.5
1432.02203	7337.6
1435.45416	7407.1
1438.88399	7385.1
1442.31151	7375
1445.73673	7442.3
1449.15965	7475.8
1452.58027	7500.4
1455.9986	7507.2
1459.41463	7513.3
1462.82837	7611.8
1466.23982	7812.6
1469.64898	8013.6
1473.05586	8166.8
1476.46045	8270.6
1479.86276	8331.1
1483.26279	8434.9
1486.66054	8650.1
1490.05602	8939.5
1493.44922	9512.7
1496.84016	10370.6
1500.22882	11767.6
1503.61521	13509.1
1506.99934	15339.2
1510.38121	16520.3
1513.76081	16412.6
1517.13816	14811.4
1520.51324	12642.8
1523.88607	10929.3
1527.25665	9944.9
1530.62498	9439.3
1533.99105	9225.3
1537.35488	9112.3
1540.71647	9012.2
1544.07581	8852.8
1547.4329	8719.5
1550.78776	8594.6
1554.14038	8497
1557.49077	8479.5
1560.83892	8574.7
1564.18484	8810.3
1567.52853	9136
1570.86999	9483.6
1574.20922	9637.4
1577.54624	9514.1
1580.88103	8982
1584.2136	8292.8
1587.54395	7914
1590.87208	7833.8
1594.19801	7989
1597.52172	8358.1
1600.84321	8502.5
1604.16251	8347
1607.47959	8153.8
1610.79447	7973.2
1614.10715	7690.9
1617.41763	7374.4
1620.7259	7111.6
1624.03199	6965.5
1627.33587	6891.1
1630.63757	6943.7
1633.93707	7156
1637.23439	7564.4
1640.52951	8283.5
1643.82246	9248.4
1647.11321	10442.2
1650.40179	11147.7
1653.68819	10815.4
1656.97241	9583.9
1660.25446	8208.2
1663.53433	7181.9
1666.81203	6575
1670.08756	6236.5
1673.36092	6039.9
1676.63211	5891.2
1679.90115	5810.3
1683.16801	5742
1686.43272	5648.3
1689.69527	5612.2
1692.95567	5558.6
1696.2139	5528.6
1699.46999	5482.1
1702.72392	5474.1
1705.97571	5492.6
1709.22535	5471.9
1712.47284	5503.2
1715.71819	5520.4
1718.96139	5510.5
1722.20246	5488.8
1725.44139	5464.4
1728.67818	5417.3
1731.91284	5383.3
1735.14537	5348.8
1738.37576	5334.8
1741.60403	5304.9
1744.83017	5278.5
1748.05418	5269.7
1751.27607	5281.6
1754.49584	5244.3
1757.71349	5210.2
1760.92903	5214.2
1764.14244	5156.4
1767.35375	5171.6
1770.56294	5158.8
1773.77002	5153
1776.97499	5156.1
1780.17785	5112.1
1783.37861	5100.4
1786.57727	5129.4
1789.77382	5053.3
1792.96828	5089.8
1796.16064	5112
1799.3509	5080.6
1802.53907	5095
1805.72514	5041.4
1808.90913	5038.8
1812.09102	5015.7
1815.27083	5022.3
1818.44856	4997.5
1821.6242	4997.3
1824.79776	4971.8
1827.96924	4975
1831.13864	4949.7
1834.30597	4968.5
1837.47122	4933.5
1840.6344	4917.4
1843.7955	4911.9
1846.95454	4904.9
1850.11151	4910.1
1853.26642	4869.7
1856.41926	4890.7
1859.57004	4895.2
1862.71876	4886.3
1865.86542	4901.8
1869.01003	4876.6
1872.15258	4860.3
1875.29308	4871
1878.43152	4870.3
1881.56792	4859
1884.70227	4831.8
1887.83457	4843.5
1890.96482	4801.4
1894.09304	4795.2
1897.21921	4814.2
1900.34335	4822.6
1903.46544	4775.1
1906.58551	4796.9
1909.70353	4806.4
1912.81953	4789.6
1915.93349	4778.9
1919.04543	4762.6
1922.15534	4756.7
1925.26322	4732.9
1928.36908	4721.8
1931.47292	4730.1
1934.57473	4730.2
1937.67453	4691
1940.77232	4676
1943.86808	4661.5
1946.96184	4666.1
1950.05358	4647.8
1953.14331	4628.9
1956.23103	4628.2
1959.31675	4581.3
1962.40046	4539.4
1965.48217	4575.7
1968.56188	4561.2
1971.63959	4552.8
1974.7153	4556.5
1977.78901	4525.5
1980.86073	4524.6
1983.93046	4473.7
1986.99819	4402.5
1990.06394	4420.1
1993.1277	4441.9
1996.18947	4426.6
1999.24925	4397.5
2002.30706	4402.7
2005.36288	4404.1
2008.41672	4351.6
2011.46859	4343.2
2014.51848	4335.4
2017.56639	4310.4
2020.61233	4285.7
2023.6563	4292.9
2026.6983	4248.1
2029.73833	4258.4
2032.7764	4261.5
2035.8125	4204.5
2038.84664	4227.4
2041.87881	4208.5
2044.90903	4212.5
2047.93729	4207.1
2050.96359	4167.8
2053.98794	4184.4
2057.01034	4181.8
2060.03078	4160.9
2063.04927	4144
2066.06582	4164.8
2069.08042	4157.4
2072.09307	4157.6
2075.10378	4142.1
2078.11255	4136.9
2081.11938	4146.6
2084.12426	4131.9
2087.12722	4125.3
2090.12824	4133.6
2093.12732	4131.2
2096.12447	4143.5
2099.11969	4130.3
2102.11299	4126.5
2105.10435	4144.4
2108.09379	4119
2111.08131	4113
2114.0669	4131.5
2117.05057	4129.4
2120.03233	4099.6
2123.01216	4136.3
2125.99008	4129.3
2128.96609	4131
2131.94018	4144.8
2134.91236	4135.3
2137.88263	4128
2140.851	4133.6
2143.81746	4160
2146.78201	4139.6
2149.74466	4119.9
2152.7054	4138.4
2155.66425	4125.4
2158.6212	4119.8
2161.57625	4089.7
2164.52941	4075.7
2167.48067	4095.1
2170.43004	4083.5
2173.37752	4102.1
2176.32311	4099.4
2179.26681	4088
2182.20863	4101.3
2185.14856	4086.3
2188.08661	4096.2
2191.02278	4092.9
2193.95707	4064.8
2196.88948	4056.2
2199.82001	4089
2202.74867	4067.7
2205.67545	4059.6
2208.60037	4059.4
2211.52341	4052.2
2214.44458	4031.6
2217.36388	4030.1
2220.28132	4013.8
2223.1969	4002.9
2226.11061	4002.9
2229.02246	3982
2231.93245	3983
2234.84058	3954
2237.74686	3969.2
2240.65128	3957
2243.55385	3949.8
2246.45456	3918.5
2249.35343	3938.9
2252.25044	3920.4
2255.14561	3943.8
2258.03893	3936.4
2260.93041	3905.9
2263.82004	3920.5
2266.70783	3905.1
2269.59378	3884.9
2272.4779	3873
2275.36017	3885.9
2278.24061	3853.1
2281.11922	3832.6
2283.996	3854.8
2286.87094	3823.3
2289.74405	3826.2
2292.61534	3812.6
2295.4848	3817.3
2298.35243	3800.1
2301.21824	3787.2
2304.08223	3793.8
2306.94439	3795.9
2309.80474	3797
2312.66327	3787.4
2315.51999	3770.3
2318.37489	3766.8
2321.22797	3749.6
2324.07925	3757.9
2326.92871	3750.7
2329.77637	3732.2
2332.62222	3713.4
2335.46626	3708
2338.3085	3701.2
2341.14893	3718.2
2343.98756	3725.4
2346.8244	3690.9
2349.65943	3688
2352.49267	3693.3
2355.32411	3699.9
2358.15376	3687.9
2360.98161	3698.4
2363.80768	3684.6
2366.63195	3682.1
2369.45444	3694.8
2372.27514	3708
2375.09405	3710.8
2377.91118	3653.3
2380.72652	3656.9
2383.54009	3646.4
2386.35187	3647.6
2389.16188	3634.6
2391.97011	3612.3
2394.77657	3603.5
2397.58125	3618.3
2400.38416	3613.5
2403.18529	3578.4
2405.98466	3568.7
2408.78226	3581.5
2411.57809	3553.3
2414.37216	3545.5
2417.16446	3553.5
2419.955	3544.3
2422.74378	3554.4
2425.5308	3529.4
2428.31606	3534.5
2431.09956	3541
2433.88131	3513.6
2436.6613	3520.1
2439.43954	3510.3
2442.21603	3507.3
2444.99077	3501.5
2447.76377	3524.2
2450.53501	3496.2
2453.30451	3506.5
2456.07226	3505.5
2458.83827	3482.9
2461.60254	3455.7
2464.36507	3487
2467.12586	3467.1
2469.88492	3474.4
2472.64224	3465.5
2475.39782	3437.7
2478.15167	3459.8
2480.90379	3458.8
2483.65417	3471
2486.40283	3480.1
2489.14976	3496
2491.89497	3446.7
2494.63845	3466.5
2497.3802	3457.9
2500.12024	3457.2
2502.85855	3457.7
2505.59514	3440.8
2508.33002	3434.7
2511.06318	3404.1
2513.79462	3414.5
2516.52435	3378.2
2519.25237	3360.7
2521.97867	3353.4
2524.70327	3371.7
2527.42616	3357.6
2530.14734	3374.7
2532.86681	3343.8
2535.58458	3330.2
2538.30065	3347.9
2541.01501	3362.8
2543.72768	3330.1
2546.43864	3332.8
2549.14791	3328.6
2551.85548	3310.1
2554.56136	3308.5
2557.26554	3309.4
2559.96803	3305
2562.66883	3299.4
2565.36794	3279.2
2568.06536	3244.2
2570.7611	3267.7
2573.45514	3267.1
2576.14751	3258.6
2578.83819	3225.1
2581.52719	3227
2584.21451	3230.9
2586.90015	3212.8
2589.58411	3200.9
2592.2664	3206.5
2594.94701	3203.5
2597.62594	3197.6
2600.30321	3133.1
2602.9788	3158.7
2605.65273	3155
2608.32498	3158.3
2610.99557	3169.6
2613.66449	3134.1
2616.33175	3165.3
2618.99734	3155.8
2621.66128	3159.4
2624.32355	3136.6
2626.98416	3121.1
2629.64311	3108.9
2632.30041	3115.9
2634.95605	3096.2
2637.61004	3084.2
2640.26238	3069.7
2642.91306	3081.3
2645.56209	3103
2648.20948	3081.9
2650.85521	3058.3
2653.4993	3087.7
2656.14175	3072.7
2658.78255	3061.2
2661.42171	3031
2664.05923	3074.8
2666.6951	3081.2
2669.32934	3086.9
2671.96194	3100.9
2674.59291	3061.8
2677.22224	3074.4
2679.84993	3061.9
2682.476	3064.8
2685.10043	3053.8
2687.72324	3045.7
2690.34441	3061.7
2692.96396	3049.6
2695.58188	3061.9
2698.19818	3057.3
2700.81285	3048.2
2703.4259	3033.1
2706.03733	3005.5
2708.64714	3007.2
2711.25533	3032.9
2713.86191	3039.5
2716.46687	3032.2
2719.07021	3033
2721.67194	3026.7
2724.27206	3049.8
2726.87057	3026.9
2729.46747	3024.5
2732.06276	3029.2
2734.65644	3017.9
2737.24852	3015.6
2739.83899	2989.2
2742.42786	3005.9
2745.01513	2997.6
2747.60079	2983.1
2750.18486	2975.2
2752.76733	2979.6
2755.3482	2970.3
2757.92747	2980.4
2760.50515	2949.9
2763.08123	2937.8
2765.65573	2950.3
2768.22863	2949.2
2770.79994	2934.4
2773.36967	2927.6
2775.9378	2911.1
2778.50435	2914.3
2781.06932	2912.1
2783.6327	2911.5
2786.1945	2926.7
2788.75471	2902.2
2791.31335	2896.4
2793.87041	2901
2796.42589	2870.5
2798.97979	2871.1
2801.53212	2873
2804.08288	2892.3
2806.63206	2862.1
2809.17967	2841.2
2811.72571	2864.1
2814.27018	2858.2
2816.81308	2833.9
2819.35442	2811.1
2821.89419	2814.5
2824.43239	2821.2
2826.96904	2836.3
2829.50412	2815.2
2832.03763	2826.2
2834.56959	2824.5
2837.1	2809.4
2839.62884	2817.2
2842.15613	2810.5
2844.68186	2820.2
2847.20604	2776.3
2849.72867	2781.9
2852.24974	2782.5
2854.76927	2759.9
2857.28724	2705
2859.80367	2770.7
2862.31855	2787.6
2864.83189	2757.2
2867.34368	2766
2869.85393	2779.1
2872.36264	2751.6
2874.8698	2755.2
2877.37543	2765.9
2879.87952	2753.9
2882.38207	2724.4
2884.88308	2726.3
2887.38256	2735.9
2889.88051	2730.7
2892.37692	2744.3
2894.8718	2708.9
2897.36515	2736
2899.85698	2736.4
2902.34727	2725.9
2904.83604	2733.1
2907.32328	2745.1
2909.809	2741.6
2912.29319	2737.7
2914.77587	2754.4
2917.25702	2763.5
2919.73665	2762.5
2922.21476	2758.6
2924.69136	2758.8
2927.16644	2738.3
2929.64	2737.6
2932.11205	2725.1
2934.58258	2737.2
2937.05161	2718.2
2939.51912	2722.5
2941.98513	2729.3
2944.44962	2704.3
2946.91261	2694.3
2949.37409	2684.8
2951.83407	2691.3
2954.29254	2674.2
2956.74951	2679.4
2959.20498	2665
2961.65895	2669.6
2964.11142	2650.4
2966.56239	2650.9
2969.01186	2656.8
2971.45984	2648.7
2973.90632	2641.8
2976.35131	2668.8
2978.7948	2643.1
2981.23681	2637.1
2983.67732	2636.2
2986.11635	2636.2
2988.55388	2607.4
2990.98993	2606.2
2993.4245	2593.1
2995.85758	2573
2998.28917	2581.5
3000.71928	2559.9
3003.14791	2575.3
3005.57506	2558.3
3008.00073	2546.1
3010.42493	2487.6
3012.84764	2538.2
3015.26888	2553.2
3017.68865	2527.5
3020.10694	2488.3
3022.52376	2509.5
3024.9391	2508.7
3027.35298	2486
3029.76539	2472
3032.17632	2481.2
3034.5858	2475.7
3036.9938	2484.9
3039.40034	2468.6
3041.80542	2455.4
3044.20903	2447.2
3046.61118	2438.6
3049.01187	2452.3
3051.4111	2438.5
3053.80888	2415.7
3056.20519	2421.3
3058.60005	2405
3060.99345	2420.7
3063.3854	2406.8
3065.7759	2387
3068.16494	2378.1
3070.55254	2365.2
3072.93868	2395.2
3075.32338	2368.1
3077.70662	2351.2
3080.08842	2350.7
3082.46878	2345.9
3084.84769	2357.3
3087.22515	2332.4
3089.60118	2344.6
3091.97576	2331.5
3094.3489	2340.5
3096.72061	2323.9
3099.09087	2322.1
3101.4597	2329
3103.82709	2327.1
3106.19305	2324.1
3108.55757	2317.1
3110.92066	2296.8
3113.28232	2307.1
3115.64255	2297.3
3118.00134	2306.8
3120.35871	2284.4
3122.71466	2276.6
3125.06917	2284.4
3127.42226	2261.8
3129.77393	2258.7
3132.12417	2266.9
3134.47299	2264.3
3136.82039	2246.4
3139.16636	2225.9
3141.51092	2245.6
3143.85406	2247.2
3146.19579	2226.5
3148.53609	2243.2
3150.87499	2227.2
3153.21246	2225.9
3155.54853	2245.1
3157.88318	2236.2
3160.21642	2236.2
3162.54826	2225.1
3164.87868	2233.5
3167.2077	2193.8
3169.5353	2216.8
3171.86151	2218
3174.18631	2201
3176.5097	2199.1
3178.83169	2204.2
3181.15228	2207.5
3183.47147	2173.7
3185.78926	2163.5
3188.10565	2165.3
3190.42065	2162
3192.73424	2166.3
3195.04645	2165.2
3197.35725	2146.8
3199.66667	2166.5
3201.97469	2157.9
3204.28132	2139.1
3206.58656	2151.9
3208.8904	2151.5
3211.19287	2144.1
3213.49394	2134.2
3215.79363	2133.2
3218.09193	2148.1
3220.38884	2150.9
3222.68438	2138
3224.97853	2121.9
3227.2713	2137.3
3229.56269	2114.7
3231.8527	2122.4
3234.14133	2122
3236.42858	2111.7
3238.71446	2081.7
3240.99896	2106.8
3243.28209	2094.3
3245.56384	2098
3247.84423	2077.9
3250.12324	2078.6
3252.40088	2081.3
3254.67715	2067.9
3256.95205	2065
3259.22558	2083.8
3261.49775	2070.4
3263.76855	2066
3266.03799	2069.6
3268.30606	2064.2
3270.57277	2062.2
3272.83812	2045.2
3275.10211	2033.4
3277.36474	2058.7
3279.62601	2063
3281.88593	2022.4
3284.14448	2010.2
3286.40168	2019.4
3288.65753	2024.8
3290.91202	2022.1
3293.16516	1997.8
3295.41695	2022.9
3297.66738	2026.2
3299.91647	2002.5
3302.16421	1997.9
3304.4106	1953.6
3306.65564	1974.9
3308.89933	1938.5
3311.14169	1942.5
3313.38269	1927.6
3315.62236	1905.4
3317.86068	1901.4
3320.09766	1881.5
3322.3333	1859.1
3324.5676	1855.6
3326.80056	1824.4
3329.03219	1817.2
3331.26248	-1.3
3333.49143	0.7
3335.71905	0.4
