Data from AgNPs_UA_20uM_CRN_500uM_SU_RamanShift__91__13-51-40-309.txt Node

Date: Thu Aug 04 13:51:40 BST 2022
User: TCL
Spectrometer: QEP01345
Trigger mode: 4
Integration Time (sec): 1.000000E0
Scans to average: 10
Electric dark correction enabled: true
Nonlinearity correction enabled: false
Boxcar width: 0
XAxis mode: Raman Shifts
Number of Pixels in Spectrum: 1044
>>>>>Begin Spectral Data<<<<<
46.04893	-0.7625
50.45542	0.8375
54.85868	0.2375
59.25871	0.2375
63.6555	14.8375
68.04907	11.7375
72.43941	14.6375
76.82654	14.2375
81.21044	13.9375
85.59113	16.4375
89.96862	16.4375
94.34289	18.1375
98.71396	17.9375
103.08183	17.0375
107.4465	17.1375
111.80798	20.1375
116.16626	20.1375
120.52136	24.1375
124.87327	20.2375
129.222	24.8375
133.56755	21.6375
137.90993	26.1375
142.24913	28.0375
146.58517	30.2375
150.91804	37.0375
155.24774	43.7375
159.57429	54.7375
163.89768	72.6375
168.21792	96.8375
172.53501	134.5375
176.84895	183.0375
181.15975	261.9375
185.46741	369.2375
189.77193	507.7375
194.07331	685.0375
198.37157	884.4375
202.6667	1101.5375
206.9587	1310.0375
211.24758	1521.9375
215.53334	1749.4375
219.81599	1971.7375
224.09553	2240.7375
228.37195	2535.0375
232.64527	2843.3375
236.91549	3163.3375
241.18261	3439.5375
245.44663	3642.1375
249.70755	3818.1375
253.96539	3937.7375
258.22014	4044.8375
262.4718	4153.5375
266.72039	4236.9375
270.96589	4260.4375
275.20832	4230.8375
279.44768	4174.7375
283.68397	4085.8375
287.91719	4040.1375
292.14735	4049.0375
296.37445	4133.4375
300.59849	4272.6375
304.81948	4502.8375
309.03742	4660.5375
313.25231	4762.6375
317.46415	4712.0375
321.67296	4526.1375
325.87872	4293.8375
330.08145	4187.1375
334.28114	4161.6375
338.47781	4220.8375
342.67145	4305.6375
346.86207	4451.0375
351.04966	4614.5375
355.23424	4816.4375
359.4158	4928.8375
363.59435	5005.3375
367.76989	5009.1375
371.94243	4996.7375
376.11196	4965.5375
380.27849	4946.0375
384.44203	4910.9375
388.60257	4920.9375
392.76012	4976.2375
396.91468	5036.7375
401.06626	5112.1375
405.21485	5127.2375
409.36047	5043.3375
413.50311	4836.0375
417.64277	4637.9375
421.77947	4543.3375
425.9132	4514.9375
430.04396	4530.8375
434.17176	4566.5375
438.2966	4639.6375
442.41849	4745.1375
446.53742	4859.5375
450.6534	4991.3375
454.76644	5056.2375
458.87653	5042.0375
462.98368	5000.1375
467.08789	4930.9375
471.18916	4855.8375
475.2875	4749.4375
479.38291	4649.1375
483.4754	4577.7375
487.56496	4531.3375
491.6516	4499.5375
495.73531	4496.2375
499.81612	4492.3375
503.89401	4530.6375
507.96899	4559.5375
512.04106	4616.6375
516.11023	4674.7375
520.1765	4725.6375
524.23987	4737.9375
528.30034	4729.9375
532.35792	4713.2375
536.41261	4679.7375
540.46441	4587.2375
544.51333	4548.0375
548.55936	4587.2375
552.60252	4689.8375
556.64279	4762.0375
560.6802	4804.9375
564.71473	4878.0375
568.7464	4957.9375
572.7752	4958.7375
576.80114	4840.0375
580.82422	4735.1375
584.84444	4723.4375
588.86181	4769.3375
592.87633	4862.4375
596.888	4960.4375
600.89682	5161.1375
604.9028	5754.0375
608.90594	7096.3375
612.90624	8479.2375
616.90371	7788.5375
620.89834	5823.4375
624.89015	5038.2375
628.87913	4940.2375
632.86528	4992.3375
636.84862	5009.7375
640.82913	4909.3375
644.80683	4729.0375
648.78172	4617.5375
652.75379	4619.3375
656.72306	4787.5375
660.68952	4943.4375
664.65319	4863.1375
668.61405	4712.3375
672.57211	4676.8375
676.52738	4683.2375
680.47986	4633.0375
684.42955	4559.3375
688.37646	4543.3375
692.32058	4576.9375
696.26192	4649.0375
700.20048	4714.5375
704.13626	4748.2375
708.06928	4711.6375
711.99952	4658.7375
715.927	4652.4375
719.85171	4683.4375
723.77365	4674.9375
727.69284	4639.9375
731.60928	4597.9375
735.52295	4592.0375
739.43388	4636.1375
743.34206	4658.4375
747.24749	4671.3375
751.15017	4679.6375
755.05012	4749.8375
758.94733	4949.2375
762.8418	5472.0375
766.73354	6270.8375
770.62254	6929.7375
774.50882	7049.6375
778.39237	6620.2375
782.27321	5965.8375
786.15132	5318.0375
790.02671	4941.0375
793.89938	4761.3375
797.76935	4679.0375
801.6366	4638.9375
805.50115	4620.7375
809.36299	4585.9375
813.22213	4570.0375
817.07857	4561.7375
820.93231	4565.8375
824.78336	4591.7375
828.63172	4587.3375
832.47738	4585.9375
836.32036	4599.2375
840.16066	4586.7375
843.99827	4596.4375
847.8332	4596.1375
851.66546	4601.7375
855.49504	4601.3375
859.32195	4603.8375
863.1462	4610.8375
866.96777	4594.8375
870.78668	4587.0375
874.60293	4608.4375
878.41652	4608.4375
882.22745	4638.5375
886.03573	4677.2375
889.84136	4666.9375
893.64433	4644.9375
897.44466	4628.5375
901.24235	4626.0375
905.0374	4601.3375
908.8298	4589.5375
912.61957	4560.8375
916.40671	4599.5375
920.19121	4623.1375
923.97308	4676.7375
927.75233	4756.9375
931.52895	4779.6375
935.30295	4735.8375
939.07433	4622.3375
942.84309	4545.7375
946.60924	4525.0375
950.37278	4510.2375
954.13371	4486.0375
957.89203	4484.3375
961.64774	4477.4375
965.40086	4467.4375
969.15137	4447.2375
972.89929	4449.4375
976.64461	4447.3375
980.38733	4458.7375
984.12747	4484.3375
987.86502	4500.4375
991.59999	4557.7375
995.33237	4646.0375
999.06217	4765.4375
1002.78939	4904.2375
1006.51404	5017.0375
1010.23611	5079.3375
1013.95561	5134.0375
1017.67255	5146.4375
1021.38692	5121.7375
1025.09872	5057.3375
1028.80796	5062.6375
1032.51465	5098.5375
1036.21877	5166.8375
1039.92035	5179.8375
1043.61937	5154.4375
1047.31584	5089.1375
1051.00976	5010.5375
1054.70114	4972.5375
1058.38998	4946.7375
1062.07627	4947.5375
1065.76003	4975.8375
1069.44126	5037.7375
1073.11995	5153.3375
1076.79611	5261.5375
1080.46974	5330.3375
1084.14085	5407.3375
1087.80943	5485.2375
1091.47549	5531.6375
1095.13903	5509.2375
1098.80005	5412.2375
1102.45857	5285.2375
1106.11456	5195.0375
1109.76805	5178.0375
1113.41903	5237.1375
1117.06751	5326.7375
1120.71348	5487.4375
1124.35696	5675.1375
1127.99793	5797.7375
1131.63641	5703.6375
1135.2724	5521.3375
1138.90589	5352.4375
1142.5369	5264.9375
1146.16542	5252.9375
1149.79145	5243.0375
1153.415	5163.9375
1157.03607	5108.8375
1160.65467	5150.4375
1164.27079	5282.7375
1167.88443	5449.5375
1171.49561	5766.3375
1175.10432	6260.8375
1178.71056	6902.5375
1182.31434	7478.5375
1185.91565	7656.7375
1189.51451	7560.1375
1193.11091	7304.9375
1196.70485	7013.9375
1200.29634	6781.7375
1203.88538	6573.9375
1207.47197	6317.8375
1211.05612	6096.3375
1214.63782	5958.8375
1218.21708	5836.6375
1221.79391	5769.2375
1225.36829	5724.2375
1228.94024	5677.9375
1232.50976	5612.2375
1236.07685	5559.9375
1239.6415	5551.1375
1243.20374	5572.2375
1246.76355	5627.3375
1250.32093	5735.5375
1253.8759	5897.6375
1257.42845	6087.8375
1260.97859	6313.6375
1264.52631	6474.3375
1268.07163	6564.8375
1271.61453	6690.7375
1275.15503	6763.1375
1278.69312	6850.0375
1282.22882	6901.5375
1285.76211	7003.2375
1289.29301	7142.9375
1292.82151	7318.5375
1296.34761	7549.1375
1299.87133	7868.2375
1303.39266	8420.9375
1306.9116	9203.6375
1310.42815	9940.1375
1313.94233	10240.7375
1317.45412	9873.6375
1320.96354	9203.4375
1324.47058	8548.9375
1327.97525	7948.1375
1331.47754	7590.6375
1334.97747	7468.3375
1338.47502	7574.4375
1341.97022	7815.7375
1345.46305	8216.0375
1348.95352	8783.4375
1352.44163	9425.3375
1355.92738	10261.2375
1359.41078	11332.7375
1362.89183	12100.4375
1366.37053	11533.3375
1369.84688	9800.1375
1373.32088	8191.6375
1376.79254	7320.0375
1380.26186	6894.9375
1383.72883	6680.2375
1387.19347	6510.5375
1390.65578	6294.7375
1394.11575	6118.4375
1397.57339	6020.9375
1401.0287	5952.3375
1404.48168	5911.0375
1407.93234	5912.6375
1411.38068	5969.1375
1414.82669	6011.4375
1418.27039	6028.4375
1421.71177	6006.0375
1425.15083	5943.9375
1428.58758	5946.8375
1432.02203	6030.4375
1435.45416	6129.8375
1438.88399	6176.0375
1442.31151	6181.1375
1445.73673	6213.1375
1449.15965	6233.2375
1452.58027	6165.1375
1455.9986	6103.3375
1459.41463	6094.2375
1462.82837	6155.8375
1466.23982	6265.8375
1469.64898	6382.1375
1473.05586	6464.2375
1476.46045	6505.1375
1479.86276	6559.7375
1483.26279	6585.5375
1486.66054	6727.5375
1490.05602	6927.3375
1493.44922	7247.0375
1496.84016	7730.4375
1500.22882	8515.5375
1503.61521	9508.1375
1506.99934	10464.1375
1510.38121	11008.8375
1513.76081	10866.6375
1517.13816	9955.8375
1520.51324	8824.3375
1523.88607	7930.8375
1527.25665	7404.7375
1530.62498	7151.3375
1533.99105	7012.5375
1537.35488	6939.4375
1540.71647	6881.9375
1544.07581	6839.9375
1547.4329	6751.0375
1550.78776	6688.9375
1554.14038	6603.3375
1557.49077	6571.1375
1560.83892	6596.4375
1564.18484	6719.7375
1567.52853	6919.7375
1570.86999	7077.3375
1574.20922	7121.2375
1577.54624	6982.4375
1580.88103	6630.5375
1584.2136	6310.7375
1587.54395	6123.2375
1590.87208	6236.8375
1594.19801	6556.2375
1597.52172	6952.5375
1600.84321	7206.8375
1604.16251	7167.3375
1607.47959	6915.4375
1610.79447	6547.6375
1614.10715	6122.0375
1617.41763	5740.0375
1620.7259	5482.5375
1624.03199	5355.7375
1627.33587	5347.9375
1630.63757	5452.5375
1633.93707	5701.2375
1637.23439	6125.2375
1640.52951	6716.6375
1643.82246	7522.2375
1647.11321	8258.0375
1650.40179	8564.3375
1653.68819	8050.3375
1656.97241	7021.2375
1660.25446	6030.8375
1663.53433	5342.6375
1666.81203	4943.2375
1670.08756	4713.2375
1673.36092	4607.5375
1676.63211	4483.1375
1679.90115	4436.7375
1683.16801	4371.7375
1686.43272	4341.3375
1689.69527	4302.7375
1692.95567	4303.9375
1696.2139	4270.6375
1699.46999	4254.5375
1702.72392	4247.0375
1705.97571	4265.2375
1709.22535	4236.5375
1712.47284	4248.1375
1715.71819	4238.6375
1718.96139	4237.7375
1722.20246	4215.9375
1725.44139	4217.1375
1728.67818	4186.6375
1731.91284	4160.9375
1735.14537	4154.2375
1738.37576	4127.0375
1741.60403	4113.7375
1744.83017	4107.5375
1748.05418	4096.5375
1751.27607	4091.1375
1754.49584	4084.9375
1757.71349	4052.1375
1760.92903	4048.9375
1764.14244	4046.0375
1767.35375	4044.5375
1770.56294	4033.3375
1773.77002	4038.1375
1776.97499	4021.7375
1780.17785	4002.9375
1783.37861	3986.2375
1786.57727	3990.0375
1789.77382	3979.1375
1792.96828	3978.1375
1796.16064	3960.4375
1799.3509	3953.1375
1802.53907	3944.5375
1805.72514	3942.9375
1808.90913	3937.7375
1812.09102	3938.2375
1815.27083	3919.6375
1818.44856	3921.9375
1821.6242	3892.5375
1824.79776	3900.8375
1827.96924	3893.6375
1831.13864	3885.8375
1834.30597	3892.5375
1837.47122	3885.4375
1840.6344	3870.8375
1843.7955	3854.6375
1846.95454	3865.3375
1850.11151	3864.9375
1853.26642	3860.6375
1856.41926	3866.1375
1859.57004	3866.6375
1862.71876	3857.9375
1865.86542	3844.2375
1869.01003	3843.4375
1872.15258	3838.3375
1875.29308	3836.1375
1878.43152	3821.8375
1881.56792	3839.6375
1884.70227	3821.3375
1887.83457	3830.3375
1890.96482	3827.3375
1894.09304	3810.5375
1897.21921	3801.7375
1900.34335	3800.8375
1903.46544	3814.8375
1906.58551	3811.8375
1909.70353	3802.3375
1912.81953	3792.5375
1915.93349	3786.5375
1919.04543	3781.0375
1922.15534	3781.0375
1925.26322	3769.3375
1928.36908	3758.9375
1931.47292	3758.3375
1934.57473	3760.6375
1937.67453	3746.1375
1940.77232	3735.0375
1943.86808	3731.7375
1946.96184	3699.4375
1950.05358	3724.4375
1953.14331	3700.5375
1956.23103	3685.6375
1959.31675	3670.6375
1962.40046	3654.7375
1965.48217	3648.1375
1968.56188	3641.7375
1971.63959	3621.2375
1974.7153	3621.8375
1977.78901	3614.4375
1980.86073	3597.5375
1983.93046	3587.1375
1986.99819	3586.8375
1990.06394	3584.7375
1993.1277	3555.3375
1996.18947	3543.0375
1999.24925	3550.6375
2002.30706	3520.6375
2005.36288	3519.3375
2008.41672	3501.1375
2011.46859	3498.3375
2014.51848	3481.9375
2017.56639	3461.1375
2020.61233	3468.5375
2023.6563	3468.1375
2026.6983	3453.8375
2029.73833	3436.5375
2032.7764	3440.6375
2035.8125	3426.0375
2038.84664	3433.2375
2041.87881	3418.6375
2044.90903	3423.8375
2047.93729	3405.7375
2050.96359	3394.7375
2053.98794	3398.5375
2057.01034	3394.7375
2060.03078	3399.9375
2063.04927	3379.2375
2066.06582	3386.3375
2069.08042	3383.8375
2072.09307	3386.9375
2075.10378	3383.4375
2078.11255	3376.9375
2081.11938	3378.4375
2084.12426	3376.7375
2087.12722	3383.7375
2090.12824	3363.9375
2093.12732	3373.4375
2096.12447	3375.4375
2099.11969	3373.4375
2102.11299	3359.2375
2105.10435	3383.3375
2108.09379	3371.4375
2111.08131	3370.2375
2114.0669	3378.1375
2117.05057	3376.1375
2120.03233	3373.1375
2123.01216	3382.4375
2125.99008	3378.4375
2128.96609	3389.4375
2131.94018	3390.7375
2134.91236	3387.9375
2137.88263	3399.1375
2140.851	3391.1375
2143.81746	3390.9375
2146.78201	3393.1375
2149.74466	3386.4375
2152.7054	3390.7375
2155.66425	3395.5375
2158.6212	3389.8375
2161.57625	3397.4375
2164.52941	3386.4375
2167.48067	3376.4375
2170.43004	3378.9375
2173.37752	3364.7375
2176.32311	3388.0375
2179.26681	3379.7375
2182.20863	3381.1375
2185.14856	3375.9375
2188.08661	3371.2375
2191.02278	3390.2375
2193.95707	3386.4375
2196.88948	3390.7375
2199.82001	3383.2375
2202.74867	3383.7375
2205.67545	3372.9375
2208.60037	3366.3375
2211.52341	3365.1375
2214.44458	3353.8375
2217.36388	3351.8375
2220.28132	3354.2375
2223.1969	3336.2375
2226.11061	3340.7375
2229.02246	3312.6375
2231.93245	3302.8375
2234.84058	3305.3375
2237.74686	3302.7375
2240.65128	3320.1375
2243.55385	3312.2375
2246.45456	3300.5375
2249.35343	3308.0375
2252.25044	3296.9375
2255.14561	3283.7375
2258.03893	3293.0375
2260.93041	3291.7375
2263.82004	3266.4375
2266.70783	3286.0375
2269.59378	3269.7375
2272.4779	3265.6375
2275.36017	3243.3375
2278.24061	3222.3375
2281.11922	3243.5375
2283.996	3228.5375
2286.87094	3220.6375
2289.74405	3208.1375
2292.61534	3209.3375
2295.4848	3213.5375
2298.35243	3217.3375
2301.21824	3208.2375
2304.08223	3225.9375
2306.94439	3220.7375
2309.80474	3225.1375
2312.66327	3215.3375
2315.51999	3212.1375
2318.37489	3213.3375
2321.22797	3203.1375
2324.07925	3210.0375
2326.92871	3196.1375
2329.77637	3185.8375
2332.62222	3194.1375
2335.46626	3194.7375
2338.3085	3185.7375
2341.14893	3192.3375
2343.98756	3189.4375
2346.8244	3195.7375
2349.65943	3195.3375
2352.49267	3197.3375
2355.32411	3191.5375
2358.15376	3196.2375
2360.98161	3198.6375
2363.80768	3192.0375
2366.63195	3182.9375
2369.45444	3169.9375
2372.27514	3183.6375
2375.09405	3178.8375
2377.91118	3173.8375
2380.72652	3168.0375
2383.54009	3150.6375
2386.35187	3138.4375
2389.16188	3124.0375
2391.97011	3119.2375
2394.77657	3119.1375
2397.58125	3106.7375
2400.38416	3101.6375
2403.18529	3104.6375
2405.98466	3109.0375
2408.78226	3095.1375
2411.57809	3087.8375
2414.37216	3091.4375
2417.16446	3075.4375
2419.955	3081.6375
2422.74378	3074.1375
2425.5308	3078.4375
2428.31606	3067.2375
2431.09956	3068.7375
2433.88131	3072.2375
2436.6613	3058.8375
2439.43954	3063.9375
2442.21603	3069.3375
2444.99077	3063.7375
2447.76377	3071.3375
2450.53501	3060.6375
2453.30451	3053.5375
2456.07226	3071.8375
2458.83827	3049.3375
2461.60254	3045.4375
2464.36507	3045.9375
2467.12586	3045.2375
2469.88492	3037.7375
2472.64224	3053.4375
2475.39782	3058.2375
2478.15167	3052.5375
2480.90379	3052.8375
2483.65417	3049.4375
2486.40283	3047.9375
2489.14976	3052.0375
2491.89497	3056.3375
2494.63845	3068.1375
2497.3802	3060.6375
2500.12024	3052.9375
2502.85855	3048.2375
2505.59514	3031.7375
2508.33002	3010.0375
2511.06318	3022.4375
2513.79462	3007.7375
2516.52435	3004.6375
2519.25237	3009.0375
2521.97867	2999.9375
2524.70327	2992.6375
2527.42616	2995.1375
2530.14734	2992.0375
2532.86681	2996.2375
2535.58458	2990.4375
2538.30065	2990.2375
2541.01501	2993.9375
2543.72768	3006.4375
2546.43864	2993.4375
2549.14791	2981.8375
2551.85548	3000.0375
2554.56136	2995.1375
2557.26554	2998.6375
2559.96803	2965.8375
2562.66883	2971.2375
2565.36794	2974.1375
2568.06536	2956.2375
2570.7611	2940.1375
2573.45514	2947.7375
2576.14751	2954.9375
2578.83819	2939.7375
2581.52719	2939.0375
2584.21451	2934.1375
2586.90015	2917.3375
2589.58411	2913.9375
2592.2664	2910.6375
2594.94701	2924.9375
2597.62594	2926.7375
2600.30321	2904.5375
2602.9788	2904.8375
2605.65273	2923.4375
2608.32498	2909.2375
2610.99557	2905.7375
2613.66449	2911.7375
2616.33175	2901.9375
2618.99734	2899.9375
2621.66128	2895.5375
2624.32355	2908.9375
2626.98416	2903.9375
2629.64311	2893.2375
2632.30041	2901.5375
2634.95605	2888.6375
2637.61004	2887.5375
2640.26238	2870.2375
2642.91306	2880.0375
2645.56209	2872.6375
2648.20948	2868.1375
2650.85521	2863.5375
2653.4993	2870.7375
2656.14175	2863.0375
2658.78255	2863.1375
2661.42171	2865.3375
2664.05923	2883.1375
2666.6951	2885.2375
2669.32934	2889.6375
2671.96194	2869.9375
2674.59291	2870.8375
2677.22224	2866.1375
2679.84993	2876.6375
2682.476	2871.4375
2685.10043	2871.3375
2687.72324	2859.0375
2690.34441	2860.0375
2692.96396	2861.2375
2695.58188	2868.1375
2698.19818	2853.3375
2700.81285	2868.0375
2703.4259	2858.0375
2706.03733	2856.9375
2708.64714	2846.9375
2711.25533	2853.1375
2713.86191	2829.2375
2716.46687	2862.0375
2719.07021	2864.8375
2721.67194	2854.3375
2724.27206	2861.5375
2726.87057	2862.1375
2729.46747	2863.4375
2732.06276	2852.4375
2734.65644	2842.0375
2737.24852	2856.1375
2739.83899	2849.6375
2742.42786	2846.5375
2745.01513	2839.7375
2747.60079	2848.5375
2750.18486	2842.4375
2752.76733	2840.1375
2755.3482	2817.7375
2757.92747	2812.3375
2760.50515	2830.7375
2763.08123	2809.5375
2765.65573	2819.5375
2768.22863	2817.5375
2770.79994	2808.5375
2773.36967	2805.2375
2775.9378	2806.3375
2778.50435	2800.4375
2781.06932	2796.8375
2783.6327	2802.7375
2786.1945	2794.3375
2788.75471	2782.9375
2791.31335	2765.1375
2793.87041	2781.9375
2796.42589	2774.4375
2798.97979	2768.2375
2801.53212	2767.7375
2804.08288	2764.7375
2806.63206	2763.9375
2809.17967	2752.8375
2811.72571	2751.6375
2814.27018	2768.7375
2816.81308	2754.2375
2819.35442	2742.7375
2821.89419	2731.1375
2824.43239	2720.1375
2826.96904	2721.5375
2829.50412	2727.7375
2832.03763	2721.7375
2834.56959	2718.7375
2837.1	2705.5375
2839.62884	2700.0375
2842.15613	2695.9375
2844.68186	2706.5375
2847.20604	2704.7375
2849.72867	2703.3375
2852.24974	2684.6375
2854.76927	2688.7375
2857.28724	2676.4375
2859.80367	2672.5375
2862.31855	2667.5375
2864.83189	2671.5375
2867.34368	2670.9375
2869.85393	2679.1375
2872.36264	2662.6375
2874.8698	2666.7375
2877.37543	2665.4375
2879.87952	2652.3375
2882.38207	2651.1375
2884.88308	2654.1375
2887.38256	2658.5375
2889.88051	2643.9375
2892.37692	2655.7375
2894.8718	2645.5375
2897.36515	2649.6375
2899.85698	2662.1375
2902.34727	2656.1375
2904.83604	2648.7375
2907.32328	2664.7375
2909.809	2656.4375
2912.29319	2662.7375
2914.77587	2661.9375
2917.25702	2668.4375
2919.73665	2667.3375
2922.21476	2662.4375
2924.69136	2662.6375
2927.16644	2661.2375
2929.64	2658.2375
2932.11205	2654.6375
2934.58258	2641.1375
2937.05161	2636.7375
2939.51912	2634.9375
2941.98513	2625.3375
2944.44962	2627.3375
2946.91261	2621.5375
2949.37409	2635.7375
2951.83407	2636.4375
2954.29254	2626.2375
2956.74951	2632.5375
2959.20498	2621.9375
2961.65895	2631.0375
2964.11142	2611.0375
2966.56239	2612.7375
2969.01186	2612.3375
2971.45984	2616.7375
2973.90632	2609.9375
2976.35131	2600.2375
2978.7948	2593.4375
2981.23681	2594.3375
2983.67732	2593.9375
2986.11635	2587.0375
2988.55388	2571.3375
2990.98993	2562.1375
2993.4245	2580.3375
2995.85758	2581.0375
2998.28917	2560.0375
3000.71928	2538.2375
3003.14791	2547.8375
3005.57506	2553.4375
3008.00073	2537.6375
3010.42493	2532.9375
3012.84764	2523.1375
3015.26888	2513.1375
3017.68865	2518.5375
3020.10694	2503.9375
3022.52376	2513.4375
3024.9391	2494.3375
3027.35298	2493.6375
3029.76539	2492.5375
3032.17632	2489.5375
3034.5858	2476.5375
3036.9938	2470.9375
3039.40034	2470.7375
3041.80542	2457.5375
3044.20903	2472.5375
3046.61118	2465.0375
3049.01187	2445.0375
3051.4111	2452.8375
3053.80888	2443.1375
3056.20519	2445.0375
3058.60005	2443.6375
3060.99345	2438.5375
3063.3854	2427.4375
3065.7759	2427.9375
3068.16494	2415.2375
3070.55254	2416.3375
3072.93868	2417.7375
3075.32338	2395.2375
3077.70662	2404.5375
3080.08842	2371.0375
3082.46878	2380.3375
3084.84769	2368.0375
3087.22515	2369.8375
3089.60118	2381.1375
3091.97576	2371.8375
3094.3489	2367.7375
3096.72061	2374.3375
3099.09087	2366.4375
3101.4597	2374.2375
3103.82709	2373.7375
3106.19305	2353.4375
3108.55757	2366.5375
3110.92066	2361.4375
3113.28232	2362.2375
3115.64255	2348.9375
3118.00134	2333.3375
3120.35871	2332.6375
3122.71466	2324.5375
3125.06917	2330.7375
3127.42226	2321.0375
3129.77393	2317.0375
3132.12417	2302.7375
3134.47299	2312.7375
3136.82039	2305.1375
3139.16636	2315.8375
3141.51092	2316.5375
3143.85406	2313.6375
3146.19579	2314.3375
3148.53609	2310.5375
3150.87499	2312.6375
3153.21246	2313.4375
3155.54853	2305.2375
3157.88318	2310.0375
3160.21642	2307.1375
3162.54826	2309.6375
3164.87868	2307.0375
3167.2077	2310.2375
3169.5353	2301.6375
3171.86151	2300.6375
3174.18631	2297.8375
3176.5097	2293.5375
3178.83169	2282.4375
3181.15228	2282.5375
3183.47147	2274.4375
3185.78926	2277.9375
3188.10565	2268.8375
3190.42065	2275.2375
3192.73424	2270.2375
3195.04645	2270.2375
3197.35725	2249.3375
3199.66667	2251.6375
3201.97469	2252.4375
3204.28132	2249.8375
3206.58656	2262.7375
3208.8904	2258.5375
3211.19287	2262.4375
3213.49394	2264.2375
3215.79363	2267.6375
3218.09193	2252.3375
3220.38884	2255.3375
3222.68438	2260.0375
3224.97853	2255.0375
3227.2713	2257.5375
3229.56269	2254.2375
3231.8527	2250.6375
3234.14133	2259.2375
3236.42858	2247.1375
3238.71446	2231.8375
3240.99896	2227.7375
3243.28209	2230.4375
3245.56384	2225.9375
3247.84423	2228.5375
3250.12324	2228.4375
3252.40088	2219.9375
3254.67715	2215.1375
3256.95205	2209.0375
3259.22558	2210.6375
3261.49775	2218.5375
3263.76855	2219.3375
3266.03799	2225.8375
3268.30606	2217.1375
3270.57277	2209.7375
3272.83812	2216.1375
3275.10211	2194.9375
3277.36474	2181.2375
3279.62601	2184.8375
3281.88593	2176.2375
3284.14448	2181.5375
3286.40168	2178.5375
3288.65753	2188.5375
3290.91202	2182.7375
3293.16516	2165.1375
3295.41695	2154.4375
3297.66738	2166.5375
3299.91647	2153.3375
3302.16421	2131.7375
3304.4106	2125.2375
3306.65564	2103.6375
3308.89933	2094.5375
3311.14169	2084.0375
3313.38269	2062.2375
3315.62236	2051.6375
3317.86068	2045.5375
3320.09766	2022.7375
3322.3333	2000.7375
3324.5676	1993.7375
3326.80056	1955.3375
3329.03219	1950.3375
3331.26248	1.9375
3333.49143	-0.9625
3335.71905	-1.1625
