Data from AgNPs_UA_5uM_CRN_500uM_SU_RamanShift__122__11-49-43-163.txt Node

Date: Thu Aug 04 11:49:43 BST 2022
User: TCL
Spectrometer: QEP01345
Trigger mode: 4
Integration Time (sec): 1.000000E0
Scans to average: 10
Electric dark correction enabled: true
Nonlinearity correction enabled: false
Boxcar width: 0
XAxis mode: Raman Shifts
Number of Pixels in Spectrum: 1044
>>>>>Begin Spectral Data<<<<<
46.04893	0.6625
50.45542	1.0625
54.85868	-0.5375
59.25871	-0.7375
63.6555	-57.9375
68.04907	-39.7375
72.43941	-71.6375
76.82654	-56.8375
81.21044	-56.5375
85.59113	-48.5375
89.96862	-73.2375
94.34289	-55.0375
98.71396	-77.3375
103.08183	-59.1375
107.4465	-50.6375
111.80798	-56.8375
116.16626	-46.2375
120.52136	-73.4375
124.87327	-50.8375
129.222	-63.8375
133.56755	-51.2375
137.90993	-62.3375
142.24913	-52.4375
146.58517	-45.9375
150.91804	-41.6375
155.24774	-30.3375
159.57429	-12.0375
163.89768	-13.4375
168.21792	29.4625
172.53501	44.9625
176.84895	124.0625
181.15975	245.4625
185.46741	383.9625
189.77193	553.2625
194.07331	827.7625
198.37157	1096.3625
202.6667	1361.3625
206.9587	1654.8625
211.24758	1946.5625
215.53334	2244.8625
219.81599	2570.1625
224.09553	2944.4625
228.37195	3347.0625
232.64527	3776.8625
236.91549	4235.0625
241.18261	4599.3625
245.44663	4913.6625
249.70755	5142.4625
253.96539	5293.4625
258.22014	5385.7625
262.4718	5448.9625
266.72039	5459.4625
270.96589	5414.0625
275.20832	5319.1625
279.44768	5204.8625
283.68397	5087.4625
287.91719	5041.0625
292.14735	5028.8625
296.37445	5142.9625
300.59849	5318.0625
304.81948	5539.1625
309.03742	5769.2625
313.25231	5940.5625
317.46415	5904.8625
321.67296	5607.3625
325.87872	5368.9625
330.08145	5232.7625
334.28114	5218.7625
338.47781	5263.3625
342.67145	5384.1625
346.86207	5582.4625
351.04966	5865.2625
355.23424	6133.9625
359.4158	6323.6625
363.59435	6362.0625
367.76989	6334.8625
371.94243	6281.3625
376.11196	6225.5625
380.27849	6175.3625
384.44203	6180.5625
388.60257	6159.2625
392.76012	6160.7625
396.91468	6271.8625
401.06626	6391.9625
405.21485	6429.6625
409.36047	6325.1625
413.50311	6127.4625
417.64277	5931.4625
421.77947	5790.1625
425.9132	5752.2625
430.04396	5754.6625
434.17176	5820.9625
438.2966	5900.1625
442.41849	5981.6625
446.53742	6087.8625
450.6534	6175.5625
454.76644	6245.0625
458.87653	6269.6625
462.98368	6264.1625
467.08789	6234.5625
471.18916	6199.0625
475.2875	6116.9625
479.38291	6051.9625
483.4754	5947.1625
487.56496	5900.3625
491.6516	5875.4625
495.73531	5867.1625
499.81612	5876.1625
503.89401	5946.7625
507.96899	5975.6625
512.04106	6040.4625
516.11023	6135.9625
520.1765	6206.3625
524.23987	6235.9625
528.30034	6252.6625
532.35792	6199.7625
536.41261	6168.7625
540.46441	6124.7625
544.51333	6067.0625
548.55936	6119.8625
552.60252	6229.3625
556.64279	6274.5625
560.6802	6389.8625
564.71473	6476.3625
568.7464	6594.5625
572.7752	6543.6625
576.80114	6361.8625
580.82422	6173.6625
584.84444	6098.6625
588.86181	6103.2625
592.87633	6130.9625
596.888	6237.0625
600.89682	6510.7625
604.9028	7224.6625
608.90594	8713.3625
612.90624	10356.4625
616.90371	9705.4625
620.89834	7547.9625
624.89015	6665.7625
628.87913	6519.2625
632.86528	6629.1625
636.84862	6762.6625
640.82913	6640.0625
644.80683	6431.5625
648.78172	6323.3625
652.75379	6349.2625
656.72306	6523.8625
660.68952	6686.8625
664.65319	6617.3625
668.61405	6484.9625
672.57211	6426.1625
676.52738	6445.4625
680.47986	6407.3625
684.42955	6322.6625
688.37646	6302.0625
692.32058	6288.7625
696.26192	6345.7625
700.20048	6431.0625
704.13626	6454.7625
708.06928	6418.5625
711.99952	6394.6625
715.927	6357.2625
719.85171	6396.9625
723.77365	6431.4625
727.69284	6393.0625
731.60928	6422.1625
735.52295	6380.8625
739.43388	6438.0625
743.34206	6449.5625
747.24749	6479.6625
751.15017	6470.5625
755.05012	6511.4625
758.94733	6775.9625
762.8418	7361.5625
766.73354	8276.3625
770.62254	8938.3625
774.50882	9044.4625
778.39237	8696.4625
782.27321	8040.6625
786.15132	7335.0625
790.02671	6880.7625
793.89938	6564.7625
797.76935	6506.8625
801.6366	6459.9625
805.50115	6429.7625
809.36299	6432.1625
813.22213	6441.8625
817.07857	6433.5625
820.93231	6410.9625
824.78336	6442.3625
828.63172	6478.7625
832.47738	6467.7625
836.32036	6475.0625
840.16066	6455.2625
843.99827	6445.6625
847.8332	6467.5625
851.66546	6464.8625
855.49504	6480.7625
859.32195	6522.5625
863.1462	6511.5625
866.96777	6533.8625
870.78668	6508.8625
874.60293	6522.8625
878.41652	6551.8625
882.22745	6606.1625
886.03573	6620.7625
889.84136	6643.2625
893.64433	6641.3625
897.44466	6619.1625
901.24235	6607.4625
905.0374	6623.4625
908.8298	6573.5625
912.61957	6552.2625
916.40671	6510.8625
920.19121	6553.3625
923.97308	6633.8625
927.75233	6655.1625
931.52895	6712.8625
935.30295	6693.8625
939.07433	6607.2625
942.84309	6501.0625
946.60924	6484.7625
950.37278	6462.3625
954.13371	6459.4625
957.89203	6466.7625
961.64774	6490.5625
965.40086	6440.6625
969.15137	6427.2625
972.89929	6460.6625
976.64461	6461.0625
980.38733	6478.6625
984.12747	6495.8625
987.86502	6487.3625
991.59999	6545.1625
995.33237	6618.1625
999.06217	6690.6625
1002.78939	6789.1625
1006.51404	6930.1625
1010.23611	7030.5625
1013.95561	7098.3625
1017.67255	7104.1625
1021.38692	7104.8625
1025.09872	7018.8625
1028.80796	6931.3625
1032.51465	6934.8625
1036.21877	6915.5625
1039.92035	6966.6625
1043.61937	6988.9625
1047.31584	7016.7625
1051.00976	7059.5625
1054.70114	7056.3625
1058.38998	7055.2625
1062.07627	7061.8625
1065.76003	7096.5625
1069.44126	7204.1625
1073.11995	7285.2625
1076.79611	7411.0625
1080.46974	7516.9625
1084.14085	7624.6625
1087.80943	7678.8625
1091.47549	7740.6625
1095.13903	7755.8625
1098.80005	7694.6625
1102.45857	7582.2625
1106.11456	7497.4625
1109.76805	7388.8625
1113.41903	7456.3625
1117.06751	7547.2625
1120.71348	7711.8625
1124.35696	7968.9625
1127.99793	8152.6625
1131.63641	8063.3625
1135.2724	7812.6625
1138.90589	7637.2625
1142.5369	7514.6625
1146.16542	7486.8625
1149.79145	7437.7625
1153.415	7366.5625
1157.03607	7292.5625
1160.65467	7335.9625
1164.27079	7455.6625
1167.88443	7634.8625
1171.49561	7936.2625
1175.10432	8340.5625
1178.71056	8963.0625
1182.31434	9517.8625
1185.91565	9725.7625
1189.51451	9691.2625
1193.11091	9570.9625
1196.70485	9470.6625
1200.29634	9377.6625
1203.88538	9226.0625
1207.47197	8932.1625
1211.05612	8651.6625
1214.63782	8393.3625
1218.21708	8228.9625
1221.79391	8056.3625
1225.36829	7900.5625
1228.94024	7880.4625
1232.50976	7869.5625
1236.07685	7908.6625
1239.6415	7916.9625
1243.20374	7963.7625
1246.76355	8030.3625
1250.32093	8094.8625
1253.8759	8186.8625
1257.42845	8402.4625
1260.97859	8582.9625
1264.52631	8745.7625
1268.07163	8835.8625
1271.61453	8896.7625
1275.15503	8904.8625
1278.69312	8943.8625
1282.22882	8977.0625
1285.76211	9116.2625
1289.29301	9249.9625
1292.82151	9451.1625
1296.34761	9624.8625
1299.87133	9936.9625
1303.39266	10426.3625
1306.9116	11193.6625
1310.42815	12019.0625
1313.94233	12283.5625
1317.45412	11767.1625
1320.96354	11062.4625
1324.47058	10410.0625
1327.97525	9926.3625
1331.47754	9656.9625
1334.97747	9605.8625
1338.47502	9726.7625
1341.97022	10030.3625
1345.46305	10574.9625
1348.95352	11350.4625
1352.44163	12220.9625
1355.92738	13025.1625
1359.41078	14012.1625
1362.89183	14860.7625
1366.37053	14273.8625
1369.84688	12330.7625
1373.32088	10559.8625
1376.79254	9628.7625
1380.26186	9176.2625
1383.72883	8912.9625
1387.19347	8642.5625
1390.65578	8385.7625
1394.11575	8239.5625
1397.57339	8115.8625
1401.0287	8015.8625
1404.48168	8011.0625
1407.93234	8019.6625
1411.38068	8057.5625
1414.82669	8103.9625
1418.27039	8184.0625
1421.71177	8153.2625
1425.15083	8049.3625
1428.58758	8022.1625
1432.02203	8024.7625
1435.45416	8103.0625
1438.88399	8143.9625
1442.31151	8160.4625
1445.73673	8244.2625
1449.15965	8298.7625
1452.58027	8327.2625
1455.9986	8320.7625
1459.41463	8332.5625
1462.82837	8410.1625
1466.23982	8551.9625
1469.64898	8736.2625
1473.05586	8841.7625
1476.46045	8892.5625
1479.86276	8929.8625
1483.26279	8966.7625
1486.66054	9074.3625
1490.05602	9228.5625
1493.44922	9592.2625
1496.84016	10177.5625
1500.22882	11112.0625
1503.61521	12201.4625
1506.99934	13316.6625
1510.38121	14044.0625
1513.76081	13918.5625
1517.13816	12898.2625
1520.51324	11544.3625
1523.88607	10458.3625
1527.25665	9818.9625
1530.62498	9478.8625
1533.99105	9389.5625
1537.35488	9295.8625
1540.71647	9318.5625
1544.07581	9274.8625
1547.4329	9208.8625
1550.78776	9108.3625
1554.14038	8947.1625
1557.49077	8877.8625
1560.83892	8876.5625
1564.18484	8982.3625
1567.52853	9208.6625
1570.86999	9385.1625
1574.20922	9458.2625
1577.54624	9392.9625
1580.88103	9057.0625
1584.2136	8586.7625
1587.54395	8431.9625
1590.87208	8415.6625
1594.19801	8551.9625
1597.52172	8861.9625
1600.84321	9055.4625
1604.16251	9032.9625
1607.47959	8919.8625
1610.79447	8743.4625
1614.10715	8433.4625
1617.41763	8125.7625
1620.7259	7858.2625
1624.03199	7709.2625
1627.33587	7625.5625
1630.63757	7689.6625
1633.93707	7846.4625
1637.23439	8200.5625
1640.52951	8738.1625
1643.82246	9437.1625
1647.11321	10218.7625
1650.40179	10619.0625
1653.68819	10301.4625
1656.97241	9406.1625
1660.25446	8415.8625
1663.53433	7705.2625
1666.81203	7240.4625
1670.08756	7004.9625
1673.36092	6860.8625
1676.63211	6762.4625
1679.90115	6686.5625
1683.16801	6607.2625
1686.43272	6503.1625
1689.69527	6491.1625
1692.95567	6430.5625
1696.2139	6393.6625
1699.46999	6315.8625
1702.72392	6353.0625
1705.97571	6353.6625
1709.22535	6340.3625
1712.47284	6375.9625
1715.71819	6362.6625
1718.96139	6377.3625
1722.20246	6361.6625
1725.44139	6335.7625
1728.67818	6331.9625
1731.91284	6275.2625
1735.14537	6249.5625
1738.37576	6238.9625
1741.60403	6211.8625
1744.83017	6189.7625
1748.05418	6204.6625
1751.27607	6200.5625
1754.49584	6169.9625
1757.71349	6146.5625
1760.92903	6149.7625
1764.14244	6093.8625
1767.35375	6121.0625
1770.56294	6096.1625
1773.77002	6048.3625
1776.97499	6082.2625
1780.17785	6078.2625
1783.37861	6077.3625
1786.57727	6099.1625
1789.77382	6019.0625
1792.96828	6030.8625
1796.16064	6035.8625
1799.3509	6026.2625
1802.53907	6043.7625
1805.72514	6005.8625
1808.90913	5972.1625
1812.09102	5963.5625
1815.27083	5981.6625
1818.44856	5961.0625
1821.6242	5952.4625
1824.79776	5939.7625
1827.96924	5919.5625
1831.13864	5895.2625
1834.30597	5914.3625
1837.47122	5895.4625
1840.6344	5892.2625
1843.7955	5866.8625
1846.95454	5856.9625
1850.11151	5882.9625
1853.26642	5848.7625
1856.41926	5849.4625
1859.57004	5854.8625
1862.71876	5845.8625
1865.86542	5851.8625
1869.01003	5835.9625
1872.15258	5804.3625
1875.29308	5852.6625
1878.43152	5841.1625
1881.56792	5796.9625
1884.70227	5789.5625
1887.83457	5791.8625
1890.96482	5744.6625
1894.09304	5767.9625
1897.21921	5756.2625
1900.34335	5763.0625
1903.46544	5738.3625
1906.58551	5776.3625
1909.70353	5758.1625
1912.81953	5747.5625
1915.93349	5732.5625
1919.04543	5731.0625
1922.15534	5719.8625
1925.26322	5702.2625
1928.36908	5687.5625
1931.47292	5682.8625
1934.57473	5693.0625
1937.67453	5659.7625
1940.77232	5636.8625
1943.86808	5638.2625
1946.96184	5615.8625
1950.05358	5597.5625
1953.14331	5566.1625
1956.23103	5577.4625
1959.31675	5546.2625
1962.40046	5500.1625
1965.48217	5497.9625
1968.56188	5499.1625
1971.63959	5480.8625
1974.7153	5480.7625
1977.78901	5471.8625
1980.86073	5461.6625
1983.93046	5407.1625
1986.99819	5332.0625
1990.06394	5348.6625
1993.1277	5374.1625
1996.18947	5352.5625
1999.24925	5312.6625
2002.30706	5310.1625
2005.36288	5302.4625
2008.41672	5288.6625
2011.46859	5263.7625
2014.51848	5242.1625
2017.56639	5240.8625
2020.61233	5196.2625
2023.6563	5208.2625
2026.6983	5179.0625
2029.73833	5175.9625
2032.7764	5161.9625
2035.8125	5140.8625
2038.84664	5121.7625
2041.87881	5110.6625
2044.90903	5114.6625
2047.93729	5102.6625
2050.96359	5070.9625
2053.98794	5109.2625
2057.01034	5092.3625
2060.03078	5075.2625
2063.04927	5073.4625
2066.06582	5082.1625
2069.08042	5053.4625
2072.09307	5066.2625
2075.10378	5057.0625
2078.11255	5054.6625
2081.11938	5043.2625
2084.12426	5052.0625
2087.12722	5037.1625
2090.12824	5028.9625
2093.12732	5033.2625
2096.12447	5043.3625
2099.11969	5036.0625
2102.11299	5020.2625
2105.10435	5038.2625
2108.09379	5055.0625
2111.08131	5021.7625
2114.0669	5041.2625
2117.05057	5020.8625
2120.03233	5024.6625
2123.01216	5064.1625
2125.99008	5056.5625
2128.96609	5035.9625
2131.94018	5062.6625
2134.91236	5051.5625
2137.88263	5052.5625
2140.851	5053.7625
2143.81746	5087.3625
2146.78201	5055.5625
2149.74466	5032.7625
2152.7054	5062.6625
2155.66425	5053.2625
2158.6212	5048.0625
2161.57625	5031.9625
2164.52941	4991.5625
2167.48067	5020.9625
2170.43004	5012.8625
2173.37752	5032.3625
2176.32311	5009.0625
2179.26681	5016.3625
2182.20863	5031.8625
2185.14856	5014.2625
2188.08661	5010.4625
2191.02278	5016.7625
2193.95707	5004.8625
2196.88948	4981.5625
2199.82001	5010.5625
2202.74867	4983.8625
2205.67545	4986.8625
2208.60037	4992.0625
2211.52341	4972.3625
2214.44458	4972.7625
2217.36388	4920.6625
2220.28132	4936.4625
2223.1969	4911.9625
2226.11061	4917.0625
2229.02246	4889.1625
2231.93245	4902.9625
2234.84058	4875.7625
2237.74686	4870.9625
2240.65128	4872.0625
2243.55385	4858.3625
2246.45456	4850.8625
2249.35343	4861.2625
2252.25044	4846.5625
2255.14561	4830.7625
2258.03893	4850.8625
2260.93041	4822.8625
2263.82004	4809.0625
2266.70783	4807.0625
2269.59378	4771.8625
2272.4779	4763.0625
2275.36017	4758.8625
2278.24061	4748.5625
2281.11922	4717.2625
2283.996	4736.8625
2286.87094	4725.3625
2289.74405	4713.0625
2292.61534	4710.0625
2295.4848	4707.7625
2298.35243	4713.0625
2301.21824	4687.9625
2304.08223	4688.1625
2306.94439	4698.6625
2309.80474	4690.1625
2312.66327	4672.6625
2315.51999	4655.9625
2318.37489	4655.7625
2321.22797	4651.2625
2324.07925	4623.4625
2326.92871	4640.4625
2329.77637	4620.7625
2332.62222	4594.0625
2335.46626	4574.7625
2338.3085	4572.0625
2341.14893	4587.9625
2343.98756	4600.0625
2346.8244	4560.3625
2349.65943	4555.0625
2352.49267	4555.2625
2355.32411	4571.9625
2358.15376	4564.0625
2360.98161	4580.3625
2363.80768	4546.3625
2366.63195	4556.6625
2369.45444	4555.1625
2372.27514	4540.7625
2375.09405	4549.5625
2377.91118	4511.5625
2380.72652	4509.6625
2383.54009	4506.3625
2386.35187	4511.0625
2389.16188	4477.4625
2391.97011	4484.1625
2394.77657	4473.7625
2397.58125	4469.9625
2400.38416	4460.8625
2403.18529	4442.5625
2405.98466	4437.3625
2408.78226	4442.6625
2411.57809	4421.9625
2414.37216	4410.4625
2417.16446	4409.2625
2419.955	4399.0625
2422.74378	4406.9625
2425.5308	4389.9625
2428.31606	4393.1625
2431.09956	4386.9625
2433.88131	4374.3625
2436.6613	4373.6625
2439.43954	4347.6625
2442.21603	4329.5625
2444.99077	4334.3625
2447.76377	4366.2625
2450.53501	4334.3625
2453.30451	4327.1625
2456.07226	4340.8625
2458.83827	4316.1625
2461.60254	4281.4625
2464.36507	4325.2625
2467.12586	4288.1625
2469.88492	4287.6625
2472.64224	4310.5625
2475.39782	4286.8625
2478.15167	4285.1625
2480.90379	4279.1625
2483.65417	4291.1625
2486.40283	4301.2625
2489.14976	4305.1625
2491.89497	4278.6625
2494.63845	4274.1625
2497.3802	4268.4625
2500.12024	4269.8625
2502.85855	4262.1625
2505.59514	4257.0625
2508.33002	4253.8625
2511.06318	4212.6625
2513.79462	4233.4625
2516.52435	4184.0625
2519.25237	4167.4625
2521.97867	4190.4625
2524.70327	4190.8625
2527.42616	4193.2625
2530.14734	4210.4625
2532.86681	4168.5625
2535.58458	4169.2625
2538.30065	4154.1625
2541.01501	4192.7625
2543.72768	4167.5625
2546.43864	4157.5625
2549.14791	4146.8625
2551.85548	4129.1625
2554.56136	4117.1625
2557.26554	4116.1625
2559.96803	4115.6625
2562.66883	4111.7625
2565.36794	4091.9625
2568.06536	4064.2625
2570.7611	4083.6625
2573.45514	4078.9625
2576.14751	4046.4625
2578.83819	4040.4625
2581.52719	4020.3625
2584.21451	4033.1625
2586.90015	3993.5625
2589.58411	3994.0625
2592.2664	3988.3625
2594.94701	3991.9625
2597.62594	4000.5625
2600.30321	3924.2625
2602.9788	3951.7625
2605.65273	3942.8625
2608.32498	3951.4625
2610.99557	3960.5625
2613.66449	3938.9625
2616.33175	3945.3625
2618.99734	3950.6625
2621.66128	3950.4625
2624.32355	3939.1625
2626.98416	3902.4625
2629.64311	3895.9625
2632.30041	3887.8625
2634.95605	3870.8625
2637.61004	3862.2625
2640.26238	3846.2625
2642.91306	3839.2625
2645.56209	3871.0625
2648.20948	3868.6625
2650.85521	3839.4625
2653.4993	3864.5625
2656.14175	3838.2625
2658.78255	3847.6625
2661.42171	3803.2625
2664.05923	3830.5625
2666.6951	3849.5625
2669.32934	3864.8625
2671.96194	3852.4625
2674.59291	3841.5625
2677.22224	3857.9625
2679.84993	3858.5625
2682.476	3840.7625
2685.10043	3835.8625
2687.72324	3823.3625
2690.34441	3819.7625
2692.96396	3815.6625
2695.58188	3842.6625
2698.19818	3836.7625
2700.81285	3816.4625
2703.4259	3813.5625
2706.03733	3785.0625
2708.64714	3782.7625
2711.25533	3812.7625
2713.86191	3794.7625
2716.46687	3806.3625
2719.07021	3805.4625
2721.67194	3812.6625
2724.27206	3816.3625
2726.87057	3790.1625
2729.46747	3799.3625
2732.06276	3806.1625
2734.65644	3772.1625
2737.24852	3785.4625
2739.83899	3762.9625
2742.42786	3767.7625
2745.01513	3772.7625
2747.60079	3749.0625
2750.18486	3740.2625
2752.76733	3745.3625
2755.3482	3727.1625
2757.92747	3727.4625
2760.50515	3717.5625
2763.08123	3711.8625
2765.65573	3708.5625
2768.22863	3707.3625
2770.79994	3685.2625
2773.36967	3684.4625
2775.9378	3673.8625
2778.50435	3662.8625
2781.06932	3658.5625
2783.6327	3651.0625
2786.1945	3669.0625
2788.75471	3646.7625
2791.31335	3649.7625
2793.87041	3648.7625
2796.42589	3617.2625
2798.97979	3601.2625
2801.53212	3616.0625
2804.08288	3619.4625
2806.63206	3604.4625
2809.17967	3564.3625
2811.72571	3590.3625
2814.27018	3572.2625
2816.81308	3572.2625
2819.35442	3532.8625
2821.89419	3545.5625
2824.43239	3524.7625
2826.96904	3561.0625
2829.50412	3537.1625
2832.03763	3537.1625
2834.56959	3524.7625
2837.1	3519.0625
2839.62884	3515.1625
2842.15613	3514.4625
2844.68186	3526.2625
2847.20604	3500.7625
2849.72867	3487.5625
2852.24974	3480.8625
2854.76927	3432.6625
2857.28724	3404.6625
2859.80367	3458.6625
2862.31855	3466.9625
2864.83189	3450.0625
2867.34368	3445.1625
2869.85393	3467.5625
2872.36264	3429.9625
2874.8698	3429.3625
2877.37543	3439.2625
2879.87952	3425.7625
2882.38207	3409.7625
2884.88308	3411.3625
2887.38256	3416.0625
2889.88051	3399.6625
2892.37692	3410.9625
2894.8718	3389.2625
2897.36515	3402.4625
2899.85698	3396.8625
2902.34727	3388.4625
2904.83604	3394.3625
2907.32328	3415.5625
2909.809	3398.4625
2912.29319	3396.4625
2914.77587	3405.0625
2917.25702	3427.5625
2919.73665	3417.4625
2922.21476	3408.5625
2924.69136	3402.0625
2927.16644	3398.9625
2929.64	3406.2625
2932.11205	3382.8625
2934.58258	3380.0625
2937.05161	3376.1625
2939.51912	3366.4625
2941.98513	3383.0625
2944.44962	3377.9625
2946.91261	3356.6625
2949.37409	3362.9625
2951.83407	3361.1625
2954.29254	3351.8625
2956.74951	3349.1625
2959.20498	3325.8625
2961.65895	3322.5625
2964.11142	3321.7625
2966.56239	3313.8625
2969.01186	3337.3625
2971.45984	3313.0625
2973.90632	3280.8625
2976.35131	3320.2625
2978.7948	3304.2625
2981.23681	3289.6625
2983.67732	3283.4625
2986.11635	3277.6625
2988.55388	3247.0625
2990.98993	3266.0625
2993.4245	3250.0625
2995.85758	3244.8625
2998.28917	3230.7625
3000.71928	3217.1625
3003.14791	3192.2625
3005.57506	3200.0625
3008.00073	3188.2625
3010.42493	3120.3625
3012.84764	3169.2625
3015.26888	3173.9625
3017.68865	3159.5625
3020.10694	3125.7625
3022.52376	3127.6625
3024.9391	3134.4625
3027.35298	3115.1625
3029.76539	3105.4625
3032.17632	3113.5625
3034.5858	3094.8625
3036.9938	3102.0625
3039.40034	3099.1625
3041.80542	3083.9625
3044.20903	3068.6625
3046.61118	3061.1625
3049.01187	3071.6625
3051.4111	3049.6625
3053.80888	3038.1625
3056.20519	3030.2625
3058.60005	3009.5625
3060.99345	3037.4625
3063.3854	3022.1625
3065.7759	2999.8625
3068.16494	2985.5625
3070.55254	2972.3625
3072.93868	2992.4625
3075.32338	2981.2625
3077.70662	2966.1625
3080.08842	2949.8625
3082.46878	2924.8625
3084.84769	2971.5625
3087.22515	2933.1625
3089.60118	2952.8625
3091.97576	2949.1625
3094.3489	2943.9625
3096.72061	2926.8625
3099.09087	2910.5625
3101.4597	2941.4625
3103.82709	2924.3625
3106.19305	2910.5625
3108.55757	2917.7625
3110.92066	2893.9625
3113.28232	2902.9625
3115.64255	2901.4625
3118.00134	2894.3625
3120.35871	2869.2625
3122.71466	2856.5625
3125.06917	2864.1625
3127.42226	2857.6625
3129.77393	2822.0625
3132.12417	2847.9625
3134.47299	2856.7625
3136.82039	2819.8625
3139.16636	2795.2625
3141.51092	2824.4625
3143.85406	2831.5625
3146.19579	2821.0625
3148.53609	2809.6625
3150.87499	2808.7625
3153.21246	2794.3625
3155.54853	2812.3625
3157.88318	2816.8625
3160.21642	2816.6625
3162.54826	2805.0625
3164.87868	2813.3625
3167.2077	2767.6625
3169.5353	2793.6625
3171.86151	2798.1625
3174.18631	2781.7625
3176.5097	2781.6625
3178.83169	2769.3625
3181.15228	2762.8625
3183.47147	2739.3625
3185.78926	2738.8625
3188.10565	2740.4625
3190.42065	2713.0625
3192.73424	2728.6625
3195.04645	2716.4625
3197.35725	2704.5625
3199.66667	2718.9625
3201.97469	2699.6625
3204.28132	2696.8625
3206.58656	2715.7625
3208.8904	2717.6625
3211.19287	2697.5625
3213.49394	2693.6625
3215.79363	2688.1625
3218.09193	2692.7625
3220.38884	2705.7625
3222.68438	2690.7625
3224.97853	2675.7625
3227.2713	2681.1625
3229.56269	2673.3625
3231.8527	2679.0625
3234.14133	2662.8625
3236.42858	2644.2625
3238.71446	2632.8625
3240.99896	2652.7625
3243.28209	2632.3625
3245.56384	2625.8625
3247.84423	2618.5625
3250.12324	2632.1625
3252.40088	2618.4625
3254.67715	2599.7625
3256.95205	2594.9625
3259.22558	2614.3625
3261.49775	2608.5625
3263.76855	2605.9625
3266.03799	2614.0625
3268.30606	2602.2625
3270.57277	2600.2625
3272.83812	2581.1625
3275.10211	2577.9625
3277.36474	2590.7625
3279.62601	2583.8625
3281.88593	2556.0625
3284.14448	2536.2625
3286.40168	2555.3625
3288.65753	2547.4625
3290.91202	2544.0625
3293.16516	2519.8625
3295.41695	2548.3625
3297.66738	2538.2625
3299.91647	2501.7625
3302.16421	2502.6625
3304.4106	2458.8625
3306.65564	2476.7625
3308.89933	2443.0625
3311.14169	2434.2625
3313.38269	2406.4625
3315.62236	2386.9625
3317.86068	2375.9625
3320.09766	2360.8625
3322.3333	2330.6625
3324.5676	2325.0625
3326.80056	2282.1625
3329.03219	2280.1625
3331.26248	0.1625
3333.49143	-1.6375
3335.71905	0.6625
