Data from AgNPs_UA_5uM_CRN_500uM_SU_RamanShift__240__12-09-23-188.txt Node

Date: Thu Aug 04 12:09:23 BST 2022
User: TCL
Spectrometer: QEP01345
Trigger mode: 4
Integration Time (sec): 1.000000E0
Scans to average: 10
Electric dark correction enabled: true
Nonlinearity correction enabled: false
Boxcar width: 0
XAxis mode: Raman Shifts
Number of Pixels in Spectrum: 1044
>>>>>Begin Spectral Data<<<<<
46.04893	-0.2375
50.45542	-0.2375
54.85868	0.7625
59.25871	-0.8375
63.6555	-57.9375
68.04907	-38.8375
72.43941	-72.2375
76.82654	-56.4375
81.21044	-56.9375
85.59113	-48.3375
89.96862	-75.5375
94.34289	-55.3375
98.71396	-77.6375
103.08183	-59.2375
107.4465	-50.2375
111.80798	-56.2375
116.16626	-46.6375
120.52136	-73.1375
124.87327	-51.9375
129.222	-64.0375
133.56755	-50.1375
137.90993	-63.3375
142.24913	-52.6375
146.58517	-44.8375
150.91804	-41.7375
155.24774	-29.7375
159.57429	-9.8375
163.89768	-10.9375
168.21792	37.2625
172.53501	51.4625
176.84895	136.4625
181.15975	264.4625
185.46741	409.4625
189.77193	595.4625
194.07331	874.0625
198.37157	1160.9625
202.6667	1426.8625
206.9587	1747.4625
211.24758	2060.4625
215.53334	2372.8625
219.81599	2715.5625
224.09553	3125.4625
228.37195	3541.3625
232.64527	4002.9625
236.91549	4456.4625
241.18261	4807.2625
245.44663	5079.1625
249.70755	5255.2625
253.96539	5358.2625
258.22014	5463.3625
262.4718	5531.8625
266.72039	5578.2625
270.96589	5562.9625
275.20832	5444.0625
279.44768	5344.1625
283.68397	5236.8625
287.91719	5182.0625
292.14735	5223.4625
296.37445	5381.1625
300.59849	5706.1625
304.81948	6025.7625
309.03742	6386.8625
313.25231	6642.2625
317.46415	6598.2625
321.67296	6207.8625
325.87872	5816.4625
330.08145	5599.9625
334.28114	5567.5625
338.47781	5629.8625
342.67145	5753.1625
346.86207	5990.6625
351.04966	6360.4625
355.23424	6741.6625
359.4158	6972.9625
363.59435	7038.7625
367.76989	6972.7625
371.94243	6833.9625
376.11196	6714.4625
380.27849	6637.4625
384.44203	6557.3625
388.60257	6525.1625
392.76012	6522.8625
396.91468	6654.5625
401.06626	6815.8625
405.21485	6839.9625
409.36047	6692.0625
413.50311	6369.0625
417.64277	6074.8625
421.77947	5852.1625
425.9132	5789.8625
430.04396	5793.6625
434.17176	5816.0625
438.2966	5920.7625
442.41849	6001.3625
446.53742	6117.8625
450.6534	6220.7625
454.76644	6285.0625
458.87653	6275.1625
462.98368	6234.2625
467.08789	6181.4625
471.18916	6075.5625
475.2875	5980.7625
479.38291	5861.0625
483.4754	5756.7625
487.56496	5743.8625
491.6516	5690.6625
495.73531	5705.8625
499.81612	5737.7625
503.89401	5822.3625
507.96899	5855.6625
512.04106	5970.4625
516.11023	6059.7625
520.1765	6156.6625
524.23987	6160.9625
528.30034	6153.4625
532.35792	6077.3625
536.41261	6025.1625
540.46441	5924.0625
544.51333	5877.1625
548.55936	5917.6625
552.60252	6065.8625
556.64279	6155.3625
560.6802	6279.6625
564.71473	6416.7625
568.7464	6600.7625
572.7752	6585.8625
576.80114	6270.3625
580.82422	6039.9625
584.84444	5946.0625
588.86181	5915.9625
592.87633	5953.3625
596.888	6079.2625
600.89682	6450.8625
604.9028	7427.6625
608.90594	9507.1625
612.90624	11836.4625
616.90371	10950.6625
620.89834	7881.5625
624.89015	6559.9625
628.87913	6342.1625
632.86528	6502.0625
636.84862	6678.7625
640.82913	6526.1625
644.80683	6179.4625
648.78172	6003.0625
652.75379	6032.4625
656.72306	6282.0625
660.68952	6505.8625
664.65319	6426.0625
668.61405	6185.0625
672.57211	6122.6625
676.52738	6119.5625
680.47986	6014.3625
684.42955	5918.8625
688.37646	5869.1625
692.32058	5865.4625
696.26192	5958.2625
700.20048	6030.8625
704.13626	6071.1625
708.06928	6034.4625
711.99952	6002.0625
715.927	5980.0625
719.85171	6006.8625
723.77365	6081.4625
727.69284	6072.1625
731.60928	6025.4625
735.52295	5986.5625
739.43388	6048.1625
743.34206	6065.0625
747.24749	6087.4625
751.15017	6096.2625
755.05012	6184.6625
758.94733	6554.8625
762.8418	7414.2625
766.73354	8759.8625
770.62254	9771.3625
774.50882	9850.5625
778.39237	9322.9625
782.27321	8362.7625
786.15132	7324.5625
790.02671	6624.5625
793.89938	6262.1625
797.76935	6154.5625
801.6366	6048.1625
805.50115	5992.6625
809.36299	5992.7625
813.22213	5992.9625
817.07857	5984.8625
820.93231	5971.3625
824.78336	5990.1625
828.63172	6032.2625
832.47738	6025.9625
836.32036	6029.0625
840.16066	5986.3625
843.99827	5975.0625
847.8332	5968.4625
851.66546	5973.4625
855.49504	5988.9625
859.32195	6015.2625
863.1462	6006.5625
866.96777	6009.1625
870.78668	6002.7625
874.60293	6008.9625
878.41652	6036.8625
882.22745	6109.7625
886.03573	6141.6625
889.84136	6130.3625
893.64433	6121.1625
897.44466	6133.5625
901.24235	6117.3625
905.0374	6108.0625
908.8298	6046.2625
912.61957	5996.7625
916.40671	5977.5625
920.19121	6021.1625
923.97308	6131.3625
927.75233	6172.3625
931.52895	6228.4625
935.30295	6202.4625
939.07433	6053.4625
942.84309	5919.9625
946.60924	5900.5625
950.37278	5877.8625
954.13371	5873.2625
957.89203	5855.3625
961.64774	5868.4625
965.40086	5874.5625
969.15137	5849.6625
972.89929	5879.8625
976.64461	5852.8625
980.38733	5893.9625
984.12747	5888.4625
987.86502	5886.8625
991.59999	5903.2625
995.33237	6000.6625
999.06217	6055.9625
1002.78939	6136.1625
1006.51404	6256.8625
1010.23611	6357.7625
1013.95561	6415.8625
1017.67255	6417.8625
1021.38692	6390.1625
1025.09872	6325.9625
1028.80796	6244.7625
1032.51465	6266.2625
1036.21877	6247.3625
1039.92035	6293.5625
1043.61937	6319.0625
1047.31584	6380.6625
1051.00976	6402.5625
1054.70114	6425.7625
1058.38998	6413.4625
1062.07627	6419.3625
1065.76003	6441.4625
1069.44126	6526.9625
1073.11995	6596.7625
1076.79611	6719.1625
1080.46974	6897.5625
1084.14085	7048.9625
1087.80943	7172.6625
1091.47549	7206.4625
1095.13903	7139.3625
1098.80005	7000.3625
1102.45857	6904.5625
1106.11456	6872.7625
1109.76805	6823.3625
1113.41903	6929.1625
1117.06751	7108.1625
1120.71348	7375.3625
1124.35696	7759.5625
1127.99793	8044.6625
1131.63641	7874.0625
1135.2724	7460.4625
1138.90589	7174.8625
1142.5369	6970.8625
1146.16542	6861.8625
1149.79145	6754.4625
1153.415	6706.4625
1157.03607	6697.3625
1160.65467	6804.2625
1164.27079	7010.5625
1167.88443	7283.3625
1171.49561	7705.3625
1175.10432	8350.5625
1178.71056	9233.6625
1182.31434	10040.2625
1185.91565	10316.9625
1189.51451	10153.2625
1193.11091	9874.8625
1196.70485	9613.0625
1200.29634	9398.2625
1203.88538	9082.6625
1207.47197	8643.4625
1211.05612	8195.4625
1214.63782	7774.7625
1218.21708	7488.5625
1221.79391	7351.7625
1225.36829	7308.4625
1228.94024	7275.2625
1232.50976	7283.4625
1236.07685	7313.9625
1239.6415	7336.0625
1243.20374	7377.0625
1246.76355	7396.5625
1250.32093	7482.1625
1253.8759	7553.6625
1257.42845	7699.8625
1260.97859	7919.4625
1264.52631	8139.5625
1268.07163	8320.9625
1271.61453	8450.3625
1275.15503	8471.7625
1278.69312	8503.2625
1282.22882	8565.9625
1285.76211	8767.8625
1289.29301	9001.9625
1292.82151	9273.9625
1296.34761	9486.6625
1299.87133	9892.9625
1303.39266	10619.4625
1306.9116	11758.6625
1310.42815	12985.4625
1313.94233	13427.1625
1317.45412	12636.9625
1320.96354	11498.1625
1324.47058	10493.0625
1327.97525	9721.3625
1331.47754	9318.4625
1334.97747	9213.9625
1338.47502	9305.7625
1341.97022	9696.8625
1345.46305	10427.1625
1348.95352	11539.1625
1352.44163	12850.1625
1355.92738	14204.1625
1359.41078	15892.4625
1362.89183	17412.0625
1366.37053	16811.9625
1369.84688	13923.6625
1373.32088	11208.0625
1376.79254	9797.7625
1380.26186	9100.0625
1383.72883	8664.6625
1387.19347	8269.0625
1390.65578	7917.8625
1394.11575	7683.2625
1397.57339	7514.2625
1401.0287	7376.0625
1404.48168	7356.9625
1407.93234	7364.3625
1411.38068	7390.0625
1414.82669	7458.4625
1418.27039	7549.3625
1421.71177	7550.7625
1425.15083	7436.3625
1428.58758	7359.4625
1432.02203	7375.5625
1435.45416	7458.0625
1438.88399	7475.9625
1442.31151	7448.8625
1445.73673	7508.6625
1449.15965	7555.8625
1452.58027	7575.8625
1455.9986	7564.9625
1459.41463	7580.5625
1462.82837	7701.0625
1466.23982	7851.8625
1469.64898	8079.3625
1473.05586	8228.7625
1476.46045	8356.1625
1479.86276	8399.0625
1483.26279	8508.3625
1486.66054	8727.5625
1490.05602	8992.4625
1493.44922	9559.4625
1496.84016	10451.3625
1500.22882	11821.9625
1503.61521	13583.6625
1506.99934	15372.9625
1510.38121	16602.0625
1513.76081	16453.2625
1517.13816	14844.6625
1520.51324	12703.8625
1523.88607	10999.4625
1527.25665	9987.6625
1530.62498	9493.4625
1533.99105	9298.6625
1537.35488	9158.4625
1540.71647	9061.4625
1544.07581	8925.4625
1547.4329	8792.7625
1550.78776	8650.8625
1554.14038	8576.1625
1557.49077	8536.5625
1560.83892	8646.0625
1564.18484	8867.8625
1567.52853	9230.8625
1570.86999	9550.7625
1574.20922	9703.4625
1577.54624	9586.2625
1580.88103	9059.0625
1584.2136	8354.0625
1587.54395	7966.2625
1590.87208	7884.9625
1594.19801	8057.5625
1597.52172	8409.7625
1600.84321	8562.6625
1604.16251	8420.0625
1607.47959	8202.7625
1610.79447	8029.9625
1614.10715	7765.2625
1617.41763	7463.4625
1620.7259	7179.7625
1624.03199	7025.8625
1627.33587	6949.5625
1630.63757	7005.0625
1633.93707	7246.1625
1637.23439	7665.9625
1640.52951	8340.1625
1643.82246	9324.8625
1647.11321	10495.6625
1650.40179	11209.7625
1653.68819	10914.7625
1656.97241	9660.2625
1660.25446	8267.2625
1663.53433	7237.2625
1666.81203	6629.4625
1670.08756	6298.0625
1673.36092	6128.2625
1676.63211	5970.2625
1679.90115	5887.3625
1683.16801	5798.5625
1686.43272	5726.4625
1689.69527	5670.4625
1692.95567	5621.1625
1696.2139	5593.9625
1699.46999	5542.6625
1702.72392	5538.7625
1705.97571	5555.5625
1709.22535	5536.7625
1712.47284	5558.2625
1715.71819	5584.7625
1718.96139	5574.1625
1722.20246	5553.7625
1725.44139	5522.2625
1728.67818	5491.3625
1731.91284	5470.5625
1735.14537	5416.4625
1738.37576	5408.4625
1741.60403	5370.6625
1744.83017	5337.2625
1748.05418	5351.8625
1751.27607	5350.1625
1754.49584	5312.4625
1757.71349	5267.2625
1760.92903	5290.4625
1764.14244	5234.9625
1767.35375	5240.5625
1770.56294	5224.2625
1773.77002	5186.6625
1776.97499	5221.0625
1780.17785	5194.7625
1783.37861	5203.1625
1786.57727	5197.5625
1789.77382	5123.3625
1792.96828	5159.8625
1796.16064	5173.6625
1799.3509	5157.6625
1802.53907	5162.6625
1805.72514	5126.5625
1808.90913	5089.1625
1812.09102	5096.3625
1815.27083	5083.5625
1818.44856	5049.3625
1821.6242	5066.5625
1824.79776	5056.7625
1827.96924	5043.3625
1831.13864	5020.6625
1834.30597	5024.8625
1837.47122	5016.5625
1840.6344	4990.5625
1843.7955	4994.3625
1846.95454	4978.5625
1850.11151	4982.4625
1853.26642	4949.6625
1856.41926	4957.4625
1859.57004	4953.2625
1862.71876	4943.2625
1865.86542	4941.4625
1869.01003	4930.2625
1872.15258	4919.6625
1875.29308	4933.8625
1878.43152	4934.5625
1881.56792	4916.3625
1884.70227	4899.7625
1887.83457	4893.6625
1890.96482	4882.6625
1894.09304	4858.9625
1897.21921	4863.5625
1900.34335	4871.6625
1903.46544	4851.0625
1906.58551	4856.1625
1909.70353	4857.2625
1912.81953	4855.7625
1915.93349	4822.6625
1919.04543	4824.8625
1922.15534	4807.2625
1925.26322	4812.0625
1928.36908	4781.0625
1931.47292	4788.8625
1934.57473	4791.3625
1937.67453	4768.3625
1940.77232	4737.1625
1943.86808	4726.9625
1946.96184	4733.7625
1950.05358	4705.7625
1953.14331	4681.8625
1956.23103	4686.6625
1959.31675	4649.8625
1962.40046	4599.7625
1965.48217	4636.2625
1968.56188	4628.3625
1971.63959	4605.7625
1974.7153	4606.8625
1977.78901	4600.9625
1980.86073	4573.7625
1983.93046	4543.8625
1986.99819	4453.4625
1990.06394	4469.3625
1993.1277	4526.0625
1996.18947	4472.2625
1999.24925	4458.2625
2002.30706	4450.3625
2005.36288	4441.3625
2008.41672	4406.0625
2011.46859	4403.3625
2014.51848	4393.5625
2017.56639	4370.4625
2020.61233	4346.2625
2023.6563	4349.7625
2026.6983	4315.2625
2029.73833	4307.2625
2032.7764	4316.2625
2035.8125	4272.9625
2038.84664	4280.7625
2041.87881	4271.3625
2044.90903	4275.9625
2047.93729	4253.4625
2050.96359	4224.4625
2053.98794	4247.3625
2057.01034	4249.1625
2060.03078	4215.6625
2063.04927	4231.4625
2066.06582	4208.0625
2069.08042	4211.4625
2072.09307	4198.1625
2075.10378	4201.8625
2078.11255	4187.3625
2081.11938	4187.8625
2084.12426	4189.4625
2087.12722	4180.0625
2090.12824	4184.3625
2093.12732	4186.7625
2096.12447	4187.8625
2099.11969	4175.2625
2102.11299	4165.6625
2105.10435	4198.0625
2108.09379	4198.1625
2111.08131	4168.7625
2114.0669	4177.5625
2117.05057	4187.8625
2120.03233	4176.0625
2123.01216	4195.5625
2125.99008	4184.2625
2128.96609	4194.9625
2131.94018	4215.4625
2134.91236	4186.2625
2137.88263	4194.5625
2140.851	4193.5625
2143.81746	4200.2625
2146.78201	4189.9625
2149.74466	4186.8625
2152.7054	4189.1625
2155.66425	4165.3625
2158.6212	4182.4625
2161.57625	4156.7625
2164.52941	4129.0625
2167.48067	4155.7625
2170.43004	4137.7625
2173.37752	4174.2625
2176.32311	4145.6625
2179.26681	4149.7625
2182.20863	4143.7625
2185.14856	4155.5625
2188.08661	4167.8625
2191.02278	4166.7625
2193.95707	4126.9625
2196.88948	4114.7625
2199.82001	4142.7625
2202.74867	4124.3625
2205.67545	4121.9625
2208.60037	4118.0625
2211.52341	4095.6625
2214.44458	4109.7625
2217.36388	4081.6625
2220.28132	4069.6625
2223.1969	4048.4625
2226.11061	4050.1625
2229.02246	4033.1625
2231.93245	4030.6625
2234.84058	4024.3625
2237.74686	4021.4625
2240.65128	3999.6625
2243.55385	4004.8625
2246.45456	3981.9625
2249.35343	3990.6625
2252.25044	3987.7625
2255.14561	3988.6625
2258.03893	3983.8625
2260.93041	3953.5625
2263.82004	3953.4625
2266.70783	3956.4625
2269.59378	3922.0625
2272.4779	3923.0625
2275.36017	3932.8625
2278.24061	3918.6625
2281.11922	3886.6625
2283.996	3886.2625
2286.87094	3890.1625
2289.74405	3869.8625
2292.61534	3887.9625
2295.4848	3875.6625
2298.35243	3861.2625
2301.21824	3854.5625
2304.08223	3842.8625
2306.94439	3849.1625
2309.80474	3853.6625
2312.66327	3835.3625
2315.51999	3832.2625
2318.37489	3826.5625
2321.22797	3808.3625
2324.07925	3806.3625
2326.92871	3802.4625
2329.77637	3782.7625
2332.62222	3779.5625
2335.46626	3762.5625
2338.3085	3748.1625
2341.14893	3765.1625
2343.98756	3764.9625
2346.8244	3747.1625
2349.65943	3733.6625
2352.49267	3746.0625
2355.32411	3745.0625
2358.15376	3748.1625
2360.98161	3748.4625
2363.80768	3741.9625
2366.63195	3730.8625
2369.45444	3738.1625
2372.27514	3763.7625
2375.09405	3749.6625
2377.91118	3720.1625
2380.72652	3704.9625
2383.54009	3711.3625
2386.35187	3709.1625
2389.16188	3685.8625
2391.97011	3686.5625
2394.77657	3660.2625
2397.58125	3660.0625
2400.38416	3653.6625
2403.18529	3628.8625
2405.98466	3619.9625
2408.78226	3621.4625
2411.57809	3614.6625
2414.37216	3607.2625
2417.16446	3597.6625
2419.955	3569.6625
2422.74378	3596.9625
2425.5308	3569.3625
2428.31606	3597.8625
2431.09956	3595.5625
2433.88131	3549.4625
2436.6613	3585.0625
2439.43954	3565.0625
2442.21603	3561.7625
2444.99077	3545.4625
2447.76377	3552.4625
2450.53501	3549.4625
2453.30451	3548.8625
2456.07226	3539.7625
2458.83827	3539.0625
2461.60254	3514.1625
2464.36507	3544.2625
2467.12586	3518.5625
2469.88492	3517.8625
2472.64224	3531.0625
2475.39782	3495.3625
2478.15167	3516.2625
2480.90379	3493.2625
2483.65417	3520.4625
2486.40283	3512.5625
2489.14976	3532.3625
2491.89497	3504.7625
2494.63845	3499.2625
2497.3802	3497.2625
2500.12024	3497.2625
2502.85855	3490.6625
2505.59514	3493.4625
2508.33002	3477.7625
2511.06318	3446.3625
2513.79462	3445.1625
2516.52435	3429.5625
2519.25237	3388.0625
2521.97867	3404.9625
2524.70327	3411.5625
2527.42616	3417.8625
2530.14734	3423.0625
2532.86681	3388.8625
2535.58458	3390.1625
2538.30065	3383.6625
2541.01501	3399.1625
2543.72768	3367.9625
2546.43864	3379.9625
2549.14791	3361.7625
2551.85548	3356.0625
2554.56136	3342.6625
2557.26554	3354.5625
2559.96803	3342.5625
2562.66883	3344.1625
2565.36794	3317.0625
2568.06536	3288.1625
2570.7611	3311.2625
2573.45514	3298.2625
2576.14751	3301.1625
2578.83819	3293.3625
2581.52719	3268.4625
2584.21451	3270.8625
2586.90015	3240.9625
2589.58411	3232.7625
2592.2664	3259.1625
2594.94701	3235.1625
2597.62594	3253.5625
2600.30321	3190.4625
2602.9788	3197.1625
2605.65273	3198.2625
2608.32498	3199.4625
2610.99557	3218.7625
2613.66449	3190.2625
2616.33175	3189.0625
2618.99734	3193.3625
2621.66128	3187.2625
2624.32355	3196.0625
2626.98416	3161.4625
2629.64311	3162.2625
2632.30041	3157.2625
2634.95605	3143.6625
2637.61004	3129.8625
2640.26238	3104.4625
2642.91306	3094.7625
2645.56209	3133.2625
2648.20948	3133.0625
2650.85521	3099.5625
2653.4993	3127.1625
2656.14175	3128.4625
2658.78255	3114.0625
2661.42171	3077.5625
2664.05923	3125.7625
2666.6951	3112.5625
2669.32934	3121.8625
2671.96194	3137.5625
2674.59291	3119.3625
2677.22224	3110.0625
2679.84993	3119.8625
2682.476	3114.9625
2685.10043	3098.4625
2687.72324	3089.3625
2690.34441	3092.1625
2692.96396	3098.3625
2695.58188	3102.8625
2698.19818	3090.4625
2700.81285	3079.8625
2703.4259	3068.7625
2706.03733	3057.6625
2708.64714	3051.1625
2711.25533	3082.6625
2713.86191	3086.8625
2716.46687	3088.4625
2719.07021	3075.9625
2721.67194	3070.3625
2724.27206	3096.3625
2726.87057	3062.0625
2729.46747	3065.5625
2732.06276	3069.2625
2734.65644	3051.6625
2737.24852	3055.6625
2739.83899	3036.8625
2742.42786	3032.0625
2745.01513	3052.2625
2747.60079	3041.9625
2750.18486	3006.2625
2752.76733	3011.3625
2755.3482	3030.8625
2757.92747	3018.5625
2760.50515	2996.2625
2763.08123	2996.0625
2765.65573	2996.9625
2768.22863	2984.0625
2770.79994	2970.0625
2773.36967	2962.3625
2775.9378	2956.2625
2778.50435	2964.3625
2781.06932	2958.9625
2783.6327	2933.2625
2786.1945	2956.6625
2788.75471	2953.5625
2791.31335	2936.6625
2793.87041	2926.6625
2796.42589	2913.2625
2798.97979	2914.1625
2801.53212	2913.7625
2804.08288	2929.0625
2806.63206	2911.9625
2809.17967	2890.0625
2811.72571	2896.1625
2814.27018	2890.5625
2816.81308	2881.5625
2819.35442	2842.3625
2821.89419	2866.5625
2824.43239	2853.7625
2826.96904	2883.6625
2829.50412	2866.2625
2832.03763	2860.4625
2834.56959	2871.8625
2837.1	2845.3625
2839.62884	2859.2625
2842.15613	2855.9625
2844.68186	2851.6625
2847.20604	2813.8625
2849.72867	2817.4625
2852.24974	2823.2625
2854.76927	2795.3625
2857.28724	2750.6625
2859.80367	2816.2625
2862.31855	2812.7625
2864.83189	2808.6625
2867.34368	2813.7625
2869.85393	2814.1625
2872.36264	2798.7625
2874.8698	2803.5625
2877.37543	2807.2625
2879.87952	2803.1625
2882.38207	2772.2625
2884.88308	2790.7625
2887.38256	2785.3625
2889.88051	2771.6625
2892.37692	2772.4625
2894.8718	2752.1625
2897.36515	2763.7625
2899.85698	2775.1625
2902.34727	2760.4625
2904.83604	2769.4625
2907.32328	2789.5625
2909.809	2777.3625
2912.29319	2781.4625
2914.77587	2793.1625
2917.25702	2804.6625
2919.73665	2798.2625
2922.21476	2797.8625
2924.69136	2790.7625
2927.16644	2781.7625
2929.64	2771.3625
2932.11205	2761.3625
2934.58258	2769.9625
2937.05161	2759.8625
2939.51912	2756.1625
2941.98513	2766.0625
2944.44962	2746.9625
2946.91261	2718.4625
2949.37409	2735.5625
2951.83407	2710.8625
2954.29254	2723.7625
2956.74951	2715.7625
2959.20498	2702.3625
2961.65895	2705.2625
2964.11142	2698.7625
2966.56239	2687.3625
2969.01186	2700.4625
2971.45984	2698.5625
2973.90632	2672.0625
2976.35131	2686.4625
2978.7948	2682.5625
2981.23681	2675.8625
2983.67732	2675.3625
2986.11635	2673.3625
2988.55388	2636.5625
2990.98993	2646.1625
2993.4245	2629.6625
2995.85758	2630.1625
2998.28917	2623.1625
3000.71928	2606.3625
3003.14791	2615.0625
3005.57506	2590.1625
3008.00073	2583.0625
3010.42493	2525.4625
3012.84764	2580.2625
3015.26888	2573.4625
3017.68865	2565.6625
3020.10694	2526.2625
3022.52376	2550.2625
3024.9391	2541.7625
3027.35298	2529.4625
3029.76539	2514.1625
3032.17632	2517.2625
3034.5858	2498.7625
3036.9938	2519.5625
3039.40034	2499.0625
3041.80542	2498.3625
3044.20903	2490.3625
3046.61118	2474.1625
3049.01187	2479.9625
3051.4111	2478.9625
3053.80888	2453.4625
3056.20519	2455.0625
3058.60005	2430.7625
3060.99345	2459.8625
3063.3854	2437.5625
3065.7759	2421.1625
3068.16494	2407.5625
3070.55254	2406.0625
3072.93868	2411.5625
3075.32338	2407.4625
3077.70662	2394.2625
3080.08842	2382.1625
3082.46878	2374.0625
3084.84769	2385.5625
3087.22515	2371.7625
3089.60118	2394.5625
3091.97576	2368.5625
3094.3489	2384.8625
3096.72061	2369.7625
3099.09087	2351.8625
3101.4597	2369.3625
3103.82709	2356.2625
3106.19305	2339.3625
3108.55757	2365.9625
3110.92066	2341.4625
3113.28232	2345.8625
3115.64255	2346.6625
3118.00134	2337.7625
3120.35871	2316.2625
3122.71466	2302.0625
3125.06917	2316.6625
3127.42226	2299.3625
3129.77393	2280.9625
3132.12417	2296.0625
3134.47299	2309.7625
3136.82039	2277.3625
3139.16636	2252.1625
3141.51092	2283.7625
3143.85406	2284.4625
3146.19579	2270.6625
3148.53609	2254.1625
3150.87499	2271.3625
3153.21246	2263.4625
3155.54853	2268.5625
3157.88318	2269.0625
3160.21642	2260.9625
3162.54826	2259.7625
3164.87868	2264.0625
3167.2077	2239.1625
3169.5353	2248.9625
3171.86151	2265.1625
3174.18631	2244.5625
3176.5097	2231.9625
3178.83169	2242.6625
3181.15228	2237.6625
3183.47147	2208.0625
3185.78926	2201.2625
3188.10565	2207.9625
3190.42065	2191.0625
3192.73424	2196.2625
3195.04645	2183.8625
3197.35725	2184.0625
3199.66667	2181.5625
3201.97469	2199.5625
3204.28132	2174.5625
3206.58656	2179.5625
3208.8904	2194.1625
3211.19287	2177.7625
3213.49394	2173.9625
3215.79363	2167.5625
3218.09193	2183.0625
3220.38884	2172.7625
3222.68438	2176.7625
3224.97853	2150.4625
3227.2713	2168.6625
3229.56269	2144.8625
3231.8527	2145.1625
3234.14133	2150.4625
3236.42858	2146.1625
3238.71446	2118.8625
3240.99896	2139.3625
3243.28209	2110.0625
3245.56384	2126.6625
3247.84423	2117.7625
3250.12324	2127.9625
3252.40088	2105.2625
3254.67715	2094.9625
3256.95205	2091.1625
3259.22558	2104.6625
3261.49775	2109.0625
3263.76855	2096.6625
3266.03799	2101.9625
3268.30606	2090.3625
3270.57277	2097.4625
3272.83812	2074.7625
3275.10211	2076.8625
3277.36474	2098.7625
3279.62601	2071.5625
3281.88593	2064.3625
3284.14448	2045.1625
3286.40168	2069.0625
3288.65753	2050.3625
3290.91202	2053.2625
3293.16516	2036.3625
3295.41695	2050.2625
3297.66738	2049.6625
3299.91647	2026.8625
3302.16421	2025.8625
3304.4106	1988.2625
3306.65564	2013.7625
3308.89933	1969.9625
3311.14169	1964.5625
3313.38269	1948.6625
3315.62236	1934.3625
3317.86068	1928.5625
3320.09766	1917.3625
3322.3333	1888.7625
3324.5676	1883.7625
3326.80056	1856.1625
3329.03219	1841.2625
3331.26248	-0.5375
3333.49143	0.1625
3335.71905	0.3625
