Data from AgNPs_UA_5uM_CRN_500uM_SU_RamanShift__143__11-53-13-168.txt Node

Date: Thu Aug 04 11:53:13 BST 2022
User: TCL
Spectrometer: QEP01345
Trigger mode: 4
Integration Time (sec): 1.000000E0
Scans to average: 10
Electric dark correction enabled: true
Nonlinearity correction enabled: false
Boxcar width: 0
XAxis mode: Raman Shifts
Number of Pixels in Spectrum: 1044
>>>>>Begin Spectral Data<<<<<
46.04893	-0.4
50.45542	-0.1
54.85868	0.3
59.25871	-0.1
63.6555	-58.6
68.04907	-40
72.43941	-70
76.82654	-57.4
81.21044	-58.2
85.59113	-48.9
89.96862	-74.5
94.34289	-54.7
98.71396	-77.5
103.08183	-58.6
107.4465	-49
111.80798	-55.2
116.16626	-42.7
120.52136	-72.6
124.87327	-50
129.222	-62.4
133.56755	-49.3
137.90993	-62
142.24913	-50.7
146.58517	-43.6
150.91804	-41.8
155.24774	-27.2
159.57429	-8
163.89768	-3.3
168.21792	38.8
172.53501	56.8
176.84895	139.9
181.15975	275.7
185.46741	430.7
189.77193	612.8
194.07331	906.9
198.37157	1190.7
202.6667	1482.8
206.9587	1817.3
211.24758	2139.8
215.53334	2449.8
219.81599	2811.8
224.09553	3230.5
228.37195	3662.1
232.64527	4136
236.91549	4608.4
241.18261	4987.6
245.44663	5291.1
249.70755	5479.7
253.96539	5617
258.22014	5739
262.4718	5798
266.72039	5836.4
270.96589	5799.1
275.20832	5684.8
279.44768	5568.3
283.68397	5445.7
287.91719	5387.3
292.14735	5409.7
296.37445	5558.1
300.59849	5839.4
304.81948	6145.5
309.03742	6498.5
313.25231	6702.7
317.46415	6643.4
321.67296	6268.8
325.87872	5913
330.08145	5734.8
334.28114	5697.4
338.47781	5773.6
342.67145	5893.4
346.86207	6142.2
351.04966	6498.1
355.23424	6866.2
359.4158	7149.3
363.59435	7158.2
367.76989	7128.4
371.94243	6999
376.11196	6867.6
380.27849	6826.6
384.44203	6743.9
388.60257	6743.4
392.76012	6739.2
396.91468	6843.8
401.06626	7006.8
405.21485	7040.7
409.36047	6903.7
413.50311	6614.5
417.64277	6320.5
421.77947	6127.4
425.9132	6071.8
430.04396	6071.9
434.17176	6117.4
438.2966	6206.3
442.41849	6307.4
446.53742	6420.4
450.6534	6520
454.76644	6576.7
458.87653	6613.8
462.98368	6568.8
467.08789	6521.3
471.18916	6461.6
475.2875	6374.7
479.38291	6257
483.4754	6164.6
487.56496	6111.1
491.6516	6078
495.73531	6073.4
499.81612	6091.5
503.89401	6184.5
507.96899	6227
512.04106	6320.4
516.11023	6421.7
520.1765	6500.1
524.23987	6513.2
528.30034	6536.7
532.35792	6464.9
536.41261	6406.1
540.46441	6337.2
544.51333	6294
548.55936	6332.2
552.60252	6442.4
556.64279	6552.5
560.6802	6671.5
564.71473	6806.8
568.7464	6981.8
572.7752	6943.8
576.80114	6633.7
580.82422	6409.3
584.84444	6291.6
588.86181	6285.1
592.87633	6335.3
596.888	6449.2
600.89682	6812
604.9028	7717.2
608.90594	9653.1
612.90624	11863.6
616.90371	11038.9
620.89834	8180.5
624.89015	6949.1
628.87913	6784.1
632.86528	6915.6
636.84862	7079.3
640.82913	6947.4
644.80683	6639.1
648.78172	6481.2
652.75379	6501.6
656.72306	6724.5
660.68952	6957.4
664.65319	6874.4
668.61405	6649.6
672.57211	6595.2
676.52738	6603.4
680.47986	6512.5
684.42955	6425
688.37646	6389.7
692.32058	6394.7
696.26192	6446.9
700.20048	6561.6
704.13626	6592.7
708.06928	6539.9
711.99952	6529
715.927	6503.8
719.85171	6517.5
723.77365	6572.4
727.69284	6562.8
731.60928	6542.3
735.52295	6515.7
739.43388	6573.2
743.34206	6575.5
747.24749	6593.5
751.15017	6619
755.05012	6671
758.94733	7021.8
762.8418	7776.3
766.73354	9022.5
770.62254	9929.8
774.50882	9999.6
778.39237	9559
782.27321	8709.4
786.15132	7742.1
790.02671	7102.2
793.89938	6769.1
797.76935	6660.3
801.6366	6564.6
805.50115	6557.3
809.36299	6526.5
813.22213	6520.5
817.07857	6517.5
820.93231	6509
824.78336	6552.1
828.63172	6574.9
832.47738	6555.7
836.32036	6585.7
840.16066	6545.4
843.99827	6547.3
847.8332	6539.1
851.66546	6561.4
855.49504	6560
859.32195	6597.6
863.1462	6581.2
866.96777	6589.4
870.78668	6581.8
874.60293	6614.9
878.41652	6638.4
882.22745	6703.8
886.03573	6736.7
889.84136	6727.1
893.64433	6730.8
897.44466	6696
901.24235	6693.3
905.0374	6672.9
908.8298	6640.7
912.61957	6621.9
916.40671	6574.6
920.19121	6620.5
923.97308	6692.7
927.75233	6750.7
931.52895	6816.7
935.30295	6799.4
939.07433	6668.1
942.84309	6553.7
946.60924	6519.1
950.37278	6489.1
954.13371	6494.2
957.89203	6469.8
961.64774	6496.9
965.40086	6479.9
969.15137	6453.6
972.89929	6486.2
976.64461	6472.6
980.38733	6508.2
984.12747	6492.9
987.86502	6538.2
991.59999	6554.3
995.33237	6613.9
999.06217	6709.4
1002.78939	6779.3
1006.51404	6926.3
1010.23611	7024.4
1013.95561	7100.2
1017.67255	7114.3
1021.38692	7075.4
1025.09872	6992.3
1028.80796	6927.7
1032.51465	6927.7
1036.21877	6910.2
1039.92035	6965.4
1043.61937	6984
1047.31584	7034.5
1051.00976	7065.1
1054.70114	7079.8
1058.38998	7050
1062.07627	7071.6
1065.76003	7121.1
1069.44126	7193.3
1073.11995	7264
1076.79611	7390.9
1080.46974	7560.5
1084.14085	7703
1087.80943	7821.2
1091.47549	7864.2
1095.13903	7800.7
1098.80005	7690.5
1102.45857	7599.8
1106.11456	7533.9
1109.76805	7472.4
1113.41903	7565.7
1117.06751	7721.5
1120.71348	7952.7
1124.35696	8295.3
1127.99793	8568
1131.63641	8413.3
1135.2724	8035.8
1138.90589	7789.1
1142.5369	7602.5
1146.16542	7512.9
1149.79145	7428.3
1153.415	7362.9
1157.03607	7362.7
1160.65467	7404.4
1164.27079	7587.9
1167.88443	7808.6
1171.49561	8197.4
1175.10432	8754.4
1178.71056	9585.3
1182.31434	10302.6
1185.91565	10539.5
1189.51451	10391.6
1193.11091	10181.5
1196.70485	9998.2
1200.29634	9806.1
1203.88538	9570.4
1207.47197	9179.7
1211.05612	8770.6
1214.63782	8408
1218.21708	8194.8
1221.79391	8035
1225.36829	7949.2
1228.94024	7914.2
1232.50976	7912.4
1236.07685	7947.2
1239.6415	7968
1243.20374	8019.6
1246.76355	8061.2
1250.32093	8137.8
1253.8759	8183.4
1257.42845	8412.3
1260.97859	8605.5
1264.52631	8812.7
1268.07163	8953.7
1271.61453	9048.1
1275.15503	9094.6
1278.69312	9097.9
1282.22882	9143.4
1285.76211	9341.6
1289.29301	9565.7
1292.82151	9813.8
1296.34761	10022.5
1299.87133	10401.4
1303.39266	11046.3
1306.9116	12097.2
1310.42815	13210.1
1313.94233	13605
1317.45412	12872.4
1320.96354	11840.6
1324.47058	10906.7
1327.97525	10240.2
1331.47754	9885.7
1334.97747	9799.7
1338.47502	9905.4
1341.97022	10275.3
1345.46305	10944.7
1348.95352	11912.3
1352.44163	13054.3
1355.92738	14236.8
1359.41078	15689.9
1362.89183	17025
1366.37053	16359.6
1369.84688	13720.2
1373.32088	11384.2
1376.79254	10129.4
1380.26186	9561.3
1383.72883	9200.7
1387.19347	8848.5
1390.65578	8478.1
1394.11575	8295.9
1397.57339	8134.7
1401.0287	8041.3
1404.48168	8017.9
1407.93234	8029.6
1411.38068	8068.1
1414.82669	8134.4
1418.27039	8227
1421.71177	8200.6
1425.15083	8116.6
1428.58758	8051.8
1432.02203	8072.7
1435.45416	8155.9
1438.88399	8158.1
1442.31151	8168.1
1445.73673	8226.9
1449.15965	8289.7
1452.58027	8322.2
1455.9986	8301.2
1459.41463	8294
1462.82837	8400.5
1466.23982	8559.3
1469.64898	8777
1473.05586	8902.9
1476.46045	9000.9
1479.86276	9040.9
1483.26279	9096
1486.66054	9281.5
1490.05602	9514.9
1493.44922	10009
1496.84016	10788.6
1500.22882	12039.1
1503.61521	13565
1506.99934	15152.8
1510.38121	16178.9
1513.76081	16118.4
1517.13816	14691.3
1520.51324	12800.8
1523.88607	11254.9
1527.25665	10363.5
1530.62498	9886.2
1533.99105	9671.8
1537.35488	9595.3
1540.71647	9516.9
1544.07581	9431.8
1547.4329	9335.7
1550.78776	9220.6
1554.14038	9121.2
1557.49077	9078.1
1560.83892	9149
1564.18484	9340.7
1567.52853	9644.6
1570.86999	9904.7
1574.20922	10042.5
1577.54624	9920.2
1580.88103	9483.5
1584.2136	8886.6
1587.54395	8595.2
1590.87208	8514.5
1594.19801	8702.7
1597.52172	9060.9
1600.84321	9196.1
1604.16251	9104.5
1607.47959	8921.1
1610.79447	8727.9
1614.10715	8435.1
1617.41763	8159.3
1620.7259	7847.8
1624.03199	7693.8
1627.33587	7656.3
1630.63757	7701.6
1633.93707	7915.4
1637.23439	8308.1
1640.52951	8966.6
1643.82246	9879
1647.11321	10917.2
1650.40179	11540.2
1653.68819	11209.5
1656.97241	10033
1660.25446	8794.7
1663.53433	7865.5
1666.81203	7289.8
1670.08756	6980.6
1673.36092	6837.4
1676.63211	6696.2
1679.90115	6611.6
1683.16801	6528.2
1686.43272	6444.9
1689.69527	6407.8
1692.95567	6327.6
1696.2139	6297.3
1699.46999	6265.3
1702.72392	6252.3
1705.97571	6248.5
1709.22535	6239.1
1712.47284	6272.3
1715.71819	6274
1718.96139	6267.4
1722.20246	6264.6
1725.44139	6218.3
1728.67818	6207.5
1731.91284	6166.8
1735.14537	6136.1
1738.37576	6121.9
1741.60403	6090.9
1744.83017	6055.5
1748.05418	6060.9
1751.27607	6061.3
1754.49584	6025.6
1757.71349	5994.3
1760.92903	5999.2
1764.14244	5949.8
1767.35375	5959.2
1770.56294	5935.3
1773.77002	5926.1
1776.97499	5936.2
1780.17785	5917.9
1783.37861	5902.7
1786.57727	5917
1789.77382	5872.7
1792.96828	5894.9
1796.16064	5909.7
1799.3509	5873
1802.53907	5889.1
1805.72514	5845.5
1808.90913	5824.8
1812.09102	5826.9
1815.27083	5810
1818.44856	5802.6
1821.6242	5784
1824.79776	5770.9
1827.96924	5751.8
1831.13864	5737.8
1834.30597	5745.1
1837.47122	5737
1840.6344	5700
1843.7955	5701.4
1846.95454	5699.3
1850.11151	5717.5
1853.26642	5686.1
1856.41926	5683.4
1859.57004	5676.9
1862.71876	5684
1865.86542	5668.5
1869.01003	5675.2
1872.15258	5646.9
1875.29308	5655.1
1878.43152	5667.3
1881.56792	5631.1
1884.70227	5592.8
1887.83457	5631.1
1890.96482	5600.3
1894.09304	5595.1
1897.21921	5594.4
1900.34335	5581.9
1903.46544	5563.7
1906.58551	5577.1
1909.70353	5566.8
1912.81953	5556.3
1915.93349	5547.5
1919.04543	5551.9
1922.15534	5521.2
1925.26322	5525.1
1928.36908	5494.7
1931.47292	5512.2
1934.57473	5510.4
1937.67453	5490.3
1940.77232	5456.8
1943.86808	5437.5
1946.96184	5440
1950.05358	5398.6
1953.14331	5408.7
1956.23103	5395.4
1959.31675	5367.7
1962.40046	5318.1
1965.48217	5316
1968.56188	5326.7
1971.63959	5309.8
1974.7153	5298.4
1977.78901	5282.8
1980.86073	5268.7
1983.93046	5228.1
1986.99819	5163.9
1990.06394	5162.9
1993.1277	5190
1996.18947	5161.4
1999.24925	5134.8
2002.30706	5144.8
2005.36288	5120.9
2008.41672	5112.6
2011.46859	5062.8
2014.51848	5060.9
2017.56639	5037.4
2020.61233	5031.7
2023.6563	5038.9
2026.6983	4990.3
2029.73833	5000.7
2032.7764	4986.3
2035.8125	4947.4
2038.84664	4940.7
2041.87881	4924.5
2044.90903	4923.8
2047.93729	4924.5
2050.96359	4891.6
2053.98794	4884
2057.01034	4907.9
2060.03078	4894.7
2063.04927	4891.3
2066.06582	4887.7
2069.08042	4867.8
2072.09307	4881
2075.10378	4869.5
2078.11255	4870.6
2081.11938	4859.1
2084.12426	4853
2087.12722	4841.6
2090.12824	4835.2
2093.12732	4843.3
2096.12447	4861.5
2099.11969	4841.6
2102.11299	4840.4
2105.10435	4865.4
2108.09379	4841.7
2111.08131	4837.1
2114.0669	4848.6
2117.05057	4841.5
2120.03233	4825
2123.01216	4843.1
2125.99008	4848.2
2128.96609	4851.8
2131.94018	4879.7
2134.91236	4864.7
2137.88263	4835.6
2140.851	4874.4
2143.81746	4876.8
2146.78201	4862.3
2149.74466	4850.8
2152.7054	4867.5
2155.66425	4867.1
2158.6212	4831.8
2161.57625	4822.7
2164.52941	4814.2
2167.48067	4817.7
2170.43004	4811.8
2173.37752	4843.9
2176.32311	4823.8
2179.26681	4816.2
2182.20863	4831.5
2185.14856	4814.9
2188.08661	4813.2
2191.02278	4837.8
2193.95707	4781.4
2196.88948	4782.3
2199.82001	4789
2202.74867	4770.2
2205.67545	4783.6
2208.60037	4794.9
2211.52341	4761.9
2214.44458	4755.3
2217.36388	4738.8
2220.28132	4724.9
2223.1969	4719
2226.11061	4708.1
2229.02246	4703.2
2231.93245	4700.5
2234.84058	4671.2
2237.74686	4674.6
2240.65128	4658.5
2243.55385	4661.1
2246.45456	4628.9
2249.35343	4649.3
2252.25044	4639.7
2255.14561	4639.3
2258.03893	4639.7
2260.93041	4613.9
2263.82004	4599.5
2266.70783	4604
2269.59378	4591.1
2272.4779	4571.4
2275.36017	4579.2
2278.24061	4553.7
2281.11922	4534.2
2283.996	4517.3
2286.87094	4519.3
2289.74405	4516
2292.61534	4509.8
2295.4848	4505.7
2298.35243	4490.2
2301.21824	4473.7
2304.08223	4485.6
2306.94439	4496.7
2309.80474	4499.6
2312.66327	4481.6
2315.51999	4462.3
2318.37489	4450
2321.22797	4433.1
2324.07925	4434.2
2326.92871	4429.9
2329.77637	4409.4
2332.62222	4401.2
2335.46626	4368.9
2338.3085	4386.3
2341.14893	4397.6
2343.98756	4386.2
2346.8244	4365.9
2349.65943	4346
2352.49267	4365.4
2355.32411	4370.5
2358.15376	4354.2
2360.98161	4370.5
2363.80768	4345.9
2366.63195	4340.1
2369.45444	4364.1
2372.27514	4343.9
2375.09405	4363.1
2377.91118	4314.8
2380.72652	4317.1
2383.54009	4322.5
2386.35187	4313.8
2389.16188	4277.5
2391.97011	4283.7
2394.77657	4268.9
2397.58125	4276.1
2400.38416	4263.3
2403.18529	4246.9
2405.98466	4240.8
2408.78226	4228.3
2411.57809	4218.7
2414.37216	4207.9
2417.16446	4211.4
2419.955	4176.5
2422.74378	4195.8
2425.5308	4193.7
2428.31606	4180.3
2431.09956	4174.5
2433.88131	4163.2
2436.6613	4169.4
2439.43954	4142.6
2442.21603	4141.9
2444.99077	4132.8
2447.76377	4145.4
2450.53501	4148.5
2453.30451	4134.2
2456.07226	4146.3
2458.83827	4115.2
2461.60254	4097.7
2464.36507	4116.1
2467.12586	4097.9
2469.88492	4089.2
2472.64224	4095.2
2475.39782	4089.1
2478.15167	4104.7
2480.90379	4080
2483.65417	4099.2
2486.40283	4090.7
2489.14976	4107.7
2491.89497	4080.9
2494.63845	4084.9
2497.3802	4070.1
2500.12024	4071.9
2502.85855	4065.1
2505.59514	4072.2
2508.33002	4061.3
2511.06318	4039
2513.79462	4026
2516.52435	4004.5
2519.25237	3963.4
2521.97867	3972
2524.70327	3978.3
2527.42616	3978.2
2530.14734	3996.8
2532.86681	3964.8
2535.58458	3965.1
2538.30065	3950.6
2541.01501	3969.6
2543.72768	3935.1
2546.43864	3953.6
2549.14791	3956.9
2551.85548	3913.2
2554.56136	3914
2557.26554	3919.7
2559.96803	3909.9
2562.66883	3907
2565.36794	3885.6
2568.06536	3845.6
2570.7611	3873.4
2573.45514	3852.2
2576.14751	3847
2578.83819	3839.2
2581.52719	3837.2
2584.21451	3820.8
2586.90015	3805.5
2589.58411	3786.3
2592.2664	3807.4
2594.94701	3792.3
2597.62594	3793
2600.30321	3723.2
2602.9788	3744.5
2605.65273	3747.3
2608.32498	3744
2610.99557	3771.5
2613.66449	3729.3
2616.33175	3752.1
2618.99734	3744.9
2621.66128	3736.9
2624.32355	3727.2
2626.98416	3699
2629.64311	3685.2
2632.30041	3704.3
2634.95605	3671.6
2637.61004	3661.2
2640.26238	3655.6
2642.91306	3644.2
2645.56209	3672.3
2648.20948	3642.4
2650.85521	3661.9
2653.4993	3677.1
2656.14175	3655.5
2658.78255	3634.9
2661.42171	3614.6
2664.05923	3666.7
2666.6951	3649.9
2669.32934	3664.6
2671.96194	3656.8
2674.59291	3657.6
2677.22224	3664.1
2679.84993	3638.7
2682.476	3643.8
2685.10043	3634.3
2687.72324	3612.2
2690.34441	3620.1
2692.96396	3611.9
2695.58188	3631.7
2698.19818	3626.3
2700.81285	3621.2
2703.4259	3612.5
2706.03733	3576.5
2708.64714	3577.7
2711.25533	3614.3
2713.86191	3610
2716.46687	3613.8
2719.07021	3603.1
2721.67194	3608.3
2724.27206	3610.6
2726.87057	3602.8
2729.46747	3590.1
2732.06276	3594.4
2734.65644	3578.2
2737.24852	3569.3
2739.83899	3555.5
2742.42786	3572.5
2745.01513	3561.8
2747.60079	3563.8
2750.18486	3547.9
2752.76733	3548.1
2755.3482	3547.6
2757.92747	3541.7
2760.50515	3511.3
2763.08123	3506.7
2765.65573	3502.9
2768.22863	3504.9
2770.79994	3488.3
2773.36967	3481.9
2775.9378	3463.1
2778.50435	3477
2781.06932	3456.4
2783.6327	3444.2
2786.1945	3481.6
2788.75471	3466.1
2791.31335	3448.2
2793.87041	3462.5
2796.42589	3417.6
2798.97979	3417.4
2801.53212	3423.3
2804.08288	3423.7
2806.63206	3410
2809.17967	3379
2811.72571	3402.3
2814.27018	3396.6
2816.81308	3382.8
2819.35442	3337.7
2821.89419	3368.1
2824.43239	3346.5
2826.96904	3375
2829.50412	3339.8
2832.03763	3340.8
2834.56959	3352.2
2837.1	3344.5
2839.62884	3334
2842.15613	3324.6
2844.68186	3343.7
2847.20604	3302.4
2849.72867	3298.2
2852.24974	3296.1
2854.76927	3267.6
2857.28724	3233.5
2859.80367	3296.4
2862.31855	3285.8
2864.83189	3275.3
2867.34368	3280.9
2869.85393	3295.7
2872.36264	3249.6
2874.8698	3262.8
2877.37543	3274.9
2879.87952	3255.5
2882.38207	3239.3
2884.88308	3252.1
2887.38256	3247.6
2889.88051	3248.2
2892.37692	3233.8
2894.8718	3227.9
2897.36515	3241.6
2899.85698	3230.6
2902.34727	3211.7
2904.83604	3230.2
2907.32328	3226.6
2909.809	3240.1
2912.29319	3229
2914.77587	3232
2917.25702	3251.7
2919.73665	3258.8
2922.21476	3241.9
2924.69136	3256.1
2927.16644	3239.9
2929.64	3232.5
2932.11205	3232.7
2934.58258	3224.6
2937.05161	3210.6
2939.51912	3201.1
2941.98513	3224.5
2944.44962	3201.2
2946.91261	3180.6
2949.37409	3192.8
2951.83407	3185
2954.29254	3186.5
2956.74951	3173.2
2959.20498	3153.2
2961.65895	3159.1
2964.11142	3149.7
2966.56239	3143.6
2969.01186	3155.2
2971.45984	3146.3
2973.90632	3124.8
2976.35131	3135.9
2978.7948	3130.2
2981.23681	3115.8
2983.67732	3110.1
2986.11635	3108
2988.55388	3085.8
2990.98993	3079.2
2993.4245	3065.1
2995.85758	3071.8
2998.28917	3073.6
3000.71928	3046.4
3003.14791	3042.3
3005.57506	3029.8
3008.00073	3027.8
3010.42493	2971.7
3012.84764	3012.9
3015.26888	3012.2
3017.68865	3009.9
3020.10694	2967.9
3022.52376	2968.1
3024.9391	2966.7
3027.35298	2957.9
3029.76539	2937.8
3032.17632	2948.5
3034.5858	2925.1
3036.9938	2930.2
3039.40034	2928
3041.80542	2925.2
3044.20903	2903.6
3046.61118	2903
3049.01187	2911.4
3051.4111	2888.9
3053.80888	2870.3
3056.20519	2880.8
3058.60005	2847
3060.99345	2878.3
3063.3854	2856.4
3065.7759	2838.4
3068.16494	2829.1
3070.55254	2806
3072.93868	2831.1
3075.32338	2822.3
3077.70662	2807.2
3080.08842	2792.3
3082.46878	2776.4
3084.84769	2805.9
3087.22515	2777.6
3089.60118	2791.4
3091.97576	2777.4
3094.3489	2783.7
3096.72061	2782.8
3099.09087	2754
3101.4597	2771.2
3103.82709	2761.6
3106.19305	2752.1
3108.55757	2758.8
3110.92066	2741.6
3113.28232	2752.7
3115.64255	2745.5
3118.00134	2748.8
3120.35871	2719.4
3122.71466	2693.2
3125.06917	2705.5
3127.42226	2693.5
3129.77393	2678.7
3132.12417	2677.4
3134.47299	2691.6
3136.82039	2657.3
3139.16636	2647.5
3141.51092	2688.7
3143.85406	2677.3
3146.19579	2656.1
3148.53609	2657.1
3150.87499	2667.3
3153.21246	2647.2
3155.54853	2670.8
3157.88318	2657
3160.21642	2669.4
3162.54826	2662.1
3164.87868	2654.6
3167.2077	2618.9
3169.5353	2643.8
3171.86151	2647.4
3174.18631	2641.3
3176.5097	2636.1
3178.83169	2621.7
3181.15228	2623.2
3183.47147	2593.9
3185.78926	2583.8
3188.10565	2593.1
3190.42065	2575.4
3192.73424	2594.3
3195.04645	2573.9
3197.35725	2544.8
3199.66667	2573.5
3201.97469	2556.1
3204.28132	2535.7
3206.58656	2562.7
3208.8904	2576.1
3211.19287	2560.1
3213.49394	2543.2
3215.79363	2552.2
3218.09193	2556.7
3220.38884	2548.5
3222.68438	2546.7
3224.97853	2523.3
3227.2713	2547.6
3229.56269	2521.1
3231.8527	2526.2
3234.14133	2517.3
3236.42858	2499.9
3238.71446	2492.1
3240.99896	2507.3
3243.28209	2476.6
3245.56384	2486.4
3247.84423	2476.5
3250.12324	2478
3252.40088	2480.2
3254.67715	2462.7
3256.95205	2457.2
3259.22558	2463.9
3261.49775	2469.2
3263.76855	2465
3266.03799	2469.2
3268.30606	2467.8
3270.57277	2460.7
3272.83812	2439.3
3275.10211	2434.9
3277.36474	2444.9
3279.62601	2443.6
3281.88593	2402
3284.14448	2390.9
3286.40168	2412.8
3288.65753	2397.5
3290.91202	2406.9
3293.16516	2377.2
3295.41695	2395.9
3297.66738	2402.8
3299.91647	2382.7
3302.16421	2378.3
3304.4106	2325.4
3306.65564	2347.6
3308.89933	2299
3311.14169	2294.9
3313.38269	2288.1
3315.62236	2261
3317.86068	2243.1
3320.09766	2244.6
3322.3333	2200.9
3324.5676	2183.1
3326.80056	2153.3
3329.03219	2156.3
3331.26248	-0.3
3333.49143	-0.7
3335.71905	0.8
