Data from AgNPs_UA_20uM_CRN_500uM_SU_RamanShift__16__13-39-10-294.txt Node

Date: Thu Aug 04 13:39:10 BST 2022
User: TCL
Spectrometer: QEP01345
Trigger mode: 4
Integration Time (sec): 1.000000E0
Scans to average: 10
Electric dark correction enabled: true
Nonlinearity correction enabled: false
Boxcar width: 0
XAxis mode: Raman Shifts
Number of Pixels in Spectrum: 1044
>>>>>Begin Spectral Data<<<<<
46.04893	-1.7
50.45542	0.3
54.85868	2.1
59.25871	0.4
63.6555	18.4
68.04907	15.1
72.43941	19.9
76.82654	17.3
81.21044	17.8
85.59113	19.8
89.96862	21.6
94.34289	22.6
98.71396	22.2
103.08183	22.6
107.4465	21
111.80798	24.9
116.16626	25.7
120.52136	27.4
124.87327	25.5
129.222	31.3
133.56755	31.8
137.90993	33.9
142.24913	38.2
146.58517	42.8
150.91804	51.2
155.24774	61
159.57429	78.1
163.89768	103.5
168.21792	139.7
172.53501	191.6
176.84895	267.8
181.15975	386.9
185.46741	539.7
189.77193	746.2
194.07331	1009.5
198.37157	1308.2
202.6667	1616.1
206.9587	1948.9
211.24758	2256.4
215.53334	2591.3
219.81599	2938.7
224.09553	3360.4
228.37195	3800.8
232.64527	4279.9
236.91549	4746.5
241.18261	5145.9
245.44663	5448.2
249.70755	5674.4
253.96539	5849.9
258.22014	6004.3
262.4718	6133.3
266.72039	6201.1
270.96589	6242
275.20832	6173.6
279.44768	6077.2
283.68397	5957.3
287.91719	5887.8
292.14735	5930.3
296.37445	6096.8
300.59849	6340.5
304.81948	6711.2
309.03742	6997.3
313.25231	7209.7
317.46415	7130.8
321.67296	6774.5
325.87872	6405.9
330.08145	6209.4
334.28114	6153.2
338.47781	6236.4
342.67145	6405.3
346.86207	6609.6
351.04966	6945.9
355.23424	7234.9
359.4158	7466.6
363.59435	7525.2
367.76989	7548.3
371.94243	7448.3
376.11196	7379.6
380.27849	7309.9
384.44203	7262.3
388.60257	7266
392.76012	7306.8
396.91468	7440.8
401.06626	7562.9
405.21485	7587.4
409.36047	7411.9
413.50311	7113.5
417.64277	6787.2
421.77947	6615
425.9132	6550.2
430.04396	6563.3
434.17176	6598.9
438.2966	6698.6
442.41849	6799.1
446.53742	6969.6
450.6534	7111.7
454.76644	7170.9
458.87653	7152.5
462.98368	7116
467.08789	7060.8
471.18916	6960.7
475.2875	6812.6
479.38291	6668.4
483.4754	6570.5
487.56496	6513.2
491.6516	6482
495.73531	6467.8
499.81612	6500
503.89401	6570.7
507.96899	6642.5
512.04106	6723.9
516.11023	6793.7
520.1765	6875.5
524.23987	6891.3
528.30034	6879
532.35792	6858
536.41261	6778
540.46441	6663.3
544.51333	6626.8
548.55936	6684.2
552.60252	6786.7
556.64279	6899.9
560.6802	6993.3
564.71473	7105.4
568.7464	7263
572.7752	7235.3
576.80114	6999.5
580.82422	6780.4
584.84444	6718.4
588.86181	6684.3
592.87633	6726.4
596.888	6845.3
600.89682	7213.6
604.9028	8243.8
608.90594	10445.6
612.90624	12703.5
616.90371	11661.8
620.89834	8529
624.89015	7184.9
628.87913	7022.9
632.86528	7216.2
636.84862	7345.2
640.82913	7195.6
644.80683	6899
648.78172	6716.4
652.75379	6699.9
656.72306	6960.8
660.68952	7191
664.65319	7078.6
668.61405	6842.4
672.57211	6800.2
676.52738	6800.2
680.47986	6735.7
684.42955	6604.3
688.37646	6555.3
692.32058	6576.5
696.26192	6688.8
700.20048	6829.2
704.13626	6863.6
708.06928	6815.7
711.99952	6744.9
715.927	6751.4
719.85171	6769.6
723.77365	6823.1
727.69284	6765.9
731.60928	6686.3
735.52295	6694.3
739.43388	6703.8
743.34206	6747.1
747.24749	6739.5
751.15017	6764
755.05012	6858.9
758.94733	7204.7
762.8418	8059.5
766.73354	9389.6
770.62254	10412.2
774.50882	10556.5
778.39237	9924.7
782.27321	8914.3
786.15132	7898
790.02671	7229.4
793.89938	6915
797.76935	6763.2
801.6366	6696.5
805.50115	6635.2
809.36299	6632.3
813.22213	6599.6
817.07857	6600.3
820.93231	6611.2
824.78336	6630.7
828.63172	6659.8
832.47738	6655
836.32036	6633.9
840.16066	6601
843.99827	6585.3
847.8332	6597.2
851.66546	6620.2
855.49504	6628.9
859.32195	6644.9
863.1462	6638.7
866.96777	6631.3
870.78668	6637.4
874.60293	6665.6
878.41652	6688.4
882.22745	6750.6
886.03573	6784.2
889.84136	6794.4
893.64433	6758
897.44466	6733.3
901.24235	6727.9
905.0374	6715.6
908.8298	6660
912.61957	6633.8
916.40671	6630.8
920.19121	6685.1
923.97308	6745.8
927.75233	6828.8
931.52895	6892.4
935.30295	6817.9
939.07433	6652.5
942.84309	6539.7
946.60924	6499.4
950.37278	6470.3
954.13371	6478.5
957.89203	6467.6
961.64774	6477.5
965.40086	6450
969.15137	6453.5
972.89929	6449.9
976.64461	6450.6
980.38733	6463
984.12747	6481.6
987.86502	6526.2
991.59999	6565.4
995.33237	6628.5
999.06217	6709.1
1002.78939	6840.1
1006.51404	7025.6
1010.23611	7184.2
1013.95561	7243.4
1017.67255	7237.8
1021.38692	7180.4
1025.09872	7033.4
1028.80796	6939.5
1032.51465	6893.3
1036.21877	6903.9
1039.92035	6962.3
1043.61937	7012.8
1047.31584	7052.3
1051.00976	7043.7
1054.70114	7043.1
1058.38998	7036.5
1062.07627	7077.3
1065.76003	7126.3
1069.44126	7247.2
1073.11995	7400.1
1076.79611	7617.7
1080.46974	7773
1084.14085	7910.3
1087.80943	8044.3
1091.47549	8120.8
1095.13903	8108
1098.80005	7995.2
1102.45857	7828.2
1106.11456	7666.5
1109.76805	7575
1113.41903	7628.6
1117.06751	7759.9
1120.71348	7996.4
1124.35696	8340.7
1127.99793	8577.6
1131.63641	8432
1135.2724	8068
1138.90589	7810
1142.5369	7674.4
1146.16542	7664.3
1149.79145	7611.9
1153.415	7485.8
1157.03607	7413.3
1160.65467	7420.4
1164.27079	7603.2
1167.88443	7846.4
1171.49561	8276.9
1175.10432	8986.4
1178.71056	9912
1182.31434	10722.3
1185.91565	10957.8
1189.51451	10769.9
1193.11091	10453.5
1196.70485	10202.7
1200.29634	9939.7
1203.88538	9690.3
1207.47197	9279.5
1211.05612	8927.6
1214.63782	8654.7
1218.21708	8394.6
1221.79391	8193.3
1225.36829	8053.8
1228.94024	7958
1232.50976	7930
1236.07685	7950.6
1239.6415	7978.8
1243.20374	7994.3
1246.76355	8074.4
1250.32093	8198.9
1253.8759	8422.9
1257.42845	8707.3
1260.97859	8993.5
1264.52631	9266.6
1268.07163	9412.4
1271.61453	9501.9
1275.15503	9540.8
1278.69312	9551
1282.22882	9542.6
1285.76211	9679.6
1289.29301	9889.3
1292.82151	10125.6
1296.34761	10403.7
1299.87133	10825.1
1303.39266	11559.4
1306.9116	12631.5
1310.42815	13700
1313.94233	14021.7
1317.45412	13346.5
1320.96354	12330.3
1324.47058	11404.1
1327.97525	10626.6
1331.47754	10188
1334.97747	10093.3
1338.47502	10283.9
1341.97022	10724
1345.46305	11487.2
1348.95352	12607.8
1352.44163	13790.4
1355.92738	15104.8
1359.41078	16715.7
1362.89183	18100.4
1366.37053	17270.2
1369.84688	14505.9
1373.32088	11914.1
1376.79254	10479.7
1380.26186	9785.6
1383.72883	9432.2
1387.19347	9090.2
1390.65578	8783.6
1394.11575	8491.2
1397.57339	8292.7
1401.0287	8165.6
1404.48168	8071.9
1407.93234	8070.3
1411.38068	8163.4
1414.82669	8236.2
1418.27039	8253.5
1421.71177	8225.2
1425.15083	8129.1
1428.58758	8087.1
1432.02203	8133.8
1435.45416	8259.4
1438.88399	8334.6
1442.31151	8377.2
1445.73673	8460.4
1449.15965	8521.4
1452.58027	8501.8
1455.9986	8429.1
1459.41463	8420
1462.82837	8519.5
1466.23982	8677.3
1469.64898	8908
1473.05586	9068.1
1476.46045	9129
1479.86276	9178.8
1483.26279	9293.8
1486.66054	9529.9
1490.05602	9862.7
1493.44922	10414.7
1496.84016	11280.6
1500.22882	12617.5
1503.61521	14333.2
1506.99934	16035.6
1510.38121	16949.6
1513.76081	16642.7
1517.13816	15097.4
1520.51324	13157.4
1523.88607	11635.3
1527.25665	10691.1
1530.62498	10257.6
1533.99105	9990.3
1537.35488	9911
1540.71647	9836
1544.07581	9756.2
1547.4329	9683.3
1550.78776	9519.7
1554.14038	9407.9
1557.49077	9315.8
1560.83892	9384.9
1564.18484	9618.2
1567.52853	10013.7
1570.86999	10314
1574.20922	10424
1577.54624	10224
1580.88103	9700.4
1584.2136	9041.4
1587.54395	8652.2
1590.87208	8629.9
1594.19801	8907.3
1597.52172	9322.4
1600.84321	9539.7
1604.16251	9513.6
1607.47959	9346.8
1610.79447	9020.8
1614.10715	8540.7
1617.41763	8079.1
1620.7259	7746.5
1624.03199	7514.8
1627.33587	7497.6
1630.63757	7559.2
1633.93707	7812.2
1637.23439	8257.9
1640.52951	9037.8
1643.82246	10148
1647.11321	11369.8
1650.40179	12094.1
1653.68819	11642
1656.97241	10283.9
1660.25446	8823.9
1663.53433	7768.2
1666.81203	7147.7
1670.08756	6813.8
1673.36092	6621.9
1676.63211	6497
1679.90115	6363.4
1683.16801	6309.7
1686.43272	6229.3
1689.69527	6192.4
1692.95567	6155.1
1696.2139	6150.2
1699.46999	6098.7
1702.72392	6095.8
1705.97571	6114.9
1709.22535	6104.9
1712.47284	6099.5
1715.71819	6084.6
1718.96139	6085.1
1722.20246	6058
1725.44139	6045.6
1728.67818	6001.7
1731.91284	5967.4
1735.14537	5937.9
1738.37576	5903.8
1741.60403	5883.3
1744.83017	5877.5
1748.05418	5874.5
1751.27607	5863.2
1754.49584	5835.3
1757.71349	5813
1760.92903	5813.4
1764.14244	5788.7
1767.35375	5783.3
1770.56294	5774
1773.77002	5735.7
1776.97499	5746.2
1780.17785	5712.7
1783.37861	5701.5
1786.57727	5697.2
1789.77382	5663.5
1792.96828	5650.6
1796.16064	5631.4
1799.3509	5640.2
1802.53907	5624.2
1805.72514	5615
1808.90913	5613.6
1812.09102	5592.2
1815.27083	5576
1818.44856	5547.6
1821.6242	5546.6
1824.79776	5542.8
1827.96924	5538.1
1831.13864	5539.3
1834.30597	5523.3
1837.47122	5514.2
1840.6344	5483.2
1843.7955	5461.8
1846.95454	5465.6
1850.11151	5480
1853.26642	5458.3
1856.41926	5465.7
1859.57004	5460.5
1862.71876	5458.2
1865.86542	5443.5
1869.01003	5430.5
1872.15258	5437
1875.29308	5432.7
1878.43152	5427.3
1881.56792	5416.2
1884.70227	5406.8
1887.83457	5408.9
1890.96482	5407.3
1894.09304	5399.5
1897.21921	5363.1
1900.34335	5374.2
1903.46544	5357.5
1906.58551	5349.8
1909.70353	5354.9
1912.81953	5356.9
1915.93349	5344.1
1919.04543	5320
1922.15534	5325.9
1925.26322	5285.4
1928.36908	5297.8
1931.47292	5277.1
1934.57473	5271.8
1937.67453	5246.2
1940.77232	5245.8
1943.86808	5239.4
1946.96184	5204.2
1950.05358	5190.3
1953.14331	5173.9
1956.23103	5168.2
1959.31675	5144.5
1962.40046	5111.1
1965.48217	5116.8
1968.56188	5103.1
1971.63959	5079.2
1974.7153	5088.5
1977.78901	5094.8
1980.86073	5053
1983.93046	5026.9
1986.99819	5020.4
1990.06394	4986.6
1993.1277	4975.6
1996.18947	4966.6
1999.24925	4945.7
2002.30706	4915.6
2005.36288	4909.4
2008.41672	4901.7
2011.46859	4886.8
2014.51848	4879.6
2017.56639	4858.7
2020.61233	4837.2
2023.6563	4825.3
2026.6983	4812.7
2029.73833	4810.4
2032.7764	4793.2
2035.8125	4775.3
2038.84664	4756.3
2041.87881	4756.4
2044.90903	4742
2047.93729	4737.9
2050.96359	4739.7
2053.98794	4728.3
2057.01034	4710.3
2060.03078	4697.5
2063.04927	4689
2066.06582	4703.1
2069.08042	4691
2072.09307	4677.6
2075.10378	4678.6
2078.11255	4688.4
2081.11938	4671.1
2084.12426	4671.6
2087.12722	4683.1
2090.12824	4671.9
2093.12732	4671.7
2096.12447	4684.7
2099.11969	4672.3
2102.11299	4677.6
2105.10435	4683.6
2108.09379	4674.4
2111.08131	4670.3
2114.0669	4675.4
2117.05057	4687.9
2120.03233	4681
2123.01216	4680.4
2125.99008	4676.1
2128.96609	4686.7
2131.94018	4702
2134.91236	4695.9
2137.88263	4694.4
2140.851	4691.6
2143.81746	4680.6
2146.78201	4679.8
2149.74466	4696.8
2152.7054	4669.2
2155.66425	4672
2158.6212	4681.7
2161.57625	4696.5
2164.52941	4663
2167.48067	4668.9
2170.43004	4665.1
2173.37752	4665.7
2176.32311	4670.5
2179.26681	4660.3
2182.20863	4677
2185.14856	4673
2188.08661	4657.5
2191.02278	4664.7
2193.95707	4649.7
2196.88948	4635.6
2199.82001	4654.7
2202.74867	4644
2205.67545	4629.4
2208.60037	4617.2
2211.52341	4620.9
2214.44458	4610.6
2217.36388	4594.5
2220.28132	4588.4
2223.1969	4563
2226.11061	4561.2
2229.02246	4559.5
2231.93245	4539.6
2234.84058	4519.8
2237.74686	4532.5
2240.65128	4524.1
2243.55385	4527.7
2246.45456	4516.6
2249.35343	4505.8
2252.25044	4509.5
2255.14561	4514.8
2258.03893	4494.8
2260.93041	4505.5
2263.82004	4486
2266.70783	4486.5
2269.59378	4468.2
2272.4779	4463.3
2275.36017	4438.1
2278.24061	4422.5
2281.11922	4412.1
2283.996	4408.8
2286.87094	4415.8
2289.74405	4401.1
2292.61534	4401.2
2295.4848	4389.3
2298.35243	4385.2
2301.21824	4376.5
2304.08223	4391.1
2306.94439	4388
2309.80474	4381.9
2312.66327	4381.2
2315.51999	4342.2
2318.37489	4351.5
2321.22797	4348.3
2324.07925	4341.8
2326.92871	4317
2329.77637	4326.5
2332.62222	4315.8
2335.46626	4309.8
2338.3085	4309.3
2341.14893	4302.5
2343.98756	4295.7
2346.8244	4303.6
2349.65943	4298.1
2352.49267	4296.1
2355.32411	4292.6
2358.15376	4296
2360.98161	4299
2363.80768	4310.1
2366.63195	4302.9
2369.45444	4298.8
2372.27514	4295.7
2375.09405	4281
2377.91118	4301.8
2380.72652	4270.6
2383.54009	4258.6
2386.35187	4242.5
2389.16188	4240.6
2391.97011	4219.9
2394.77657	4209.4
2397.58125	4202.8
2400.38416	4194.3
2403.18529	4184.4
2405.98466	4185.7
2408.78226	4183.1
2411.57809	4164.6
2414.37216	4151.9
2417.16446	4158.5
2419.955	4148
2422.74378	4164.7
2425.5308	4145.7
2428.31606	4139.2
2431.09956	4147.6
2433.88131	4123
2436.6613	4128.3
2439.43954	4145
2442.21603	4138.5
2444.99077	4124.1
2447.76377	4119.6
2450.53501	4117.1
2453.30451	4131.2
2456.07226	4100.2
2458.83827	4114.1
2461.60254	4106.6
2464.36507	4092.5
2467.12586	4086.1
2469.88492	4103
2472.64224	4111.7
2475.39782	4098.6
2478.15167	4100.2
2480.90379	4103
2483.65417	4102.9
2486.40283	4109.1
2489.14976	4103.3
2491.89497	4102.9
2494.63845	4114.3
2497.3802	4111.3
2500.12024	4108.6
2502.85855	4084.2
2505.59514	4066.5
2508.33002	4066.2
2511.06318	4030.6
2513.79462	4030.9
2516.52435	4026.5
2519.25237	4009.3
2521.97867	4003.3
2524.70327	4011.4
2527.42616	4005.9
2530.14734	3996.4
2532.86681	3981.4
2535.58458	3987.9
2538.30065	3983.3
2541.01501	3980.6
2543.72768	3993.6
2546.43864	3981.1
2549.14791	3975.7
2551.85548	3976.3
2554.56136	3974.7
2557.26554	3981
2559.96803	3963.8
2562.66883	3951.5
2565.36794	3960.6
2568.06536	3934.4
2570.7611	3913.2
2573.45514	3904.2
2576.14751	3899.5
2578.83819	3893.3
2581.52719	3882.6
2584.21451	3862.8
2586.90015	3846.2
2589.58411	3839.2
2592.2664	3839.7
2594.94701	3852.9
2597.62594	3851
2600.30321	3841.4
2602.9788	3833.6
2605.65273	3842.5
2608.32498	3828.5
2610.99557	3816.9
2613.66449	3816.5
2616.33175	3798.6
2618.99734	3809.9
2621.66128	3792.3
2624.32355	3780.5
2626.98416	3779.5
2629.64311	3789.3
2632.30041	3764.7
2634.95605	3765.8
2637.61004	3752
2640.26238	3759
2642.91306	3742.5
2645.56209	3735.5
2648.20948	3737.1
2650.85521	3725.5
2653.4993	3733
2656.14175	3739.6
2658.78255	3744.4
2661.42171	3737.6
2664.05923	3757.3
2666.6951	3755.3
2669.32934	3765.3
2671.96194	3746.9
2674.59291	3735.4
2677.22224	3754.9
2679.84993	3743.9
2682.476	3735.4
2685.10043	3736.8
2687.72324	3723.1
2690.34441	3716.6
2692.96396	3731.1
2695.58188	3733.7
2698.19818	3722.3
2700.81285	3723.5
2703.4259	3723.7
2706.03733	3725.9
2708.64714	3713.2
2711.25533	3701.9
2713.86191	3708.3
2716.46687	3713.8
2719.07021	3712.6
2721.67194	3711.1
2724.27206	3716.5
2726.87057	3707.7
2729.46747	3703.4
2732.06276	3700.5
2734.65644	3696.6
2737.24852	3699.3
2739.83899	3698.3
2742.42786	3697.4
2745.01513	3691.1
2747.60079	3690.6
2750.18486	3670.9
2752.76733	3665.6
2755.3482	3664
2757.92747	3661
2760.50515	3641.4
2763.08123	3658.6
2765.65573	3629.5
2768.22863	3626.2
2770.79994	3614.1
2773.36967	3621.6
2775.9378	3618.2
2778.50435	3607
2781.06932	3600.5
2783.6327	3596.4
2786.1945	3578
2788.75471	3585.3
2791.31335	3579.4
2793.87041	3571.1
2796.42589	3562.5
2798.97979	3563.7
2801.53212	3560.6
2804.08288	3566.9
2806.63206	3547.8
2809.17967	3563.8
2811.72571	3538.4
2814.27018	3546.4
2816.81308	3527.4
2819.35442	3520.8
2821.89419	3504.5
2824.43239	3507.1
2826.96904	3500.1
2829.50412	3498.6
2832.03763	3486.8
2834.56959	3485.6
2837.1	3454.6
2839.62884	3458.5
2842.15613	3449.5
2844.68186	3464
2847.20604	3455.1
2849.72867	3433.3
2852.24974	3437
2854.76927	3430.1
2857.28724	3420.3
2859.80367	3404.6
2862.31855	3404.3
2864.83189	3416.9
2867.34368	3412.2
2869.85393	3412.5
2872.36264	3395.4
2874.8698	3404.2
2877.37543	3391.4
2879.87952	3401.8
2882.38207	3401.8
2884.88308	3382.1
2887.38256	3380.8
2889.88051	3374.4
2892.37692	3373.1
2894.8718	3369.4
2897.36515	3372.8
2899.85698	3372.8
2902.34727	3374.4
2904.83604	3351.3
2907.32328	3384
2909.809	3361.1
2912.29319	3385.1
2914.77587	3371.8
2917.25702	3391.7
2919.73665	3378.1
2922.21476	3386.5
2924.69136	3375.8
2927.16644	3365
2929.64	3373.2
2932.11205	3353.5
2934.58258	3337.2
2937.05161	3346.1
2939.51912	3338.7
2941.98513	3340.1
2944.44962	3314.6
2946.91261	3320.2
2949.37409	3317
2951.83407	3319.1
2954.29254	3322.5
2956.74951	3312.8
2959.20498	3294.7
2961.65895	3293.3
2964.11142	3285.8
2966.56239	3284.7
2969.01186	3284.5
2971.45984	3281.2
2973.90632	3288.3
2976.35131	3274.7
2978.7948	3271
2981.23681	3268
2983.67732	3257.9
2986.11635	3249.8
2988.55388	3254.5
2990.98993	3238.8
2993.4245	3245.7
2995.85758	3229
2998.28917	3225
3000.71928	3214
3003.14791	3212
3005.57506	3200.3
3008.00073	3187.4
3010.42493	3181.9
3012.84764	3170.2
3015.26888	3159.8
3017.68865	3146.9
3020.10694	3153.2
3022.52376	3142.6
3024.9391	3134.5
3027.35298	3117.8
3029.76539	3108.9
3032.17632	3109.8
3034.5858	3102.5
3036.9938	3082.6
3039.40034	3098.9
3041.80542	3076.3
3044.20903	3082.3
3046.61118	3081.3
3049.01187	3049.9
3051.4111	3058.9
3053.80888	3043.5
3056.20519	3031.4
3058.60005	3035.8
3060.99345	3037.4
3063.3854	3018.3
3065.7759	3021.9
3068.16494	3008.8
3070.55254	3015.6
3072.93868	2993.2
3075.32338	2986
3077.70662	2978.9
3080.08842	2959.8
3082.46878	2950.3
3084.84769	2950.5
3087.22515	2948
3089.60118	2946
3091.97576	2949.2
3094.3489	2944.5
3096.72061	2941
3099.09087	2936.1
3101.4597	2927.8
3103.82709	2931.6
3106.19305	2929.5
3108.55757	2926.2
3110.92066	2913.9
3113.28232	2902.7
3115.64255	2898.5
3118.00134	2899
3120.35871	2869.9
3122.71466	2891.2
3125.06917	2874.8
3127.42226	2868.9
3129.77393	2850.2
3132.12417	2849.5
3134.47299	2852.2
3136.82039	2838.7
3139.16636	2840.9
3141.51092	2842.9
3143.85406	2846
3146.19579	2843.8
3148.53609	2850.9
3150.87499	2844.8
3153.21246	2817.4
3155.54853	2838.7
3157.88318	2827.4
3160.21642	2840.7
3162.54826	2839.5
3164.87868	2824.2
3167.2077	2813.4
3169.5353	2811.9
3171.86151	2815.8
3174.18631	2817.2
3176.5097	2794.3
3178.83169	2786.6
3181.15228	2784.9
3183.47147	2768.2
3185.78926	2761.2
3188.10565	2771.3
3190.42065	2765.6
3192.73424	2754.9
3195.04645	2747
3197.35725	2737.4
3199.66667	2744.4
3201.97469	2736.9
3204.28132	2737.5
3206.58656	2732.6
3208.8904	2746.1
3211.19287	2741.5
3213.49394	2755.2
3215.79363	2745.3
3218.09193	2741.3
3220.38884	2731.5
3222.68438	2740.2
3224.97853	2731.4
3227.2713	2731.6
3229.56269	2732.4
3231.8527	2719.2
3234.14133	2709.3
3236.42858	2716.9
3238.71446	2682.8
3240.99896	2688.7
3243.28209	2685
3245.56384	2680.8
3247.84423	2677.3
3250.12324	2672.3
3252.40088	2681.1
3254.67715	2657
3256.95205	2659.9
3259.22558	2648.7
3261.49775	2652.2
3263.76855	2659.4
3266.03799	2656.4
3268.30606	2654.2
3270.57277	2653.2
3272.83812	2651.7
3275.10211	2630.3
3277.36474	2620.3
3279.62601	2632.3
3281.88593	2617.3
3284.14448	2602.6
3286.40168	2609.4
3288.65753	2616.6
3290.91202	2600.7
3293.16516	2599.5
3295.41695	2592.8
3297.66738	2574.6
3299.91647	2563.3
3302.16421	2556.3
3304.4106	2535.2
3306.65564	2523.9
3308.89933	2497.5
3311.14169	2491.3
3313.38269	2472.5
3315.62236	2457.3
3317.86068	2412.7
3320.09766	2412.8
3322.3333	2390.5
3324.5676	2370.6
3326.80056	2342.9
3329.03219	2330.3
3331.26248	2.2
3333.49143	-1.2
3335.71905	-1.9
