Data from AgNPs_UA_10uM_CRN_500uM_SU_RamanShift__7__13-06-30-255.txt Node

Date: Thu Aug 04 13:06:30 BST 2022
User: TCL
Spectrometer: QEP01345
Trigger mode: 4
Integration Time (sec): 1.000000E0
Scans to average: 10
Electric dark correction enabled: true
Nonlinearity correction enabled: false
Boxcar width: 0
XAxis mode: Raman Shifts
Number of Pixels in Spectrum: 1044
>>>>>Begin Spectral Data<<<<<
46.04893	1.5
50.45542	-0.5
54.85868	0
59.25871	-0.2
63.6555	16.9
68.04907	16.7
72.43941	18.5
76.82654	17.9
81.21044	18.7
85.59113	20.4
89.96862	20.9
94.34289	21.1
98.71396	21.3
103.08183	22.6
107.4465	22.5
111.80798	23.4
116.16626	25.2
120.52136	27.7
124.87327	28.6
129.222	29.4
133.56755	31
137.90993	35.1
142.24913	39.6
146.58517	44.6
150.91804	52.2
155.24774	61.7
159.57429	76.3
163.89768	100.9
168.21792	134.4
172.53501	187.1
176.84895	262.5
181.15975	372.7
185.46741	528.4
189.77193	731.1
194.07331	983.6
198.37157	1272.5
202.6667	1578.1
206.9587	1877.9
211.24758	2183.7
215.53334	2510.3
219.81599	2831.6
224.09553	3216.4
228.37195	3632.4
232.64527	4072.5
236.91549	4506.5
241.18261	4888
245.44663	5202.8
249.70755	5427.5
253.96539	5636.7
258.22014	5819.8
262.4718	5955
266.72039	6038.4
270.96589	6056.5
275.20832	6027.2
279.44768	5935.2
283.68397	5822.4
287.91719	5776.3
292.14735	5774
296.37445	5881.7
300.59849	6077.6
304.81948	6298.4
309.03742	6565.2
313.25231	6677.7
317.46415	6654.1
321.67296	6393.5
325.87872	6115.6
330.08145	5969.6
334.28114	5945.1
338.47781	6030.1
342.67145	6108.1
346.86207	6318.9
351.04966	6587.8
355.23424	6845.8
359.4158	7056.8
363.59435	7104
367.76989	7096.6
371.94243	7059.1
376.11196	7022.3
380.27849	6982.5
384.44203	7030.1
388.60257	7060.7
392.76012	7104.5
396.91468	7204.9
401.06626	7323.4
405.21485	7370.4
409.36047	7269.9
413.50311	7055.3
417.64277	6858.1
421.77947	6709.4
425.9132	6650.5
430.04396	6610.7
434.17176	6629.3
438.2966	6682
442.41849	6803.5
446.53742	6927.2
450.6534	7072.4
454.76644	7151.2
458.87653	7191.1
462.98368	7222.7
467.08789	7180.6
471.18916	7081.2
475.2875	6949.3
479.38291	6807.8
483.4754	6719.3
487.56496	6677.7
491.6516	6662.1
495.73531	6661
499.81612	6713.7
503.89401	6757.8
507.96899	6806.3
512.04106	6859
516.11023	6915.5
520.1765	6916.9
524.23987	6938.6
528.30034	6929.7
532.35792	6922
536.41261	6860.9
540.46441	6775.7
544.51333	6754
548.55936	6791.4
552.60252	6889.4
556.64279	6993.7
560.6802	7110.4
564.71473	7203.8
568.7464	7293
572.7752	7243.6
576.80114	7025.2
580.82422	6859.9
584.84444	6803.9
588.86181	6784.4
592.87633	6803
596.888	6909.8
600.89682	7282.7
604.9028	8097.4
608.90594	9849.5
612.90624	11568.6
616.90371	10690.9
620.89834	8301.8
624.89015	7326.6
628.87913	7252.3
632.86528	7400.9
636.84862	7490.4
640.82913	7336.6
644.80683	7067.3
648.78172	6907.7
652.75379	6922.6
656.72306	7099.3
660.68952	7333.6
664.65319	7275
668.61405	7191
672.57211	7257.3
676.52738	7229.3
680.47986	7076.2
684.42955	6907.4
688.37646	6873
692.32058	6923.1
696.26192	7056.1
700.20048	7189.6
704.13626	7193.9
708.06928	7121.6
711.99952	7053
715.927	7029.8
719.85171	7057.6
723.77365	7088
727.69284	7071.4
731.60928	6982.5
735.52295	6991.9
739.43388	7023.3
743.34206	7050.8
747.24749	7036.4
751.15017	7035.7
755.05012	7119.7
758.94733	7383.8
762.8418	8027.9
766.73354	9008
770.62254	9736.8
774.50882	9870.5
778.39237	9576.1
782.27321	8973
786.15132	8200.4
790.02671	7624.8
793.89938	7315.1
797.76935	7159.5
801.6366	7086.6
805.50115	7014
809.36299	6985.6
813.22213	6994.3
817.07857	6986.8
820.93231	7000.3
824.78336	6995.2
828.63172	7039.5
832.47738	7033.4
836.32036	7024.3
840.16066	6987.5
843.99827	6965
847.8332	6976.1
851.66546	7013.7
855.49504	7019.7
859.32195	7026.5
863.1462	6987.7
866.96777	7004.5
870.78668	7011.6
874.60293	7047.1
878.41652	7073.7
882.22745	7141.3
886.03573	7163.2
889.84136	7176.8
893.64433	7137.6
897.44466	7116.8
901.24235	7103.5
905.0374	7105.2
908.8298	7064.3
912.61957	7072.5
916.40671	7076.8
920.19121	7070.6
923.97308	7095.8
927.75233	7170.9
931.52895	7240.2
935.30295	7193.4
939.07433	7065.3
942.84309	7010.2
946.60924	6994.4
950.37278	6959.6
954.13371	6962.6
957.89203	6963.1
961.64774	6960.8
965.40086	6951.8
969.15137	6950.2
972.89929	6936.9
976.64461	6921.1
980.38733	6932.5
984.12747	6947.9
987.86502	6960.4
991.59999	7002.8
995.33237	7031.2
999.06217	7098.5
1002.78939	7167.6
1006.51404	7312.3
1010.23611	7421.1
1013.95561	7501.1
1017.67255	7518.5
1021.38692	7515.8
1025.09872	7432.3
1028.80796	7358.9
1032.51465	7333.6
1036.21877	7336.8
1039.92035	7365.4
1043.61937	7410.5
1047.31584	7444.2
1051.00976	7465.4
1054.70114	7481.2
1058.38998	7515.8
1062.07627	7546.3
1065.76003	7605
1069.44126	7678.5
1073.11995	7840.1
1076.79611	7991.3
1080.46974	8136.8
1084.14085	8190.6
1087.80943	8298.7
1091.47549	8340.4
1095.13903	8353.9
1098.80005	8374.9
1102.45857	8440.3
1106.11456	8422.1
1109.76805	8268
1113.41903	8231.4
1117.06751	8308.4
1120.71348	8466.1
1124.35696	8658.7
1127.99793	8767.5
1131.63641	8597.9
1135.2724	8349.6
1138.90589	8116.9
1142.5369	8008.1
1146.16542	7939.4
1149.79145	7857.7
1153.415	7791.8
1157.03607	7765.6
1160.65467	7831.1
1164.27079	7984.5
1167.88443	8222.7
1171.49561	8582.9
1175.10432	9132.3
1178.71056	9849.2
1182.31434	10451.8
1185.91565	10658.2
1189.51451	10651.7
1193.11091	10557.8
1196.70485	10412.6
1200.29634	10250
1203.88538	9961.1
1207.47197	9626.6
1211.05612	9225
1214.63782	8847.5
1218.21708	8564.9
1221.79391	8395.2
1225.36829	8327.9
1228.94024	8289.1
1232.50976	8331.6
1236.07685	8381.8
1239.6415	8411.8
1243.20374	8414.1
1246.76355	8493.5
1250.32093	8545.3
1253.8759	8687
1257.42845	8864.2
1260.97859	9090.1
1264.52631	9331.3
1268.07163	9506.2
1271.61453	9589.4
1275.15503	9608.5
1278.69312	9556.2
1282.22882	9559.9
1285.76211	9627.9
1289.29301	9803.3
1292.82151	9991.3
1296.34761	10173.5
1299.87133	10463.7
1303.39266	10992.6
1306.9116	11825.3
1310.42815	12709.7
1313.94233	13024.3
1317.45412	12535.5
1320.96354	11780.6
1324.47058	11153.2
1327.97525	10577.1
1331.47754	10255.2
1334.97747	10165.7
1338.47502	10281.6
1341.97022	10650.6
1345.46305	11335
1348.95352	12357.8
1352.44163	13444.1
1355.92738	14515.4
1359.41078	15631.7
1362.89183	16372.5
1366.37053	15577.1
1369.84688	13388.7
1373.32088	11419.8
1376.79254	10313.9
1380.26186	9817.9
1383.72883	9455.8
1387.19347	9124.5
1390.65578	8851
1394.11575	8598.3
1397.57339	8406
1401.0287	8335.5
1404.48168	8293.6
1407.93234	8352.5
1411.38068	8472.8
1414.82669	8578.9
1418.27039	8646.6
1421.71177	8641.7
1425.15083	8549.8
1428.58758	8432
1432.02203	8419.5
1435.45416	8413
1438.88399	8411.9
1442.31151	8390.2
1445.73673	8437.1
1449.15965	8457.7
1452.58027	8458.6
1455.9986	8452
1459.41463	8449.8
1462.82837	8514.5
1466.23982	8686.4
1469.64898	8902.7
1473.05586	9033
1476.46045	9127.2
1479.86276	9247.8
1483.26279	9362.7
1486.66054	9534.3
1490.05602	9823.1
1493.44922	10298.8
1496.84016	10982.6
1500.22882	12010.8
1503.61521	13219.4
1506.99934	14405.5
1510.38121	15130.7
1513.76081	14930
1517.13816	13787.2
1520.51324	12298.6
1523.88607	11086.9
1527.25665	10380.5
1530.62498	10001
1533.99105	9847.7
1537.35488	9776.3
1540.71647	9687.3
1544.07581	9593
1547.4329	9469.8
1550.78776	9373
1554.14038	9226.2
1557.49077	9190.3
1560.83892	9310.6
1564.18484	9502.5
1567.52853	9757.4
1570.86999	9930.7
1574.20922	10031.8
1577.54624	9942.4
1580.88103	9525.9
1584.2136	9037.5
1587.54395	8757
1590.87208	8714.2
1594.19801	8932
1597.52172	9209.7
1600.84321	9318.5
1604.16251	9279.2
1607.47959	9130.8
1610.79447	8903.2
1614.10715	8636.9
1617.41763	8294.4
1620.7259	8026.3
1624.03199	7844.4
1627.33587	7799.3
1630.63757	7821.5
1633.93707	8039.6
1637.23439	8419.3
1640.52951	9106.6
1643.82246	10037.9
1647.11321	10993
1650.40179	11502.3
1653.68819	11070.2
1656.97241	9939.7
1660.25446	8776.6
1663.53433	7958
1666.81203	7466.2
1670.08756	7154
1673.36092	6995.3
1676.63211	6877
1679.90115	6782.7
1683.16801	6718.7
1686.43272	6665.3
1689.69527	6622.1
1692.95567	6582.3
1696.2139	6558
1699.46999	6516.6
1702.72392	6530.1
1705.97571	6513.3
1709.22535	6505.1
1712.47284	6534.8
1715.71819	6515.1
1718.96139	6510.3
1722.20246	6519.4
1725.44139	6476.5
1728.67818	6439
1731.91284	6398.8
1735.14537	6383.1
1738.37576	6361.8
1741.60403	6336.1
1744.83017	6317.2
1748.05418	6321.9
1751.27607	6289.1
1754.49584	6272.2
1757.71349	6266.8
1760.92903	6248.3
1764.14244	6234.6
1767.35375	6208.7
1770.56294	6202.7
1773.77002	6186.8
1776.97499	6168.7
1780.17785	6130.5
1783.37861	6132.9
1786.57727	6148.6
1789.77382	6113
1792.96828	6109.1
1796.16064	6084
1799.3509	6069.9
1802.53907	6069.4
1805.72514	6061.5
1808.90913	6033.9
1812.09102	6039.7
1815.27083	6017.1
1818.44856	5985.8
1821.6242	5975.5
1824.79776	5962.4
1827.96924	5951.7
1831.13864	5949.3
1834.30597	5942.8
1837.47122	5934.3
1840.6344	5898.5
1843.7955	5908.9
1846.95454	5906.1
1850.11151	5899.6
1853.26642	5899.1
1856.41926	5898.3
1859.57004	5907.5
1862.71876	5893.1
1865.86542	5883.1
1869.01003	5864.8
1872.15258	5841.6
1875.29308	5851
1878.43152	5842.2
1881.56792	5837.8
1884.70227	5809.8
1887.83457	5808.1
1890.96482	5789.4
1894.09304	5756.2
1897.21921	5778.8
1900.34335	5754.4
1903.46544	5764.2
1906.58551	5759
1909.70353	5746.2
1912.81953	5740.7
1915.93349	5735.2
1919.04543	5720.3
1922.15534	5699.4
1925.26322	5678.9
1928.36908	5658.2
1931.47292	5648.2
1934.57473	5649.7
1937.67453	5633.6
1940.77232	5620.9
1943.86808	5595.8
1946.96184	5566.7
1950.05358	5573.9
1953.14331	5564.6
1956.23103	5537.4
1959.31675	5512.5
1962.40046	5493.8
1965.48217	5494.4
1968.56188	5468.9
1971.63959	5456
1974.7153	5430.6
1977.78901	5434.8
1980.86073	5414.9
1983.93046	5372
1986.99819	5356.8
1990.06394	5356.8
1993.1277	5345.5
1996.18947	5301.1
1999.24925	5286.6
2002.30706	5251.1
2005.36288	5232.3
2008.41672	5223
2011.46859	5205.2
2014.51848	5196
2017.56639	5183
2020.61233	5155.7
2023.6563	5134.2
2026.6983	5121.4
2029.73833	5102.5
2032.7764	5086.4
2035.8125	5089.5
2038.84664	5078.3
2041.87881	5033.9
2044.90903	5051.8
2047.93729	5040.2
2050.96359	5030
2053.98794	5017.5
2057.01034	4999.1
2060.03078	5017.1
2063.04927	5000.9
2066.06582	4998.9
2069.08042	4969.7
2072.09307	4977.7
2075.10378	4978.2
2078.11255	4972.8
2081.11938	4954.8
2084.12426	4938.9
2087.12722	4950.8
2090.12824	4949.6
2093.12732	4945.9
2096.12447	4955.5
2099.11969	4958.7
2102.11299	4958.9
2105.10435	4958.3
2108.09379	4957.8
2111.08131	4945.7
2114.0669	4943.3
2117.05057	4958.5
2120.03233	4978.4
2123.01216	4964.3
2125.99008	4953.8
2128.96609	4955.8
2131.94018	4973.1
2134.91236	4967.6
2137.88263	4970.3
2140.851	4966.6
2143.81746	4959.2
2146.78201	4949.1
2149.74466	4945.7
2152.7054	4950.5
2155.66425	4950.5
2158.6212	4939.1
2161.57625	4944.9
2164.52941	4930.6
2167.48067	4930.9
2170.43004	4908.3
2173.37752	4897.9
2176.32311	4905.3
2179.26681	4921.5
2182.20863	4916.9
2185.14856	4910.2
2188.08661	4899.9
2191.02278	4910.2
2193.95707	4908.4
2196.88948	4890
2199.82001	4880.5
2202.74867	4886.9
2205.67545	4896.4
2208.60037	4875.6
2211.52341	4868.2
2214.44458	4853.6
2217.36388	4825.9
2220.28132	4815.2
2223.1969	4795.4
2226.11061	4785.3
2229.02246	4772.3
2231.93245	4770.5
2234.84058	4763.4
2237.74686	4765.1
2240.65128	4752.1
2243.55385	4729.8
2246.45456	4722.4
2249.35343	4719.3
2252.25044	4725.2
2255.14561	4710.9
2258.03893	4707.7
2260.93041	4705.5
2263.82004	4685.8
2266.70783	4682.2
2269.59378	4679.4
2272.4779	4653.3
2275.36017	4637
2278.24061	4645
2281.11922	4605.6
2283.996	4592.5
2286.87094	4592.4
2289.74405	4594
2292.61534	4590.7
2295.4848	4560.6
2298.35243	4547.2
2301.21824	4555.7
2304.08223	4547.8
2306.94439	4541.5
2309.80474	4551.5
2312.66327	4543.6
2315.51999	4528.9
2318.37489	4524.8
2321.22797	4511.6
2324.07925	4494
2326.92871	4476.3
2329.77637	4470.9
2332.62222	4476.3
2335.46626	4457.7
2338.3085	4446.3
2341.14893	4444.1
2343.98756	4446.3
2346.8244	4443
2349.65943	4424.6
2352.49267	4411.4
2355.32411	4422.4
2358.15376	4406.3
2360.98161	4421.7
2363.80768	4412.3
2366.63195	4418.5
2369.45444	4418.3
2372.27514	4411.6
2375.09405	4394.6
2377.91118	4386
2380.72652	4391.9
2383.54009	4360
2386.35187	4372
2389.16188	4359.7
2391.97011	4324.1
2394.77657	4321.9
2397.58125	4311
2400.38416	4304.8
2403.18529	4277.4
2405.98466	4290
2408.78226	4284.4
2411.57809	4281
2414.37216	4259.9
2417.16446	4262.3
2419.955	4261.7
2422.74378	4254.5
2425.5308	4251.1
2428.31606	4251.8
2431.09956	4238.3
2433.88131	4225.6
2436.6613	4206.7
2439.43954	4223.3
2442.21603	4210.7
2444.99077	4211.4
2447.76377	4218.2
2450.53501	4215.7
2453.30451	4210.5
2456.07226	4202.2
2458.83827	4183.3
2461.60254	4173
2464.36507	4162.7
2467.12586	4157.8
2469.88492	4155.1
2472.64224	4158.3
2475.39782	4172.5
2478.15167	4149.4
2480.90379	4147.9
2483.65417	4135.5
2486.40283	4136.7
2489.14976	4144.1
2491.89497	4125.4
2494.63845	4142.3
2497.3802	4124.3
2500.12024	4115.6
2502.85855	4107
2505.59514	4119.5
2508.33002	4094.8
2511.06318	4070.9
2513.79462	4068.5
2516.52435	4066.9
2519.25237	4051.1
2521.97867	4053.8
2524.70327	4056
2527.42616	4025.3
2530.14734	4007.5
2532.86681	4013.2
2535.58458	4028.1
2538.30065	4026.1
2541.01501	4011.4
2543.72768	4000.6
2546.43864	4002.4
2549.14791	3984.5
2551.85548	3976.1
2554.56136	3979.2
2557.26554	3982.6
2559.96803	3969.3
2562.66883	3952.1
2565.36794	3946.1
2568.06536	3925.5
2570.7611	3905.9
2573.45514	3904.4
2576.14751	3905.6
2578.83819	3883.2
2581.52719	3881.1
2584.21451	3881.5
2586.90015	3859.8
2589.58411	3851.5
2592.2664	3840.4
2594.94701	3856.4
2597.62594	3836.7
2600.30321	3822
2602.9788	3823.3
2605.65273	3808.3
2608.32498	3820.1
2610.99557	3800.2
2613.66449	3783.4
2616.33175	3782.9
2618.99734	3777.3
2621.66128	3782.8
2624.32355	3760.1
2626.98416	3749
2629.64311	3743.1
2632.30041	3727.9
2634.95605	3720.2
2637.61004	3725.6
2640.26238	3710.1
2642.91306	3699.8
2645.56209	3698
2648.20948	3706.9
2650.85521	3696.7
2653.4993	3700.6
2656.14175	3690.4
2658.78255	3684.9
2661.42171	3694.7
2664.05923	3689.6
2666.6951	3681.1
2669.32934	3702.7
2671.96194	3707
2674.59291	3697.4
2677.22224	3694.6
2679.84993	3699.8
2682.476	3680.3
2685.10043	3696.5
2687.72324	3688.2
2690.34441	3676
2692.96396	3680.3
2695.58188	3674.7
2698.19818	3672.9
2700.81285	3673.9
2703.4259	3669.8
2706.03733	3654.1
2708.64714	3657.8
2711.25533	3646.1
2713.86191	3663.2
2716.46687	3640.4
2719.07021	3646
2721.67194	3654.4
2724.27206	3654.5
2726.87057	3659.8
2729.46747	3641.7
2732.06276	3644.6
2734.65644	3625.2
2737.24852	3629.9
2739.83899	3618.1
2742.42786	3612.8
2745.01513	3604.4
2747.60079	3590.9
2750.18486	3593.2
2752.76733	3582.1
2755.3482	3570
2757.92747	3585.8
2760.50515	3570.6
2763.08123	3564.7
2765.65573	3554.8
2768.22863	3541.2
2770.79994	3540
2773.36967	3527.4
2775.9378	3519.9
2778.50435	3525.9
2781.06932	3519.6
2783.6327	3523.1
2786.1945	3503.3
2788.75471	3493.8
2791.31335	3486.4
2793.87041	3483.6
2796.42589	3471.4
2798.97979	3456.6
2801.53212	3450.6
2804.08288	3431.2
2806.63206	3439.2
2809.17967	3441.4
2811.72571	3427
2814.27018	3428.9
2816.81308	3410
2819.35442	3398
2821.89419	3404.2
2824.43239	3393
2826.96904	3385.3
2829.50412	3386.3
2832.03763	3357.8
2834.56959	3365.4
2837.1	3344.3
2839.62884	3351.2
2842.15613	3346.3
2844.68186	3342.3
2847.20604	3344.4
2849.72867	3334.6
2852.24974	3320.6
2854.76927	3321.8
2857.28724	3306.9
2859.80367	3297.5
2862.31855	3300.8
2864.83189	3309.2
2867.34368	3297.3
2869.85393	3299.8
2872.36264	3290.9
2874.8698	3297.2
2877.37543	3290.4
2879.87952	3284.6
2882.38207	3274.9
2884.88308	3264.7
2887.38256	3259.6
2889.88051	3263.3
2892.37692	3254.4
2894.8718	3248
2897.36515	3240.8
2899.85698	3244.9
2902.34727	3256.6
2904.83604	3246.5
2907.32328	3253.9
2909.809	3247.7
2912.29319	3250.1
2914.77587	3253.7
2917.25702	3262.7
2919.73665	3261
2922.21476	3273
2924.69136	3251.1
2927.16644	3250.1
2929.64	3247.2
2932.11205	3236.5
2934.58258	3225.9
2937.05161	3221.9
2939.51912	3216.6
2941.98513	3205.1
2944.44962	3199.5
2946.91261	3199.3
2949.37409	3197.6
2951.83407	3193.4
2954.29254	3180
2956.74951	3177.3
2959.20498	3175.4
2961.65895	3182.9
2964.11142	3175.3
2966.56239	3171.3
2969.01186	3169.8
2971.45984	3162.6
2973.90632	3144.1
2976.35131	3149.9
2978.7948	3149.5
2981.23681	3146.8
2983.67732	3132.8
2986.11635	3125.7
2988.55388	3123.6
2990.98993	3103.5
2993.4245	3108.1
2995.85758	3098
2998.28917	3089.5
3000.71928	3070
3003.14791	3065.7
3005.57506	3063
3008.00073	3056.4
3010.42493	3038.8
3012.84764	3040.3
3015.26888	3045.8
3017.68865	3028.6
3020.10694	3020.2
3022.52376	3007.8
3024.9391	2998.2
3027.35298	2991.4
3029.76539	2982.2
3032.17632	2976.1
3034.5858	2974.1
3036.9938	2979.7
3039.40034	2954.2
3041.80542	2938.3
3044.20903	2947.1
3046.61118	2935.3
3049.01187	2926.4
3051.4111	2927.2
3053.80888	2905
3056.20519	2898.4
3058.60005	2897.8
3060.99345	2888.6
3063.3854	2884.7
3065.7759	2871.2
3068.16494	2873.8
3070.55254	2865.1
3072.93868	2848.4
3075.32338	2847
3077.70662	2827.5
3080.08842	2827.8
3082.46878	2820.9
3084.84769	2815.3
3087.22515	2806.2
3089.60118	2800.8
3091.97576	2809.3
3094.3489	2797.8
3096.72061	2798
3099.09087	2790.1
3101.4597	2793.7
3103.82709	2779.6
3106.19305	2780
3108.55757	2801
3110.92066	2777.1
3113.28232	2771
3115.64255	2769
3118.00134	2760.3
3120.35871	2743.2
3122.71466	2743
3125.06917	2730
3127.42226	2729.8
3129.77393	2736.5
3132.12417	2712.6
3134.47299	2697.4
3136.82039	2705.5
3139.16636	2705.4
3141.51092	2708.6
3143.85406	2711.9
3146.19579	2711.3
3148.53609	2705.6
3150.87499	2693.5
3153.21246	2703.2
3155.54853	2706.4
3157.88318	2693.5
3160.21642	2690.4
3162.54826	2699.4
3164.87868	2678.6
3167.2077	2677.3
3169.5353	2674.8
3171.86151	2673.3
3174.18631	2657.6
3176.5097	2649.8
3178.83169	2647.5
3181.15228	2636.5
3183.47147	2640.1
3185.78926	2621.6
3188.10565	2611.2
3190.42065	2608.8
3192.73424	2609.7
3195.04645	2610.5
3197.35725	2609.8
3199.66667	2600.4
3201.97469	2593.3
3204.28132	2600.6
3206.58656	2593.7
3208.8904	2582
3211.19287	2604.5
3213.49394	2606.2
3215.79363	2591.6
3218.09193	2592.1
3220.38884	2591.9
3222.68438	2592.2
3224.97853	2581.7
3227.2713	2585
3229.56269	2569.4
3231.8527	2572.3
3234.14133	2566.2
3236.42858	2558.1
3238.71446	2549.1
3240.99896	2541.9
3243.28209	2526.3
3245.56384	2534.1
3247.84423	2528.8
3250.12324	2523.5
3252.40088	2510.9
3254.67715	2503.3
3256.95205	2516.5
3259.22558	2506.2
3261.49775	2494.8
3263.76855	2492.9
3266.03799	2505.5
3268.30606	2494.3
3270.57277	2503.8
3272.83812	2481.4
3275.10211	2474.7
3277.36474	2470.8
3279.62601	2469.2
3281.88593	2465.7
3284.14448	2460.8
3286.40168	2457.8
3288.65753	2460.5
3290.91202	2453.3
3293.16516	2430.3
3295.41695	2443.1
3297.66738	2429.3
3299.91647	2419.7
3302.16421	2400.2
3304.4106	2385.7
3306.65564	2370.7
3308.89933	2355.2
3311.14169	2329.1
3313.38269	2323.8
3315.62236	2293.3
3317.86068	2279.6
3320.09766	2258.7
3322.3333	2241
3324.5676	2227.8
3326.80056	2187.2
3329.03219	2178.4
3331.26248	0.5
3333.49143	-0.1
3335.71905	-0.1
