Data from AgNPs_UA_5uM_CRN_500uM_SU_RamanShift__128__11-50-43-165.txt Node

Date: Thu Aug 04 11:50:43 BST 2022
User: TCL
Spectrometer: QEP01345
Trigger mode: 4
Integration Time (sec): 1.000000E0
Scans to average: 10
Electric dark correction enabled: true
Nonlinearity correction enabled: false
Boxcar width: 0
XAxis mode: Raman Shifts
Number of Pixels in Spectrum: 1044
>>>>>Begin Spectral Data<<<<<
46.04893	-1.0375
50.45542	1.4625
54.85868	1.1625
59.25871	-1.9375
63.6555	-57.9375
68.04907	-38.0375
72.43941	-70.2375
76.82654	-57.1375
81.21044	-57.4375
85.59113	-51.4375
89.96862	-75.9375
94.34289	-54.9375
98.71396	-76.8375
103.08183	-57.7375
107.4465	-50.7375
111.80798	-57.3375
116.16626	-46.0375
120.52136	-75.8375
124.87327	-50.6375
129.222	-63.6375
133.56755	-50.2375
137.90993	-63.1375
142.24913	-50.5375
146.58517	-43.9375
150.91804	-42.6375
155.24774	-29.0375
159.57429	-12.4375
163.89768	-9.5375
168.21792	35.1625
172.53501	54.3625
176.84895	133.5625
181.15975	264.1625
185.46741	407.3625
189.77193	576.7625
194.07331	855.2625
198.37157	1140.1625
202.6667	1406.3625
206.9587	1728.1625
211.24758	2024.9625
215.53334	2342.5625
219.81599	2676.8625
224.09553	3050.0625
228.37195	3488.9625
232.64527	3939.9625
236.91549	4368.1625
241.18261	4770.5625
245.44663	5071.5625
249.70755	5276.6625
253.96539	5420.0625
258.22014	5527.9625
262.4718	5587.3625
266.72039	5611.8625
270.96589	5544.2625
275.20832	5464.3625
279.44768	5366.9625
283.68397	5231.3625
287.91719	5165.6625
292.14735	5182.8625
296.37445	5309.4625
300.59849	5523.5625
304.81948	5778.6625
309.03742	6057.2625
313.25231	6239.4625
317.46415	6220.6625
321.67296	5879.9625
325.87872	5571.5625
330.08145	5422.9625
334.28114	5405.9625
338.47781	5459.1625
342.67145	5592.6625
346.86207	5796.1625
351.04966	6113.7625
355.23424	6430.3625
359.4158	6663.3625
363.59435	6686.5625
367.76989	6665.6625
371.94243	6565.1625
376.11196	6494.1625
380.27849	6451.0625
384.44203	6387.0625
388.60257	6383.3625
392.76012	6392.9625
396.91468	6509.5625
401.06626	6644.3625
405.21485	6670.0625
409.36047	6557.7625
413.50311	6305.8625
417.64277	6092.9625
421.77947	5928.0625
425.9132	5873.4625
430.04396	5874.2625
434.17176	5925.5625
438.2966	6005.7625
442.41849	6110.8625
446.53742	6212.1625
450.6534	6304.0625
454.76644	6369.7625
458.87653	6385.6625
462.98368	6367.6625
467.08789	6351.4625
471.18916	6290.3625
475.2875	6214.9625
479.38291	6114.1625
483.4754	6028.0625
487.56496	5969.9625
491.6516	5938.4625
495.73531	5933.9625
499.81612	5959.9625
503.89401	6036.8625
507.96899	6061.0625
512.04106	6155.5625
516.11023	6255.9625
520.1765	6311.1625
524.23987	6336.1625
528.30034	6358.7625
532.35792	6292.5625
536.41261	6262.1625
540.46441	6184.2625
544.51333	6125.1625
548.55936	6212.7625
552.60252	6295.7625
556.64279	6390.3625
560.6802	6491.3625
564.71473	6606.1625
568.7464	6742.9625
572.7752	6715.2625
576.80114	6455.9625
580.82422	6248.1625
584.84444	6176.3625
588.86181	6158.3625
592.87633	6209.5625
596.888	6315.3625
600.89682	6606.2625
604.9028	7407.9625
608.90594	9092.5625
612.90624	10977.0625
616.90371	10267.5625
620.89834	7811.6625
624.89015	6780.9625
628.87913	6634.6625
632.86528	6734.2625
636.84862	6874.3625
640.82913	6790.3625
644.80683	6488.8625
648.78172	6374.3625
652.75379	6402.6625
656.72306	6580.8625
660.68952	6788.4625
664.65319	6734.4625
668.61405	6523.6625
672.57211	6493.7625
676.52738	6511.2625
680.47986	6444.2625
684.42955	6357.7625
688.37646	6311.7625
692.32058	6328.4625
696.26192	6390.1625
700.20048	6485.1625
704.13626	6516.2625
708.06928	6475.1625
711.99952	6459.4625
715.927	6418.6625
719.85171	6434.2625
723.77365	6480.7625
727.69284	6452.3625
731.60928	6477.4625
735.52295	6432.8625
739.43388	6490.2625
743.34206	6474.8625
747.24749	6513.3625
751.15017	6518.9625
755.05012	6558.7625
758.94733	6875.2625
762.8418	7516.0625
766.73354	8559.3625
770.62254	9352.6625
774.50882	9434.9625
778.39237	9034.0625
782.27321	8318.2625
786.15132	7494.5625
790.02671	6955.0625
793.89938	6639.2625
797.76935	6547.1625
801.6366	6511.0625
805.50115	6452.9625
809.36299	6475.8625
813.22213	6468.0625
817.07857	6473.0625
820.93231	6459.2625
824.78336	6491.2625
828.63172	6504.9625
832.47738	6504.5625
836.32036	6511.7625
840.16066	6476.9625
843.99827	6508.6625
847.8332	6500.5625
851.66546	6510.1625
855.49504	6506.0625
859.32195	6547.3625
863.1462	6540.4625
866.96777	6543.0625
870.78668	6529.7625
874.60293	6568.9625
878.41652	6577.2625
882.22745	6645.1625
886.03573	6687.2625
889.84136	6655.3625
893.64433	6668.7625
897.44466	6657.3625
901.24235	6655.7625
905.0374	6652.7625
908.8298	6583.7625
912.61957	6570.4625
916.40671	6517.8625
920.19121	6581.2625
923.97308	6658.5625
927.75233	6692.9625
931.52895	6753.6625
935.30295	6734.0625
939.07433	6636.9625
942.84309	6525.6625
946.60924	6500.9625
950.37278	6463.3625
954.13371	6468.8625
957.89203	6484.3625
961.64774	6502.7625
965.40086	6469.7625
969.15137	6448.6625
972.89929	6465.7625
976.64461	6456.6625
980.38733	6479.0625
984.12747	6484.6625
987.86502	6506.4625
991.59999	6547.2625
995.33237	6600.8625
999.06217	6691.0625
1002.78939	6789.6625
1006.51404	6928.0625
1010.23611	7029.1625
1013.95561	7089.2625
1017.67255	7107.0625
1021.38692	7083.3625
1025.09872	7007.9625
1028.80796	6934.4625
1032.51465	6907.5625
1036.21877	6913.9625
1039.92035	6956.6625
1043.61937	6971.6625
1047.31584	7014.3625
1051.00976	7048.9625
1054.70114	7057.9625
1058.38998	7058.5625
1062.07627	7055.7625
1065.76003	7080.4625
1069.44126	7170.7625
1073.11995	7261.6625
1076.79611	7400.3625
1080.46974	7520.0625
1084.14085	7643.9625
1087.80943	7738.2625
1091.47549	7770.1625
1095.13903	7752.6625
1098.80005	7669.9625
1102.45857	7567.9625
1106.11456	7518.5625
1109.76805	7416.0625
1113.41903	7490.3625
1117.06751	7611.6625
1120.71348	7832.7625
1124.35696	8109.9625
1127.99793	8319.1625
1131.63641	8200.6625
1135.2724	7923.4625
1138.90589	7689.1625
1142.5369	7543.4625
1146.16542	7484.2625
1149.79145	7416.2625
1153.415	7359.3625
1157.03607	7323.5625
1160.65467	7367.8625
1164.27079	7515.3625
1167.88443	7709.0625
1171.49561	8038.0625
1175.10432	8512.2625
1178.71056	9215.6625
1182.31434	9810.5625
1185.91565	10043.0625
1189.51451	9947.8625
1193.11091	9783.5625
1196.70485	9665.4625
1200.29634	9526.5625
1203.88538	9313.7625
1207.47197	9013.0625
1211.05612	8674.3625
1214.63782	8367.7625
1218.21708	8168.1625
1221.79391	8042.9625
1225.36829	7922.1625
1228.94024	7883.7625
1232.50976	7866.7625
1236.07685	7907.9625
1239.6415	7922.6625
1243.20374	7985.0625
1246.76355	8018.3625
1250.32093	8084.3625
1253.8759	8158.6625
1257.42845	8374.2625
1260.97859	8573.0625
1264.52631	8754.6625
1268.07163	8851.7625
1271.61453	8935.8625
1275.15503	8965.1625
1278.69312	8980.5625
1282.22882	9015.5625
1285.76211	9190.5625
1289.29301	9364.8625
1292.82151	9605.0625
1296.34761	9782.9625
1299.87133	10113.2625
1303.39266	10649.7625
1306.9116	11525.3625
1310.42815	12474.8625
1313.94233	12844.0625
1317.45412	12201.1625
1320.96354	11362.5625
1324.47058	10593.6625
1327.97525	10022.8625
1331.47754	9709.6625
1334.97747	9646.4625
1338.47502	9782.3625
1341.97022	10091.2625
1345.46305	10680.6625
1348.95352	11538.4625
1352.44163	12504.6625
1355.92738	13471.9625
1359.41078	14669.5625
1362.89183	15707.9625
1366.37053	15088.5625
1369.84688	12889.7625
1373.32088	10863.6625
1376.79254	9816.1625
1380.26186	9312.9625
1383.72883	9014.8625
1387.19347	8694.7625
1390.65578	8433.6625
1394.11575	8236.3625
1397.57339	8110.5625
1401.0287	8009.0625
1404.48168	7995.5625
1407.93234	8028.1625
1411.38068	8034.8625
1414.82669	8130.6625
1418.27039	8189.5625
1421.71177	8159.9625
1425.15083	8062.6625
1428.58758	8005.6625
1432.02203	8018.1625
1435.45416	8108.8625
1438.88399	8142.1625
1442.31151	8131.1625
1445.73673	8216.3625
1449.15965	8278.7625
1452.58027	8293.8625
1455.9986	8291.4625
1459.41463	8307.5625
1462.82837	8376.6625
1466.23982	8539.2625
1469.64898	8711.5625
1473.05586	8834.9625
1476.46045	8912.5625
1479.86276	8961.0625
1483.26279	9003.9625
1486.66054	9125.6625
1490.05602	9340.4625
1493.44922	9726.8625
1496.84016	10392.8625
1500.22882	11461.5625
1503.61521	12758.8625
1506.99934	14059.7625
1510.38121	14916.0625
1513.76081	14820.1625
1517.13816	13615.6625
1520.51324	12044.0625
1523.88607	10767.9625
1527.25665	10006.1625
1530.62498	9618.1625
1533.99105	9492.2625
1537.35488	9400.8625
1540.71647	9361.7625
1544.07581	9319.4625
1547.4329	9212.2625
1550.78776	9093.3625
1554.14038	9030.3625
1557.49077	8943.5625
1560.83892	8990.4625
1564.18484	9139.7625
1567.52853	9325.4625
1570.86999	9576.9625
1574.20922	9695.3625
1577.54624	9587.6625
1580.88103	9219.4625
1584.2136	8705.5625
1587.54395	8466.4625
1590.87208	8413.6625
1594.19801	8573.0625
1597.52172	8918.4625
1600.84321	9100.0625
1604.16251	9035.2625
1607.47959	8858.0625
1610.79447	8718.0625
1614.10715	8398.1625
1617.41763	8117.3625
1620.7259	7843.5625
1624.03199	7692.3625
1627.33587	7634.3625
1630.63757	7674.7625
1633.93707	7875.1625
1637.23439	8241.2625
1640.52951	8829.0625
1643.82246	9599.6625
1647.11321	10468.4625
1650.40179	10985.3625
1653.68819	10664.4625
1656.97241	9636.7625
1660.25446	8546.5625
1663.53433	7761.5625
1666.81203	7263.4625
1670.08756	7000.9625
1673.36092	6846.3625
1676.63211	6738.9625
1679.90115	6666.6625
1683.16801	6583.9625
1686.43272	6496.7625
1689.69527	6443.5625
1692.95567	6379.8625
1696.2139	6330.1625
1699.46999	6308.5625
1702.72392	6299.0625
1705.97571	6318.7625
1709.22535	6296.0625
1712.47284	6316.4625
1715.71819	6332.8625
1718.96139	6329.5625
1722.20246	6300.4625
1725.44139	6297.6625
1728.67818	6277.3625
1731.91284	6223.9625
1735.14537	6192.1625
1738.37576	6169.3625
1741.60403	6166.0625
1744.83017	6121.8625
1748.05418	6116.2625
1751.27607	6131.1625
1754.49584	6120.0625
1757.71349	6069.2625
1760.92903	6075.2625
1764.14244	6029.5625
1767.35375	6043.0625
1770.56294	6023.4625
1773.77002	6010.1625
1776.97499	6019.0625
1780.17785	5988.9625
1783.37861	5991.3625
1786.57727	5996.6625
1789.77382	5936.7625
1792.96828	5964.4625
1796.16064	5990.5625
1799.3509	5977.3625
1802.53907	5982.1625
1805.72514	5928.5625
1808.90913	5898.5625
1812.09102	5901.8625
1815.27083	5904.0625
1818.44856	5901.0625
1821.6242	5880.8625
1824.79776	5867.4625
1827.96924	5868.4625
1831.13864	5822.6625
1834.30597	5844.7625
1837.47122	5814.6625
1840.6344	5800.3625
1843.7955	5792.1625
1846.95454	5800.0625
1850.11151	5815.6625
1853.26642	5763.4625
1856.41926	5786.9625
1859.57004	5787.6625
1862.71876	5776.3625
1865.86542	5761.9625
1869.01003	5774.3625
1872.15258	5728.8625
1875.29308	5765.5625
1878.43152	5748.6625
1881.56792	5732.0625
1884.70227	5705.0625
1887.83457	5718.5625
1890.96482	5695.9625
1894.09304	5695.4625
1897.21921	5682.7625
1900.34335	5688.6625
1903.46544	5692.5625
1906.58551	5689.8625
1909.70353	5680.4625
1912.81953	5650.7625
1915.93349	5646.3625
1919.04543	5630.0625
1922.15534	5623.5625
1925.26322	5628.4625
1928.36908	5611.3625
1931.47292	5622.1625
1934.57473	5603.6625
1937.67453	5585.8625
1940.77232	5569.5625
1943.86808	5546.7625
1946.96184	5536.7625
1950.05358	5518.0625
1953.14331	5476.2625
1956.23103	5499.6625
1959.31675	5455.2625
1962.40046	5410.5625
1965.48217	5440.6625
1968.56188	5427.8625
1971.63959	5412.0625
1974.7153	5407.6625
1977.78901	5379.1625
1980.86073	5380.6625
1983.93046	5331.4625
1986.99819	5243.9625
1990.06394	5267.4625
1993.1277	5288.8625
1996.18947	5270.9625
1999.24925	5235.0625
2002.30706	5222.3625
2005.36288	5220.4625
2008.41672	5199.7625
2011.46859	5171.7625
2014.51848	5157.4625
2017.56639	5149.0625
2020.61233	5127.3625
2023.6563	5121.2625
2026.6983	5083.1625
2029.73833	5084.2625
2032.7764	5073.9625
2035.8125	5046.9625
2038.84664	5047.2625
2041.87881	5024.2625
2044.90903	5046.4625
2047.93729	5026.4625
2050.96359	4997.2625
2053.98794	5031.4625
2057.01034	5009.4625
2060.03078	4991.3625
2063.04927	4975.3625
2066.06582	4990.7625
2069.08042	4964.2625
2072.09307	4970.0625
2075.10378	4972.0625
2078.11255	4949.0625
2081.11938	4956.2625
2084.12426	4957.7625
2087.12722	4947.5625
2090.12824	4951.9625
2093.12732	4939.1625
2096.12447	4968.4625
2099.11969	4948.7625
2102.11299	4924.5625
2105.10435	4961.0625
2108.09379	4961.5625
2111.08131	4940.4625
2114.0669	4951.8625
2117.05057	4952.0625
2120.03233	4941.8625
2123.01216	4964.3625
2125.99008	4942.5625
2128.96609	4961.3625
2131.94018	4977.3625
2134.91236	4962.6625
2137.88263	4965.7625
2140.851	4962.5625
2143.81746	4981.7625
2146.78201	4968.6625
2149.74466	4964.5625
2152.7054	4973.4625
2155.66425	4963.5625
2158.6212	4957.9625
2161.57625	4915.9625
2164.52941	4918.7625
2167.48067	4930.8625
2170.43004	4931.0625
2173.37752	4953.0625
2176.32311	4920.8625
2179.26681	4927.3625
2182.20863	4943.2625
2185.14856	4936.6625
2188.08661	4922.5625
2191.02278	4952.1625
2193.95707	4902.7625
2196.88948	4891.1625
2199.82001	4908.7625
2202.74867	4879.6625
2205.67545	4908.1625
2208.60037	4897.9625
2211.52341	4879.2625
2214.44458	4878.1625
2217.36388	4863.2625
2220.28132	4855.4625
2223.1969	4821.3625
2226.11061	4811.5625
2229.02246	4810.0625
2231.93245	4794.4625
2234.84058	4784.7625
2237.74686	4770.6625
2240.65128	4772.8625
2243.55385	4776.4625
2246.45456	4752.5625
2249.35343	4764.0625
2252.25044	4750.8625
2255.14561	4750.7625
2258.03893	4737.5625
2260.93041	4738.1625
2263.82004	4711.2625
2266.70783	4716.4625
2269.59378	4692.2625
2272.4779	4661.0625
2275.36017	4670.0625
2278.24061	4651.6625
2281.11922	4621.9625
2283.996	4645.1625
2286.87094	4635.2625
2289.74405	4627.7625
2292.61534	4622.2625
2295.4848	4621.9625
2298.35243	4599.9625
2301.21824	4587.0625
2304.08223	4592.0625
2306.94439	4600.4625
2309.80474	4603.7625
2312.66327	4580.1625
2315.51999	4550.2625
2318.37489	4560.8625
2321.22797	4535.8625
2324.07925	4541.9625
2326.92871	4542.1625
2329.77637	4514.1625
2332.62222	4514.5625
2335.46626	4501.2625
2338.3085	4488.3625
2341.14893	4496.0625
2343.98756	4498.2625
2346.8244	4472.9625
2349.65943	4455.4625
2352.49267	4481.1625
2355.32411	4474.3625
2358.15376	4475.3625
2360.98161	4465.6625
2363.80768	4455.3625
2366.63195	4452.3625
2369.45444	4457.1625
2372.27514	4458.6625
2375.09405	4469.8625
2377.91118	4430.0625
2380.72652	4423.6625
2383.54009	4411.4625
2386.35187	4414.1625
2389.16188	4397.2625
2391.97011	4405.5625
2394.77657	4374.6625
2397.58125	4370.7625
2400.38416	4362.8625
2403.18529	4352.7625
2405.98466	4338.0625
2408.78226	4320.6625
2411.57809	4317.5625
2414.37216	4317.7625
2417.16446	4316.8625
2419.955	4294.2625
2422.74378	4292.7625
2425.5308	4292.6625
2428.31606	4286.8625
2431.09956	4290.4625
2433.88131	4269.2625
2436.6613	4272.0625
2439.43954	4261.9625
2442.21603	4252.6625
2444.99077	4240.2625
2447.76377	4268.2625
2450.53501	4245.0625
2453.30451	4252.2625
2456.07226	4247.7625
2458.83827	4225.4625
2461.60254	4194.3625
2464.36507	4225.7625
2467.12586	4180.3625
2469.88492	4212.2625
2472.64224	4208.5625
2475.39782	4172.6625
2478.15167	4201.3625
2480.90379	4196.9625
2483.65417	4189.4625
2486.40283	4195.7625
2489.14976	4209.2625
2491.89497	4195.0625
2494.63845	4191.6625
2497.3802	4173.0625
2500.12024	4157.2625
2502.85855	4160.3625
2505.59514	4161.0625
2508.33002	4151.9625
2511.06318	4142.3625
2513.79462	4154.6625
2516.52435	4102.6625
2519.25237	4096.2625
2521.97867	4080.6625
2524.70327	4087.3625
2527.42616	4102.3625
2530.14734	4100.2625
2532.86681	4074.6625
2535.58458	4077.0625
2538.30065	4074.3625
2541.01501	4077.3625
2543.72768	4054.8625
2546.43864	4039.1625
2549.14791	4068.0625
2551.85548	4022.5625
2554.56136	4029.4625
2557.26554	4031.5625
2559.96803	4031.3625
2562.66883	4014.6625
2565.36794	3991.7625
2568.06536	3969.8625
2570.7611	3987.9625
2573.45514	3975.0625
2576.14751	3957.0625
2578.83819	3945.2625
2581.52719	3925.8625
2584.21451	3939.2625
2586.90015	3925.9625
2589.58411	3893.2625
2592.2664	3918.2625
2594.94701	3900.9625
2597.62594	3906.4625
2600.30321	3844.6625
2602.9788	3861.7625
2605.65273	3858.9625
2608.32498	3863.8625
2610.99557	3869.7625
2613.66449	3842.7625
2616.33175	3860.4625
2618.99734	3839.0625
2621.66128	3848.7625
2624.32355	3827.4625
2626.98416	3818.9625
2629.64311	3795.6625
2632.30041	3797.0625
2634.95605	3792.0625
2637.61004	3780.7625
2640.26238	3762.5625
2642.91306	3765.3625
2645.56209	3776.7625
2648.20948	3770.9625
2650.85521	3752.9625
2653.4993	3775.2625
2656.14175	3762.7625
2658.78255	3746.9625
2661.42171	3727.2625
2664.05923	3752.1625
2666.6951	3762.0625
2669.32934	3770.7625
2671.96194	3764.4625
2674.59291	3760.6625
2677.22224	3754.9625
2679.84993	3762.2625
2682.476	3752.7625
2685.10043	3732.2625
2687.72324	3733.3625
2690.34441	3734.1625
2692.96396	3720.5625
2695.58188	3738.5625
2698.19818	3739.5625
2700.81285	3725.9625
2703.4259	3701.0625
2706.03733	3681.7625
2708.64714	3694.4625
2711.25533	3711.2625
2713.86191	3721.8625
2716.46687	3713.2625
2719.07021	3705.2625
2721.67194	3711.2625
2724.27206	3726.2625
2726.87057	3710.5625
2729.46747	3693.6625
2732.06276	3714.8625
2734.65644	3677.8625
2737.24852	3692.0625
2739.83899	3663.6625
2742.42786	3681.9625
2745.01513	3687.4625
2747.60079	3656.6625
2750.18486	3645.0625
2752.76733	3657.1625
2755.3482	3639.9625
2757.92747	3652.0625
2760.50515	3625.3625
2763.08123	3622.3625
2765.65573	3612.6625
2768.22863	3618.8625
2770.79994	3599.3625
2773.36967	3585.5625
2775.9378	3597.0625
2778.50435	3585.1625
2781.06932	3580.8625
2783.6327	3564.1625
2786.1945	3576.6625
2788.75471	3551.6625
2791.31335	3550.7625
2793.87041	3558.3625
2796.42589	3521.6625
2798.97979	3523.1625
2801.53212	3512.7625
2804.08288	3527.0625
2806.63206	3514.2625
2809.17967	3497.5625
2811.72571	3499.7625
2814.27018	3494.5625
2816.81308	3478.1625
2819.35442	3454.0625
2821.89419	3465.3625
2824.43239	3440.5625
2826.96904	3476.5625
2829.50412	3450.1625
2832.03763	3441.9625
2834.56959	3455.9625
2837.1	3438.3625
2839.62884	3429.0625
2842.15613	3428.5625
2844.68186	3434.3625
2847.20604	3388.7625
2849.72867	3388.1625
2852.24974	3396.1625
2854.76927	3375.1625
2857.28724	3326.9625
2859.80367	3380.5625
2862.31855	3380.7625
2864.83189	3365.4625
2867.34368	3372.6625
2869.85393	3376.5625
2872.36264	3358.8625
2874.8698	3358.8625
2877.37543	3359.3625
2879.87952	3349.0625
2882.38207	3326.8625
2884.88308	3346.6625
2887.38256	3355.8625
2889.88051	3331.3625
2892.37692	3328.3625
2894.8718	3307.7625
2897.36515	3329.8625
2899.85698	3328.2625
2902.34727	3322.2625
2904.83604	3320.3625
2907.32328	3335.4625
2909.809	3330.3625
2912.29319	3328.4625
2914.77587	3327.2625
2917.25702	3339.0625
2919.73665	3345.3625
2922.21476	3330.1625
2924.69136	3341.1625
2927.16644	3313.1625
2929.64	3320.6625
2932.11205	3306.7625
2934.58258	3310.1625
2937.05161	3296.1625
2939.51912	3300.9625
2941.98513	3303.0625
2944.44962	3300.0625
2946.91261	3268.3625
2949.37409	3281.7625
2951.83407	3267.6625
2954.29254	3270.4625
2956.74951	3266.1625
2959.20498	3251.0625
2961.65895	3246.1625
2964.11142	3241.5625
2966.56239	3233.2625
2969.01186	3242.5625
2971.45984	3226.8625
2973.90632	3207.1625
2976.35131	3222.8625
2978.7948	3218.7625
2981.23681	3216.6625
2983.67732	3213.4625
2986.11635	3189.0625
2988.55388	3179.1625
2990.98993	3192.3625
2993.4245	3170.5625
2995.85758	3160.8625
2998.28917	3152.3625
3000.71928	3137.2625
3003.14791	3127.8625
3005.57506	3117.7625
3008.00073	3107.1625
3010.42493	3048.2625
3012.84764	3094.2625
3015.26888	3100.0625
3017.68865	3089.0625
3020.10694	3055.1625
3022.52376	3056.3625
3024.9391	3056.4625
3027.35298	3036.9625
3029.76539	3016.8625
3032.17632	3026.6625
3034.5858	3032.1625
3036.9938	3029.3625
3039.40034	3015.4625
3041.80542	3006.3625
3044.20903	2988.3625
3046.61118	2986.1625
3049.01187	2999.1625
3051.4111	2971.2625
3053.80888	2967.4625
3056.20519	2953.1625
3058.60005	2939.3625
3060.99345	2965.6625
3063.3854	2931.2625
3065.7759	2925.1625
3068.16494	2906.4625
3070.55254	2902.3625
3072.93868	2921.1625
3075.32338	2904.1625
3077.70662	2887.8625
3080.08842	2868.8625
3082.46878	2873.4625
3084.84769	2885.8625
3087.22515	2873.4625
3089.60118	2875.1625
3091.97576	2863.6625
3094.3489	2874.2625
3096.72061	2873.8625
3099.09087	2851.0625
3101.4597	2863.1625
3103.82709	2845.2625
3106.19305	2835.9625
3108.55757	2839.0625
3110.92066	2825.4625
3113.28232	2841.6625
3115.64255	2837.4625
3118.00134	2825.1625
3120.35871	2799.7625
3122.71466	2774.8625
3125.06917	2785.7625
3127.42226	2777.3625
3129.77393	2774.9625
3132.12417	2772.5625
3134.47299	2770.6625
3136.82039	2746.7625
3139.16636	2726.3625
3141.51092	2751.3625
3143.85406	2757.9625
3146.19579	2743.9625
3148.53609	2746.4625
3150.87499	2733.9625
3153.21246	2728.2625
3155.54853	2740.4625
3157.88318	2744.4625
3160.21642	2749.3625
3162.54826	2736.5625
3164.87868	2745.8625
3167.2077	2700.5625
3169.5353	2720.6625
3171.86151	2730.7625
3174.18631	2723.2625
3176.5097	2701.3625
3178.83169	2718.2625
3181.15228	2699.9625
3183.47147	2682.8625
3185.78926	2665.4625
3188.10565	2685.7625
3190.42065	2660.7625
3192.73424	2669.4625
3195.04645	2653.8625
3197.35725	2636.9625
3199.66667	2647.5625
3201.97469	2639.8625
3204.28132	2632.1625
3206.58656	2641.0625
3208.8904	2654.0625
3211.19287	2641.5625
3213.49394	2626.2625
3215.79363	2614.2625
3218.09193	2636.2625
3220.38884	2622.9625
3222.68438	2618.5625
3224.97853	2601.0625
3227.2713	2628.3625
3229.56269	2592.6625
3231.8527	2606.5625
3234.14133	2591.2625
3236.42858	2589.4625
3238.71446	2575.6625
3240.99896	2582.6625
3243.28209	2565.9625
3245.56384	2568.1625
3247.84423	2556.0625
3250.12324	2558.0625
3252.40088	2554.2625
3254.67715	2539.1625
3256.95205	2536.3625
3259.22558	2550.7625
3261.49775	2547.9625
3263.76855	2541.2625
3266.03799	2540.7625
3268.30606	2545.3625
3270.57277	2549.8625
3272.83812	2515.3625
3275.10211	2513.3625
3277.36474	2529.0625
3279.62601	2512.0625
3281.88593	2487.3625
3284.14448	2481.4625
3286.40168	2495.6625
3288.65753	2477.8625
3290.91202	2475.5625
3293.16516	2469.1625
3295.41695	2478.5625
3297.66738	2478.0625
3299.91647	2444.3625
3302.16421	2452.5625
3304.4106	2405.5625
3306.65564	2420.9625
3308.89933	2371.3625
3311.14169	2366.6625
3313.38269	2354.8625
3315.62236	2328.7625
3317.86068	2324.4625
3320.09766	2307.1625
3322.3333	2275.4625
3324.5676	2266.2625
3326.80056	2237.2625
3329.03219	2213.1625
3331.26248	-0.4375
3333.49143	-0.0375
3335.71905	0.8625
