Data from AgNPs_UA_5uM_CRN_500uM_SU_RamanShift__222__12-06-23-175.txt Node

Date: Thu Aug 04 12:06:23 BST 2022
User: TCL
Spectrometer: QEP01345
Trigger mode: 4
Integration Time (sec): 1.000000E0
Scans to average: 10
Electric dark correction enabled: true
Nonlinearity correction enabled: false
Boxcar width: 0
XAxis mode: Raman Shifts
Number of Pixels in Spectrum: 1044
>>>>>Begin Spectral Data<<<<<
46.04893	-0.3
50.45542	-0.3
54.85868	0.1
59.25871	-1.4
63.6555	-58.2
68.04907	-40.2
72.43941	-71.9
76.82654	-58.5
81.21044	-56.4
85.59113	-48.8
89.96862	-75.7
94.34289	-55.1
98.71396	-76.1
103.08183	-59.5
107.4465	-48.7
111.80798	-56.3
116.16626	-44.4
120.52136	-75
124.87327	-52.7
129.222	-63.8
133.56755	-51.9
137.90993	-64.8
142.24913	-52.1
146.58517	-45.6
150.91804	-41.8
155.24774	-29.7
159.57429	-10.8
163.89768	-8
168.21792	37.6
172.53501	54.6
176.84895	133.2
181.15975	262.9
185.46741	407.5
189.77193	584.8
194.07331	867.9
198.37157	1149.6
202.6667	1421.2
206.9587	1740.6
211.24758	2045.6
215.53334	2366.4
219.81599	2709.7
224.09553	3110.1
228.37195	3548.2
232.64527	3987.4
236.91549	4441.2
241.18261	4787.5
245.44663	5051.1
249.70755	5229.4
253.96539	5355.8
258.22014	5468.5
262.4718	5528.7
266.72039	5586.3
270.96589	5556.6
275.20832	5456
279.44768	5345.4
283.68397	5223.4
287.91719	5158.8
292.14735	5214
296.37445	5373
300.59849	5674.5
304.81948	6024.2
309.03742	6383.3
313.25231	6605.1
317.46415	6561.7
321.67296	6175.8
325.87872	5796.8
330.08145	5578.9
334.28114	5550.2
338.47781	5607.7
342.67145	5734
346.86207	5961.6
351.04966	6333.8
355.23424	6721.8
359.4158	6971.6
363.59435	7002.5
367.76989	6931.8
371.94243	6815.4
376.11196	6695.8
380.27849	6626.9
384.44203	6554.9
388.60257	6518
392.76012	6515.8
396.91468	6641.8
401.06626	6817.6
405.21485	6835.3
409.36047	6663.4
413.50311	6365.2
417.64277	6059.1
421.77947	5849.3
425.9132	5794.2
430.04396	5761.5
434.17176	5807.5
438.2966	5898.8
442.41849	6000.3
446.53742	6099.2
450.6534	6186.4
454.76644	6268.7
458.87653	6274.3
462.98368	6236.5
467.08789	6165.9
471.18916	6092.2
475.2875	5988
479.38291	5865.4
483.4754	5776.8
487.56496	5722
491.6516	5685.4
495.73531	5689.3
499.81612	5710.2
503.89401	5813.1
507.96899	5847.6
512.04106	5947.4
516.11023	6062
520.1765	6116.7
524.23987	6156.1
528.30034	6168.1
532.35792	6084.4
536.41261	6017.2
540.46441	5929.6
544.51333	5876.2
548.55936	5914.2
552.60252	6041.2
556.64279	6144.5
560.6802	6262
564.71473	6401.5
568.7464	6596.8
572.7752	6577.3
576.80114	6269
580.82422	6037.6
584.84444	5930.4
588.86181	5914.7
592.87633	5933.4
596.888	6058.6
600.89682	6428.3
604.9028	7373.7
608.90594	9467
612.90624	11764
616.90371	10932
620.89834	7868.7
624.89015	6570.3
628.87913	6341.8
632.86528	6499.3
636.84862	6673.4
640.82913	6545.1
644.80683	6199
648.78172	6014.9
652.75379	6026.8
656.72306	6267.4
660.68952	6503.9
664.65319	6421.4
668.61405	6176.9
672.57211	6120.3
676.52738	6117.9
680.47986	6022.7
684.42955	5918.5
688.37646	5880.5
692.32058	5867.5
696.26192	5933.2
700.20048	6057.3
704.13626	6083.1
708.06928	6050.1
711.99952	6043.4
715.927	5974.7
719.85171	6020.2
723.77365	6079.2
727.69284	6052.6
731.60928	6027.5
735.52295	5998
739.43388	6045
743.34206	6069.1
747.24749	6076.7
751.15017	6102.3
755.05012	6167.7
758.94733	6540.5
762.8418	7378.5
766.73354	8728.5
770.62254	9703.7
774.50882	9794.1
778.39237	9256.6
782.27321	8351.1
786.15132	7307.4
790.02671	6639.1
793.89938	6265.3
797.76935	6151.8
801.6366	6049
805.50115	6000.1
809.36299	6011.8
813.22213	5998.6
817.07857	5990.5
820.93231	5974.6
824.78336	6007.4
828.63172	6024.5
832.47738	6024.3
836.32036	6026.9
840.16066	6008.4
843.99827	5988.1
847.8332	5972.9
851.66546	5994.3
855.49504	6010.9
859.32195	6014.2
863.1462	6020.4
866.96777	6020
870.78668	6000.8
874.60293	6019.1
878.41652	6043.6
882.22745	6109.4
886.03573	6152.8
889.84136	6146.3
893.64433	6141.9
897.44466	6139.2
901.24235	6113
905.0374	6127.5
908.8298	6063.8
912.61957	6035.2
916.40671	5986.7
920.19121	6051.1
923.97308	6138.3
927.75233	6195.4
931.52895	6233.9
935.30295	6215.9
939.07433	6072.3
942.84309	5971
946.60924	5926.1
950.37278	5875.9
954.13371	5884.2
957.89203	5877.6
961.64774	5899.8
965.40086	5869.3
969.15137	5871.1
972.89929	5911.5
976.64461	5887.5
980.38733	5900
984.12747	5895.8
987.86502	5925.5
991.59999	5943.2
995.33237	5994.4
999.06217	6070.7
1002.78939	6145.2
1006.51404	6269.6
1010.23611	6387.6
1013.95561	6447.8
1017.67255	6455.4
1021.38692	6413.4
1025.09872	6366.6
1028.80796	6260.3
1032.51465	6257.8
1036.21877	6260.6
1039.92035	6288
1043.61937	6341
1047.31584	6405.4
1051.00976	6449.6
1054.70114	6440.5
1058.38998	6422.3
1062.07627	6441.4
1065.76003	6470.1
1069.44126	6523.6
1073.11995	6603.9
1076.79611	6736.6
1080.46974	6891.6
1084.14085	7060.8
1087.80943	7195.5
1091.47549	7222.9
1095.13903	7123.1
1098.80005	7027
1102.45857	6904.2
1106.11456	6885.4
1109.76805	6848.7
1113.41903	6949.8
1117.06751	7107.2
1120.71348	7372.9
1124.35696	7756.7
1127.99793	8042.5
1131.63641	7874.9
1135.2724	7474.9
1138.90589	7169.2
1142.5369	6970.9
1146.16542	6904.5
1149.79145	6764.6
1153.415	6738.4
1157.03607	6725.2
1160.65467	6825.5
1164.27079	7015.7
1167.88443	7288.4
1171.49561	7694.4
1175.10432	8296.6
1178.71056	9215.3
1182.31434	10005.1
1185.91565	10251.9
1189.51451	10106.5
1193.11091	9860.1
1196.70485	9597.5
1200.29634	9351.2
1203.88538	9076.8
1207.47197	8651.3
1211.05612	8175.2
1214.63782	7771.7
1218.21708	7512.7
1221.79391	7378.1
1225.36829	7290.8
1228.94024	7304.4
1232.50976	7292
1236.07685	7328.6
1239.6415	7351.4
1243.20374	7366.8
1246.76355	7390.4
1250.32093	7478.3
1253.8759	7535.6
1257.42845	7708.9
1260.97859	7927.6
1264.52631	8164.9
1268.07163	8312.3
1271.61453	8434.2
1275.15503	8488.7
1278.69312	8488
1282.22882	8552.4
1285.76211	8760.7
1289.29301	8993.9
1292.82151	9258.7
1296.34761	9488
1299.87133	9869.3
1303.39266	10565.3
1306.9116	11696.8
1310.42815	12935.9
1313.94233	13350.5
1317.45412	12582.4
1320.96354	11455
1324.47058	10448.8
1327.97525	9698.8
1331.47754	9294.7
1334.97747	9203.7
1338.47502	9315.8
1341.97022	9680.9
1345.46305	10392.2
1348.95352	11466.5
1352.44163	12765.6
1355.92738	14108.7
1359.41078	15781.3
1362.89183	17288
1366.37053	16646.5
1369.84688	13831
1373.32088	11167.1
1376.79254	9728.4
1380.26186	9080.7
1383.72883	8666.8
1387.19347	8277.7
1390.65578	7914
1394.11575	7668.4
1397.57339	7522.3
1401.0287	7417.9
1404.48168	7388.4
1407.93234	7370
1411.38068	7402.3
1414.82669	7491.3
1418.27039	7553.9
1421.71177	7557.6
1425.15083	7462.7
1428.58758	7384.8
1432.02203	7405.9
1435.45416	7485.8
1438.88399	7486.1
1442.31151	7467.6
1445.73673	7542.4
1449.15965	7601.2
1452.58027	7590.1
1455.9986	7600.9
1459.41463	7624.6
1462.82837	7702.7
1466.23982	7882.9
1469.64898	8082.2
1473.05586	8225.7
1476.46045	8337.3
1479.86276	8402.8
1483.26279	8506.1
1486.66054	8698.7
1490.05602	8980.9
1493.44922	9533
1496.84016	10403.9
1500.22882	11762.9
1503.61521	13505.8
1506.99934	15292.5
1510.38121	16456.7
1513.76081	16349.9
1517.13816	14786
1520.51324	12644.5
1523.88607	10952.1
1527.25665	9982.4
1530.62498	9470.2
1533.99105	9237.2
1537.35488	9138.7
1540.71647	9052.2
1544.07581	8921.7
1547.4329	8761.3
1550.78776	8660.5
1554.14038	8540.5
1557.49077	8535.5
1560.83892	8649.8
1564.18484	8872.2
1567.52853	9206.2
1570.86999	9508.6
1574.20922	9633.8
1577.54624	9561.9
1580.88103	9029
1584.2136	8357.1
1587.54395	8000.9
1590.87208	7926.4
1594.19801	8080.6
1597.52172	8438
1600.84321	8564.2
1604.16251	8429.7
1607.47959	8248.9
1610.79447	8065.4
1614.10715	7791.9
1617.41763	7485.6
1620.7259	7215
1624.03199	7062
1627.33587	6979
1630.63757	7028.7
1633.93707	7272.8
1637.23439	7664.1
1640.52951	8349.2
1643.82246	9334.8
1647.11321	10481.6
1650.40179	11183.8
1653.68819	10867.3
1656.97241	9624
1660.25446	8285.2
1663.53433	7264.7
1666.81203	6676.9
1670.08756	6335.2
1673.36092	6155.7
1676.63211	6014.5
1679.90115	5924.7
1683.16801	5839.6
1686.43272	5737.7
1689.69527	5719
1692.95567	5633.8
1696.2139	5626
1699.46999	5566.4
1702.72392	5574.5
1705.97571	5582.8
1709.22535	5566.3
1712.47284	5595.2
1715.71819	5593.1
1718.96139	5600.5
1722.20246	5573.3
1725.44139	5554.7
1728.67818	5529.7
1731.91284	5488.1
1735.14537	5449.2
1738.37576	5417.4
1741.60403	5395
1744.83017	5367.5
1748.05418	5382
1751.27607	5387.5
1754.49584	5333.7
1757.71349	5304.8
1760.92903	5302.1
1764.14244	5275.6
1767.35375	5264.5
1770.56294	5254.9
1773.77002	5246.8
1776.97499	5246.6
1780.17785	5232.8
1783.37861	5234.3
1786.57727	5227
1789.77382	5160.2
1792.96828	5196.5
1796.16064	5203.9
1799.3509	5174.1
1802.53907	5172.5
1805.72514	5163
1808.90913	5124.2
1812.09102	5131.7
1815.27083	5133
1818.44856	5110.6
1821.6242	5106.8
1824.79776	5081.3
1827.96924	5066.4
1831.13864	5050.4
1834.30597	5066.5
1837.47122	5029.5
1840.6344	5029
1843.7955	5017.1
1846.95454	5013.3
1850.11151	5040.1
1853.26642	4987.3
1856.41926	5012.1
1859.57004	4988.2
1862.71876	4989.9
1865.86542	4977.2
1869.01003	4988.6
1872.15258	4960.5
1875.29308	4975.7
1878.43152	4973.7
1881.56792	4954
1884.70227	4928.7
1887.83457	4932.7
1890.96482	4908.2
1894.09304	4911.8
1897.21921	4902.2
1900.34335	4901.8
1903.46544	4895
1906.58551	4905.7
1909.70353	4896.9
1912.81953	4878.2
1915.93349	4875.5
1919.04543	4853.4
1922.15534	4859
1925.26322	4845.6
1928.36908	4830.4
1931.47292	4836.4
1934.57473	4830.8
1937.67453	4796.8
1940.77232	4778.5
1943.86808	4762.9
1946.96184	4767.1
1950.05358	4742.9
1953.14331	4719.3
1956.23103	4716.9
1959.31675	4686.1
1962.40046	4647.1
1965.48217	4673.4
1968.56188	4652.1
1971.63959	4657.8
1974.7153	4655.8
1977.78901	4638.3
1980.86073	4614.7
1983.93046	4578.5
1986.99819	4490.4
1990.06394	4512.5
1993.1277	4542
1996.18947	4517
1999.24925	4488.6
2002.30706	4512.8
2005.36288	4467
2008.41672	4445.6
2011.46859	4426.5
2014.51848	4417.7
2017.56639	4407.7
2020.61233	4395
2023.6563	4401.2
2026.6983	4347.2
2029.73833	4365.2
2032.7764	4361.5
2035.8125	4317
2038.84664	4320.9
2041.87881	4297.9
2044.90903	4314
2047.93729	4295.1
2050.96359	4272
2053.98794	4281.1
2057.01034	4288.2
2060.03078	4266.5
2063.04927	4252.9
2066.06582	4256.9
2069.08042	4252.5
2072.09307	4249.7
2075.10378	4245.3
2078.11255	4240.8
2081.11938	4236.1
2084.12426	4220.7
2087.12722	4217.4
2090.12824	4208.5
2093.12732	4217.2
2096.12447	4235
2099.11969	4217.8
2102.11299	4206.1
2105.10435	4241.3
2108.09379	4217.9
2111.08131	4217.4
2114.0669	4208
2117.05057	4229.9
2120.03233	4205.6
2123.01216	4232.4
2125.99008	4233.5
2128.96609	4244.5
2131.94018	4244
2134.91236	4222.5
2137.88263	4218.8
2140.851	4229
2143.81746	4257.4
2146.78201	4239.5
2149.74466	4217.8
2152.7054	4236.6
2155.66425	4216.9
2158.6212	4205.8
2161.57625	4175.5
2164.52941	4161
2167.48067	4194.5
2170.43004	4195
2173.37752	4203.6
2176.32311	4182.5
2179.26681	4181
2182.20863	4194.1
2185.14856	4191.6
2188.08661	4187.9
2191.02278	4202.8
2193.95707	4171.6
2196.88948	4141.8
2199.82001	4170.5
2202.74867	4158.6
2205.67545	4154.6
2208.60037	4169.2
2211.52341	4137.2
2214.44458	4117.7
2217.36388	4115.5
2220.28132	4104.4
2223.1969	4091.3
2226.11061	4085
2229.02246	4070.6
2231.93245	4084.1
2234.84058	4057.9
2237.74686	4041.2
2240.65128	4039.8
2243.55385	4032.8
2246.45456	4014
2249.35343	4042.5
2252.25044	4014.4
2255.14561	4033.4
2258.03893	4023.9
2260.93041	4023.9
2263.82004	3988.3
2266.70783	3995.9
2269.59378	3978.8
2272.4779	3957.2
2275.36017	3954.1
2278.24061	3942.3
2281.11922	3918.2
2283.996	3926.3
2286.87094	3914.8
2289.74405	3912.3
2292.61534	3919.3
2295.4848	3897.3
2298.35243	3898.3
2301.21824	3863.6
2304.08223	3882.9
2306.94439	3884.8
2309.80474	3888.2
2312.66327	3881.3
2315.51999	3851.8
2318.37489	3856.8
2321.22797	3841
2324.07925	3839
2326.92871	3833.7
2329.77637	3793.9
2332.62222	3803.5
2335.46626	3791.8
2338.3085	3792
2341.14893	3794.5
2343.98756	3800.9
2346.8244	3776.5
2349.65943	3769.1
2352.49267	3786.6
2355.32411	3786.3
2358.15376	3768.9
2360.98161	3788
2363.80768	3770.6
2366.63195	3768.6
2369.45444	3769
2372.27514	3772.6
2375.09405	3791
2377.91118	3723.7
2380.72652	3741.2
2383.54009	3739.7
2386.35187	3729.5
2389.16188	3710.9
2391.97011	3710.9
2394.77657	3700.7
2397.58125	3699.2
2400.38416	3672.9
2403.18529	3677.5
2405.98466	3652.4
2408.78226	3648.5
2411.57809	3646.4
2414.37216	3626.8
2417.16446	3639.8
2419.955	3619.9
2422.74378	3624.4
2425.5308	3604.7
2428.31606	3619
2431.09956	3617
2433.88131	3598.9
2436.6613	3614.5
2439.43954	3612.1
2442.21603	3583.6
2444.99077	3570.9
2447.76377	3605.7
2450.53501	3577.1
2453.30451	3568
2456.07226	3573.5
2458.83827	3561.3
2461.60254	3541
2464.36507	3564.7
2467.12586	3536.2
2469.88492	3547.6
2472.64224	3554.3
2475.39782	3535.8
2478.15167	3556.2
2480.90379	3527.4
2483.65417	3542.3
2486.40283	3549.2
2489.14976	3549.5
2491.89497	3533.3
2494.63845	3546.6
2497.3802	3531.5
2500.12024	3517.4
2502.85855	3518.2
2505.59514	3517.7
2508.33002	3508.2
2511.06318	3474.9
2513.79462	3488.4
2516.52435	3441.8
2519.25237	3421
2521.97867	3433.1
2524.70327	3438.1
2527.42616	3434.8
2530.14734	3442.3
2532.86681	3411.3
2535.58458	3433.3
2538.30065	3412.2
2541.01501	3426
2543.72768	3408.4
2546.43864	3398.8
2549.14791	3396.7
2551.85548	3374
2554.56136	3361.5
2557.26554	3386.5
2559.96803	3372.2
2562.66883	3374.1
2565.36794	3350.4
2568.06536	3330.3
2570.7611	3351.6
2573.45514	3329
2576.14751	3326.3
2578.83819	3325.9
2581.52719	3300.7
2584.21451	3307
2586.90015	3283.2
2589.58411	3270.4
2592.2664	3271.4
2594.94701	3279.6
2597.62594	3276.4
2600.30321	3204.7
2602.9788	3234.5
2605.65273	3212.6
2608.32498	3226
2610.99557	3231.2
2613.66449	3210.6
2616.33175	3218.5
2618.99734	3235.8
2621.66128	3219
2624.32355	3214.5
2626.98416	3176
2629.64311	3192.4
2632.30041	3190.1
2634.95605	3178.3
2637.61004	3146.5
2640.26238	3142.5
2642.91306	3136.8
2645.56209	3167.5
2648.20948	3147.4
2650.85521	3135.8
2653.4993	3155.1
2656.14175	3134.5
2658.78255	3139.8
2661.42171	3106.3
2664.05923	3136.2
2666.6951	3170.4
2669.32934	3154.8
2671.96194	3155.9
2674.59291	3134.8
2677.22224	3155.5
2679.84993	3145.3
2682.476	3134.5
2685.10043	3120.6
2687.72324	3118.7
2690.34441	3120
2692.96396	3107.4
2695.58188	3136.3
2698.19818	3126.1
2700.81285	3114.7
2703.4259	3103.9
2706.03733	3061.9
2708.64714	3088.6
2711.25533	3097.8
2713.86191	3107.8
2716.46687	3110.3
2719.07021	3108.3
2721.67194	3107.5
2724.27206	3117.3
2726.87057	3114.8
2729.46747	3077.5
2732.06276	3091.2
2734.65644	3086.6
2737.24852	3075.3
2739.83899	3058.5
2742.42786	3072.5
2745.01513	3074.1
2747.60079	3053.7
2750.18486	3049.3
2752.76733	3044.8
2755.3482	3042
2757.92747	3041.1
2760.50515	3031.1
2763.08123	3027.6
2765.65573	3022.2
2768.22863	3010
2770.79994	3000.2
2773.36967	3004
2775.9378	2987
2778.50435	2989.8
2781.06932	2974.9
2783.6327	2957.3
2786.1945	2992.8
2788.75471	2986
2791.31335	2965.1
2793.87041	2968.6
2796.42589	2942.7
2798.97979	2920.5
2801.53212	2937.7
2804.08288	2951.9
2806.63206	2930.8
2809.17967	2914.2
2811.72571	2927.4
2814.27018	2915.4
2816.81308	2906.8
2819.35442	2873.5
2821.89419	2893.6
2824.43239	2884.6
2826.96904	2904.7
2829.50412	2879.6
2832.03763	2889.2
2834.56959	2884.5
2837.1	2867.7
2839.62884	2878.5
2842.15613	2876.6
2844.68186	2871.1
2847.20604	2848.7
2849.72867	2842.2
2852.24974	2849.8
2854.76927	2830.8
2857.28724	2784.2
2859.80367	2841
2862.31855	2858.3
2864.83189	2821.7
2867.34368	2841.6
2869.85393	2849.3
2872.36264	2808.6
2874.8698	2811.9
2877.37543	2824.1
2879.87952	2804.9
2882.38207	2797
2884.88308	2796.4
2887.38256	2803.6
2889.88051	2786.1
2892.37692	2787.1
2894.8718	2774.7
2897.36515	2790.5
2899.85698	2777.2
2902.34727	2769.7
2904.83604	2790.7
2907.32328	2808.4
2909.809	2804
2912.29319	2796.3
2914.77587	2798.9
2917.25702	2809.7
2919.73665	2806.4
2922.21476	2823
2924.69136	2824.6
2927.16644	2794.5
2929.64	2804.3
2932.11205	2788.4
2934.58258	2794.9
2937.05161	2767.8
2939.51912	2782.3
2941.98513	2774.2
2944.44962	2756.1
2946.91261	2735.5
2949.37409	2755.9
2951.83407	2745.6
2954.29254	2742.4
2956.74951	2734.5
2959.20498	2719.7
2961.65895	2726
2964.11142	2709.6
2966.56239	2715
2969.01186	2727.4
2971.45984	2707
2973.90632	2701.1
2976.35131	2717.5
2978.7948	2707.1
2981.23681	2689.2
2983.67732	2689.6
2986.11635	2687.4
2988.55388	2652.9
2990.98993	2663.1
2993.4245	2655.5
2995.85758	2642.8
2998.28917	2641
3000.71928	2622.1
3003.14791	2615.6
3005.57506	2600.9
3008.00073	2592.8
3010.42493	2543.5
3012.84764	2592.8
3015.26888	2601
3017.68865	2586.6
3020.10694	2530.5
3022.52376	2544.6
3024.9391	2569.9
3027.35298	2538.4
3029.76539	2531.2
3032.17632	2539
3034.5858	2533.4
3036.9938	2519
3039.40034	2522.4
3041.80542	2506.4
3044.20903	2507.3
3046.61118	2487.8
3049.01187	2496
3051.4111	2498.9
3053.80888	2472.1
3056.20519	2482.6
3058.60005	2455.6
3060.99345	2491
3063.3854	2452.1
3065.7759	2441
3068.16494	2428.5
3070.55254	2416.5
3072.93868	2443
3075.32338	2417.7
3077.70662	2421.4
3080.08842	2403.5
3082.46878	2397.9
3084.84769	2411.3
3087.22515	2383.9
3089.60118	2402.3
3091.97576	2394.5
3094.3489	2393.6
3096.72061	2388.2
3099.09087	2372.3
3101.4597	2384.2
3103.82709	2386.8
3106.19305	2365.7
3108.55757	2365.2
3110.92066	2351.4
3113.28232	2357.3
3115.64255	2358.6
3118.00134	2350.3
3120.35871	2332.2
3122.71466	2318.5
3125.06917	2330.2
3127.42226	2317.4
3129.77393	2303.3
3132.12417	2313.1
3134.47299	2314.6
3136.82039	2284.8
3139.16636	2263.5
3141.51092	2291.7
3143.85406	2298.9
3146.19579	2288.1
3148.53609	2281
3150.87499	2284.7
3153.21246	2280
3155.54853	2290.3
3157.88318	2280
3160.21642	2292.9
3162.54826	2287.7
3164.87868	2280.5
3167.2077	2248.6
3169.5353	2259.4
3171.86151	2276.2
3174.18631	2264.2
3176.5097	2256.7
3178.83169	2261.9
3181.15228	2252.8
3183.47147	2237.8
3185.78926	2206
3188.10565	2218.6
3190.42065	2206
3192.73424	2211.2
3195.04645	2215.9
3197.35725	2194.3
3199.66667	2214.9
3201.97469	2193
3204.28132	2185.6
3206.58656	2203
3208.8904	2199.5
3211.19287	2186.2
3213.49394	2186.1
3215.79363	2186.9
3218.09193	2183.5
3220.38884	2176.7
3222.68438	2175.5
3224.97853	2167.8
3227.2713	2181.1
3229.56269	2176.8
3231.8527	2173.1
3234.14133	2159
3236.42858	2155.1
3238.71446	2127
3240.99896	2162.7
3243.28209	2126.4
3245.56384	2132.7
3247.84423	2129.8
3250.12324	2137.5
3252.40088	2129
3254.67715	2123.5
3256.95205	2115.2
3259.22558	2107.2
3261.49775	2125.5
3263.76855	2104.8
3266.03799	2113.6
3268.30606	2111.4
3270.57277	2113.2
3272.83812	2085.1
3275.10211	2095.4
3277.36474	2097.4
3279.62601	2095.4
3281.88593	2071.5
3284.14448	2046
3286.40168	2072.6
3288.65753	2061.7
3290.91202	2080.2
3293.16516	2047.4
3295.41695	2067.8
3297.66738	2067.5
3299.91647	2040
3302.16421	2045.8
3304.4106	2003.8
3306.65564	2025.4
3308.89933	1979.7
3311.14169	1980.5
3313.38269	1976.8
3315.62236	1945.1
3317.86068	1937.7
3320.09766	1937.2
3322.3333	1904.7
3324.5676	1883.4
3326.80056	1860.6
3329.03219	1851.9
3331.26248	-0.1
3333.49143	-0.2
3335.71905	1.2
