Data from AgNPs_UA_10uM_CRN_500uM_SU_RamanShift__23__13-09-10-258.txt Node

Date: Thu Aug 04 13:09:10 BST 2022
User: TCL
Spectrometer: QEP01345
Trigger mode: 4
Integration Time (sec): 1.000000E0
Scans to average: 10
Electric dark correction enabled: true
Nonlinearity correction enabled: false
Boxcar width: 0
XAxis mode: Raman Shifts
Number of Pixels in Spectrum: 1044
>>>>>Begin Spectral Data<<<<<
46.04893	-0.4375
50.45542	-0.4375
54.85868	0.8625
59.25871	-1.4375
63.6555	17.1625
68.04907	18.5625
72.43941	19.5625
76.82654	16.1625
81.21044	20.1625
85.59113	21.1625
89.96862	20.9625
94.34289	21.9625
98.71396	21.7625
103.08183	25.4625
107.4465	24.8625
111.80798	24.2625
116.16626	25.4625
120.52136	29.6625
124.87327	28.5625
129.222	31.2625
133.56755	31.5625
137.90993	35.5625
142.24913	38.0625
146.58517	43.3625
150.91804	50.9625
155.24774	62.1625
159.57429	76.8625
163.89768	102.2625
168.21792	137.3625
172.53501	186.8625
176.84895	261.1625
181.15975	374.2625
185.46741	527.8625
189.77193	730.6625
194.07331	989.4625
198.37157	1277.9625
202.6667	1586.4625
206.9587	1899.5625
211.24758	2199.1625
215.53334	2516.8625
219.81599	2859.8625
224.09553	3233.0625
228.37195	3648.3625
232.64527	4100.4625
236.91549	4541.7625
241.18261	4933.4625
245.44663	5230.1625
249.70755	5478.8625
253.96539	5670.9625
258.22014	5847.1625
262.4718	5978.7625
266.72039	6074.3625
270.96589	6071.2625
275.20832	6030.8625
279.44768	5928.4625
283.68397	5841.6625
287.91719	5795.4625
292.14735	5815.3625
296.37445	5881.5625
300.59849	6089.5625
304.81948	6337.7625
309.03742	6587.9625
313.25231	6700.1625
317.46415	6666.1625
321.67296	6422.8625
325.87872	6130.4625
330.08145	6000.9625
334.28114	5964.7625
338.47781	6018.1625
342.67145	6135.6625
346.86207	6334.9625
351.04966	6609.0625
355.23424	6901.6625
359.4158	7074.1625
363.59435	7150.0625
367.76989	7110.2625
371.94243	7079.4625
376.11196	7044.7625
380.27849	7010.6625
384.44203	7041.8625
388.60257	7055.9625
392.76012	7107.0625
396.91468	7208.2625
401.06626	7352.6625
405.21485	7386.9625
409.36047	7280.1625
413.50311	7064.2625
417.64277	6856.0625
421.77947	6727.7625
425.9132	6648.4625
430.04396	6615.9625
434.17176	6646.1625
438.2966	6711.7625
442.41849	6797.6625
446.53742	6939.7625
450.6534	7074.1625
454.76644	7153.1625
458.87653	7194.4625
462.98368	7229.7625
467.08789	7181.5625
471.18916	7052.9625
475.2875	6947.3625
479.38291	6812.2625
483.4754	6716.8625
487.56496	6674.2625
491.6516	6660.0625
495.73531	6675.8625
499.81612	6689.9625
503.89401	6778.0625
507.96899	6826.0625
512.04106	6885.9625
516.11023	6913.3625
520.1765	6938.9625
524.23987	6934.3625
528.30034	6936.6625
532.35792	6923.4625
536.41261	6854.5625
540.46441	6780.1625
544.51333	6766.2625
548.55936	6803.4625
552.60252	6890.5625
556.64279	7004.0625
560.6802	7092.3625
564.71473	7185.6625
568.7464	7302.6625
572.7752	7251.9625
576.80114	7016.1625
580.82422	6874.3625
584.84444	6811.9625
588.86181	6765.7625
592.87633	6807.3625
596.888	6937.3625
600.89682	7268.2625
604.9028	8132.2625
608.90594	9869.8625
612.90624	11627.7625
616.90371	10741.0625
620.89834	8335.1625
624.89015	7329.4625
628.87913	7238.2625
632.86528	7398.3625
636.84862	7507.9625
640.82913	7357.4625
644.80683	7048.4625
648.78172	6898.7625
652.75379	6922.6625
656.72306	7117.9625
660.68952	7335.8625
664.65319	7288.4625
668.61405	7190.4625
672.57211	7231.2625
676.52738	7229.4625
680.47986	7072.4625
684.42955	6909.6625
688.37646	6849.4625
692.32058	6912.8625
696.26192	7022.5625
700.20048	7166.2625
704.13626	7197.5625
708.06928	7133.4625
711.99952	7050.7625
715.927	7027.2625
719.85171	7066.4625
723.77365	7079.7625
727.69284	7043.1625
731.60928	7000.3625
735.52295	7001.1625
739.43388	7011.0625
743.34206	7047.6625
747.24749	7035.6625
751.15017	7032.3625
755.05012	7096.5625
758.94733	7370.7625
762.8418	8054.1625
766.73354	9054.8625
770.62254	9782.1625
774.50882	9920.9625
778.39237	9608.4625
782.27321	8987.9625
786.15132	8213.9625
790.02671	7626.7625
793.89938	7324.6625
797.76935	7175.5625
801.6366	7062.8625
805.50115	7020.6625
809.36299	7011.8625
813.22213	6983.5625
817.07857	6999.9625
820.93231	6990.8625
824.78336	7002.3625
828.63172	7040.6625
832.47738	7034.9625
836.32036	7033.7625
840.16066	7006.7625
843.99827	6965.2625
847.8332	6993.4625
851.66546	7003.1625
855.49504	7021.7625
859.32195	7017.2625
863.1462	6999.0625
866.96777	6992.1625
870.78668	7009.0625
874.60293	7015.8625
878.41652	7083.6625
882.22745	7146.4625
886.03573	7165.1625
889.84136	7151.5625
893.64433	7113.0625
897.44466	7111.1625
901.24235	7122.4625
905.0374	7117.0625
908.8298	7079.5625
912.61957	7052.9625
916.40671	7057.8625
920.19121	7064.9625
923.97308	7101.2625
927.75233	7173.5625
931.52895	7227.4625
935.30295	7182.0625
939.07433	7071.4625
942.84309	6982.6625
946.60924	6971.2625
950.37278	6931.8625
954.13371	6944.2625
957.89203	6940.1625
961.64774	6949.2625
965.40086	6929.2625
969.15137	6947.2625
972.89929	6932.0625
976.64461	6930.6625
980.38733	6927.9625
984.12747	6953.7625
987.86502	6967.0625
991.59999	7015.3625
995.33237	7033.9625
999.06217	7095.0625
1002.78939	7173.7625
1006.51404	7311.7625
1010.23611	7444.3625
1013.95561	7477.4625
1017.67255	7506.4625
1021.38692	7508.6625
1025.09872	7418.6625
1028.80796	7368.6625
1032.51465	7310.8625
1036.21877	7340.6625
1039.92035	7375.2625
1043.61937	7415.6625
1047.31584	7430.6625
1051.00976	7460.7625
1054.70114	7486.8625
1058.38998	7526.2625
1062.07627	7536.7625
1065.76003	7579.3625
1069.44126	7668.2625
1073.11995	7833.0625
1076.79611	7983.8625
1080.46974	8091.5625
1084.14085	8182.1625
1087.80943	8274.1625
1091.47549	8304.1625
1095.13903	8325.1625
1098.80005	8363.8625
1102.45857	8436.8625
1106.11456	8404.6625
1109.76805	8245.2625
1113.41903	8222.5625
1117.06751	8320.5625
1120.71348	8457.4625
1124.35696	8629.9625
1127.99793	8765.3625
1131.63641	8627.9625
1135.2724	8341.0625
1138.90589	8142.2625
1142.5369	7976.0625
1146.16542	7935.2625
1149.79145	7880.6625
1153.415	7778.9625
1157.03607	7758.9625
1160.65467	7829.1625
1164.27079	7967.1625
1167.88443	8236.9625
1171.49561	8584.6625
1175.10432	9138.7625
1178.71056	9872.5625
1182.31434	10469.6625
1185.91565	10701.5625
1189.51451	10663.9625
1193.11091	10584.5625
1196.70485	10411.9625
1200.29634	10222.2625
1203.88538	9975.8625
1207.47197	9598.1625
1211.05612	9212.1625
1214.63782	8843.3625
1218.21708	8538.7625
1221.79391	8384.7625
1225.36829	8309.2625
1228.94024	8284.3625
1232.50976	8304.5625
1236.07685	8323.8625
1239.6415	8416.7625
1243.20374	8425.4625
1246.76355	8479.0625
1250.32093	8559.5625
1253.8759	8653.9625
1257.42845	8846.1625
1260.97859	9095.5625
1264.52631	9326.9625
1268.07163	9499.1625
1271.61453	9577.4625
1275.15503	9584.1625
1278.69312	9543.5625
1282.22882	9559.1625
1285.76211	9630.7625
1289.29301	9819.5625
1292.82151	9996.2625
1296.34761	10176.9625
1299.87133	10486.1625
1303.39266	11016.4625
1306.9116	11875.3625
1310.42815	12763.9625
1313.94233	13061.6625
1317.45412	12576.6625
1320.96354	11841.3625
1324.47058	11157.4625
1327.97525	10607.0625
1331.47754	10286.3625
1334.97747	10182.5625
1338.47502	10300.2625
1341.97022	10654.0625
1345.46305	11348.0625
1348.95352	12362.4625
1352.44163	13462.2625
1355.92738	14549.1625
1359.41078	15655.5625
1362.89183	16499.5625
1366.37053	15726.2625
1369.84688	13519.1625
1373.32088	11480.7625
1376.79254	10376.4625
1380.26186	9841.3625
1383.72883	9483.0625
1387.19347	9179.7625
1390.65578	8867.7625
1394.11575	8597.1625
1397.57339	8415.2625
1401.0287	8323.3625
1404.48168	8321.9625
1407.93234	8370.0625
1411.38068	8488.1625
1414.82669	8581.0625
1418.27039	8629.2625
1421.71177	8642.9625
1425.15083	8537.2625
1428.58758	8442.5625
1432.02203	8442.3625
1435.45416	8443.5625
1438.88399	8423.8625
1442.31151	8426.5625
1445.73673	8455.1625
1449.15965	8478.4625
1452.58027	8454.8625
1455.9986	8448.8625
1459.41463	8461.6625
1462.82837	8534.0625
1466.23982	8702.7625
1469.64898	8896.2625
1473.05586	9021.0625
1476.46045	9143.5625
1479.86276	9260.9625
1483.26279	9371.1625
1486.66054	9552.8625
1490.05602	9855.4625
1493.44922	10296.0625
1496.84016	11028.4625
1500.22882	12070.7625
1503.61521	13289.1625
1506.99934	14519.2625
1510.38121	15221.2625
1513.76081	15022.8625
1517.13816	13851.5625
1520.51324	12336.0625
1523.88607	11133.7625
1527.25665	10393.3625
1530.62498	10027.1625
1533.99105	9891.5625
1537.35488	9806.0625
1540.71647	9699.7625
1544.07581	9587.9625
1547.4329	9495.7625
1550.78776	9369.2625
1554.14038	9261.6625
1557.49077	9225.4625
1560.83892	9307.8625
1564.18484	9544.4625
1567.52853	9804.0625
1570.86999	9996.1625
1574.20922	10071.2625
1577.54624	9992.3625
1580.88103	9573.1625
1584.2136	9053.2625
1587.54395	8777.1625
1590.87208	8740.9625
1594.19801	8944.1625
1597.52172	9239.5625
1600.84321	9351.0625
1604.16251	9282.1625
1607.47959	9136.1625
1610.79447	8926.5625
1614.10715	8632.5625
1617.41763	8292.1625
1620.7259	8028.2625
1624.03199	7871.1625
1627.33587	7808.4625
1630.63757	7835.9625
1633.93707	8054.4625
1637.23439	8479.6625
1640.52951	9109.8625
1643.82246	10050.2625
1647.11321	11021.1625
1650.40179	11553.2625
1653.68819	11162.4625
1656.97241	10009.3625
1660.25446	8786.9625
1663.53433	7965.1625
1666.81203	7470.7625
1670.08756	7174.6625
1673.36092	6992.5625
1676.63211	6892.0625
1679.90115	6788.7625
1683.16801	6715.9625
1686.43272	6653.8625
1689.69527	6620.2625
1692.95567	6578.6625
1696.2139	6561.8625
1699.46999	6528.1625
1702.72392	6518.5625
1705.97571	6525.8625
1709.22535	6506.0625
1712.47284	6527.3625
1715.71819	6521.7625
1718.96139	6532.6625
1722.20246	6500.5625
1725.44139	6485.3625
1728.67818	6438.5625
1731.91284	6395.3625
1735.14537	6378.6625
1738.37576	6358.1625
1741.60403	6337.8625
1744.83017	6294.4625
1748.05418	6302.4625
1751.27607	6274.2625
1754.49584	6251.4625
1757.71349	6252.0625
1760.92903	6241.0625
1764.14244	6225.5625
1767.35375	6218.3625
1770.56294	6196.1625
1773.77002	6195.6625
1776.97499	6164.3625
1780.17785	6137.5625
1783.37861	6119.4625
1786.57727	6124.9625
1789.77382	6113.7625
1792.96828	6093.8625
1796.16064	6097.4625
1799.3509	6069.7625
1802.53907	6066.0625
1805.72514	6056.3625
1808.90913	6037.6625
1812.09102	6025.9625
1815.27083	6002.6625
1818.44856	5981.3625
1821.6242	5955.1625
1824.79776	5954.5625
1827.96924	5945.7625
1831.13864	5924.8625
1834.30597	5947.2625
1837.47122	5901.2625
1840.6344	5893.6625
1843.7955	5886.5625
1846.95454	5908.0625
1850.11151	5890.9625
1853.26642	5876.6625
1856.41926	5879.1625
1859.57004	5883.7625
1862.71876	5881.1625
1865.86542	5862.1625
1869.01003	5872.1625
1872.15258	5850.3625
1875.29308	5826.6625
1878.43152	5824.8625
1881.56792	5834.4625
1884.70227	5815.3625
1887.83457	5798.3625
1890.96482	5775.2625
1894.09304	5775.2625
1897.21921	5751.5625
1900.34335	5752.4625
1903.46544	5757.3625
1906.58551	5751.1625
1909.70353	5733.8625
1912.81953	5738.1625
1915.93349	5711.8625
1919.04543	5701.0625
1922.15534	5684.8625
1925.26322	5676.0625
1928.36908	5677.7625
1931.47292	5639.4625
1934.57473	5641.6625
1937.67453	5632.9625
1940.77232	5619.0625
1943.86808	5604.3625
1946.96184	5581.8625
1950.05358	5550.1625
1953.14331	5547.7625
1956.23103	5530.3625
1959.31675	5501.9625
1962.40046	5486.9625
1965.48217	5468.6625
1968.56188	5447.5625
1971.63959	5447.0625
1974.7153	5440.4625
1977.78901	5443.6625
1980.86073	5414.7625
1983.93046	5388.4625
1986.99819	5355.8625
1990.06394	5357.2625
1993.1277	5339.9625
1996.18947	5296.9625
1999.24925	5279.8625
2002.30706	5255.9625
2005.36288	5233.4625
2008.41672	5222.9625
2011.46859	5213.5625
2014.51848	5193.1625
2017.56639	5161.8625
2020.61233	5156.8625
2023.6563	5139.0625
2026.6983	5125.1625
2029.73833	5110.7625
2032.7764	5091.4625
2035.8125	5079.0625
2038.84664	5080.5625
2041.87881	5063.7625
2044.90903	5036.0625
2047.93729	5045.3625
2050.96359	5042.4625
2053.98794	5011.5625
2057.01034	5000.4625
2060.03078	5010.3625
2063.04927	5004.4625
2066.06582	4980.6625
2069.08042	4985.9625
2072.09307	4980.6625
2075.10378	4969.8625
2078.11255	4963.4625
2081.11938	4952.3625
2084.12426	4948.4625
2087.12722	4935.7625
2090.12824	4940.7625
2093.12732	4962.6625
2096.12447	4950.6625
2099.11969	4956.0625
2102.11299	4945.6625
2105.10435	4945.3625
2108.09379	4946.1625
2111.08131	4938.6625
2114.0669	4934.9625
2117.05057	4950.9625
2120.03233	4958.3625
2123.01216	4963.3625
2125.99008	4950.2625
2128.96609	4958.5625
2131.94018	4961.4625
2134.91236	4948.0625
2137.88263	4939.5625
2140.851	4947.7625
2143.81746	4929.8625
2146.78201	4933.1625
2149.74466	4942.3625
2152.7054	4961.7625
2155.66425	4925.6625
2158.6212	4934.2625
2161.57625	4909.6625
2164.52941	4919.3625
2167.48067	4918.5625
2170.43004	4902.9625
2173.37752	4906.5625
2176.32311	4910.2625
2179.26681	4893.1625
2182.20863	4906.7625
2185.14856	4902.7625
2188.08661	4906.6625
2191.02278	4902.0625
2193.95707	4907.0625
2196.88948	4898.9625
2199.82001	4879.0625
2202.74867	4877.1625
2205.67545	4874.9625
2208.60037	4864.3625
2211.52341	4857.7625
2214.44458	4830.5625
2217.36388	4816.7625
2220.28132	4803.7625
2223.1969	4800.8625
2226.11061	4799.0625
2229.02246	4753.2625
2231.93245	4767.1625
2234.84058	4755.4625
2237.74686	4736.0625
2240.65128	4739.6625
2243.55385	4719.5625
2246.45456	4726.8625
2249.35343	4705.9625
2252.25044	4705.8625
2255.14561	4711.4625
2258.03893	4717.8625
2260.93041	4688.2625
2263.82004	4703.6625
2266.70783	4684.5625
2269.59378	4672.4625
2272.4779	4671.8625
2275.36017	4622.7625
2278.24061	4622.0625
2281.11922	4612.8625
2283.996	4586.2625
2286.87094	4591.5625
2289.74405	4586.2625
2292.61534	4589.7625
2295.4848	4551.4625
2298.35243	4556.9625
2301.21824	4537.0625
2304.08223	4543.4625
2306.94439	4537.9625
2309.80474	4548.4625
2312.66327	4532.7625
2315.51999	4514.9625
2318.37489	4511.1625
2321.22797	4508.8625
2324.07925	4493.3625
2326.92871	4489.2625
2329.77637	4485.5625
2332.62222	4463.1625
2335.46626	4456.1625
2338.3085	4454.1625
2341.14893	4442.9625
2343.98756	4444.8625
2346.8244	4436.6625
2349.65943	4419.7625
2352.49267	4425.6625
2355.32411	4412.8625
2358.15376	4411.1625
2360.98161	4415.1625
2363.80768	4421.0625
2366.63195	4406.5625
2369.45444	4405.7625
2372.27514	4410.6625
2375.09405	4407.0625
2377.91118	4379.0625
2380.72652	4377.4625
2383.54009	4365.4625
2386.35187	4360.0625
2389.16188	4348.3625
2391.97011	4319.2625
2394.77657	4312.3625
2397.58125	4289.7625
2400.38416	4302.9625
2403.18529	4276.2625
2405.98466	4295.6625
2408.78226	4268.0625
2411.57809	4260.0625
2414.37216	4245.5625
2417.16446	4254.2625
2419.955	4238.9625
2422.74378	4232.8625
2425.5308	4249.1625
2428.31606	4246.6625
2431.09956	4233.7625
2433.88131	4203.2625
2436.6613	4221.9625
2439.43954	4208.3625
2442.21603	4206.5625
2444.99077	4224.3625
2447.76377	4206.5625
2450.53501	4209.3625
2453.30451	4200.6625
2456.07226	4197.5625
2458.83827	4188.0625
2461.60254	4172.9625
2464.36507	4159.5625
2467.12586	4149.0625
2469.88492	4158.9625
2472.64224	4156.3625
2475.39782	4141.7625
2478.15167	4148.3625
2480.90379	4140.5625
2483.65417	4130.7625
2486.40283	4138.4625
2489.14976	4133.8625
2491.89497	4128.5625
2494.63845	4142.0625
2497.3802	4129.6625
2500.12024	4112.0625
2502.85855	4101.3625
2505.59514	4088.6625
2508.33002	4084.5625
2511.06318	4082.0625
2513.79462	4063.2625
2516.52435	4061.7625
2519.25237	4029.0625
2521.97867	4039.8625
2524.70327	4033.5625
2527.42616	4027.2625
2530.14734	4009.3625
2532.86681	4003.6625
2535.58458	4014.6625
2538.30065	4013.1625
2541.01501	4009.5625
2543.72768	3997.6625
2546.43864	3991.4625
2549.14791	3985.6625
2551.85548	3970.6625
2554.56136	3975.7625
2557.26554	3961.2625
2559.96803	3949.6625
2562.66883	3948.1625
2565.36794	3932.6625
2568.06536	3907.8625
2570.7611	3892.4625
2573.45514	3897.5625
2576.14751	3892.8625
2578.83819	3890.1625
2581.52719	3861.0625
2584.21451	3878.3625
2586.90015	3863.1625
2589.58411	3843.7625
2592.2664	3852.9625
2594.94701	3836.0625
2597.62594	3835.8625
2600.30321	3831.8625
2602.9788	3830.1625
2605.65273	3801.9625
2608.32498	3820.1625
2610.99557	3793.1625
2613.66449	3790.5625
2616.33175	3797.1625
2618.99734	3776.5625
2621.66128	3779.3625
2624.32355	3762.1625
2626.98416	3765.5625
2629.64311	3735.8625
2632.30041	3735.8625
2634.95605	3726.6625
2637.61004	3724.1625
2640.26238	3716.0625
2642.91306	3703.0625
2645.56209	3709.3625
2648.20948	3694.1625
2650.85521	3689.8625
2653.4993	3686.6625
2656.14175	3683.8625
2658.78255	3687.8625
2661.42171	3676.8625
2664.05923	3688.4625
2666.6951	3679.6625
2669.32934	3690.0625
2671.96194	3688.2625
2674.59291	3695.5625
2677.22224	3689.8625
2679.84993	3689.3625
2682.476	3681.3625
2685.10043	3686.2625
2687.72324	3692.1625
2690.34441	3677.9625
2692.96396	3671.8625
2695.58188	3675.4625
2698.19818	3669.5625
2700.81285	3662.3625
2703.4259	3658.3625
2706.03733	3652.8625
2708.64714	3656.7625
2711.25533	3642.1625
2713.86191	3647.0625
2716.46687	3664.2625
2719.07021	3636.4625
2721.67194	3660.8625
2724.27206	3638.0625
2726.87057	3659.6625
2729.46747	3647.2625
2732.06276	3628.5625
2734.65644	3630.4625
2737.24852	3633.5625
2739.83899	3618.2625
2742.42786	3629.6625
2745.01513	3606.8625
2747.60079	3587.4625
2750.18486	3588.9625
2752.76733	3589.5625
2755.3482	3575.1625
2757.92747	3561.8625
2760.50515	3576.5625
2763.08123	3560.3625
2765.65573	3556.5625
2768.22863	3537.0625
2770.79994	3525.0625
2773.36967	3528.9625
2775.9378	3515.6625
2778.50435	3514.3625
2781.06932	3499.2625
2783.6327	3498.2625
2786.1945	3507.2625
2788.75471	3483.1625
2791.31335	3486.8625
2793.87041	3488.7625
2796.42589	3455.2625
2798.97979	3457.6625
2801.53212	3448.6625
2804.08288	3446.1625
2806.63206	3434.9625
2809.17967	3435.0625
2811.72571	3423.6625
2814.27018	3425.7625
2816.81308	3421.4625
2819.35442	3406.4625
2821.89419	3406.4625
2824.43239	3398.8625
2826.96904	3388.5625
2829.50412	3380.0625
2832.03763	3366.4625
2834.56959	3366.9625
2837.1	3349.4625
2839.62884	3347.8625
2842.15613	3343.4625
2844.68186	3340.7625
2847.20604	3343.2625
2849.72867	3339.5625
2852.24974	3316.0625
2854.76927	3308.7625
2857.28724	3295.8625
2859.80367	3303.6625
2862.31855	3301.1625
2864.83189	3300.8625
2867.34368	3298.4625
2869.85393	3301.5625
2872.36264	3275.5625
2874.8698	3289.2625
2877.37543	3290.5625
2879.87952	3283.3625
2882.38207	3279.3625
2884.88308	3255.3625
2887.38256	3268.4625
2889.88051	3262.6625
2892.37692	3253.5625
2894.8718	3246.9625
2897.36515	3268.3625
2899.85698	3238.9625
2902.34727	3247.3625
2904.83604	3253.3625
2907.32328	3254.7625
2909.809	3274.3625
2912.29319	3267.2625
2914.77587	3266.3625
2917.25702	3274.5625
2919.73665	3268.8625
2922.21476	3274.0625
2924.69136	3255.4625
2927.16644	3247.7625
2929.64	3240.9625
2932.11205	3236.8625
2934.58258	3222.8625
2937.05161	3222.6625
2939.51912	3216.5625
2941.98513	3211.7625
2944.44962	3199.4625
2946.91261	3187.8625
2949.37409	3199.1625
2951.83407	3185.4625
2954.29254	3185.8625
2956.74951	3184.3625
2959.20498	3192.8625
2961.65895	3179.1625
2964.11142	3170.8625
2966.56239	3166.5625
2969.01186	3171.1625
2971.45984	3159.8625
2973.90632	3160.3625
2976.35131	3156.8625
2978.7948	3149.0625
2981.23681	3143.2625
2983.67732	3125.9625
2986.11635	3123.0625
2988.55388	3126.1625
2990.98993	3110.7625
2993.4245	3116.4625
2995.85758	3096.3625
2998.28917	3092.8625
3000.71928	3081.4625
3003.14791	3064.3625
3005.57506	3059.6625
3008.00073	3055.5625
3010.42493	3032.6625
3012.84764	3040.2625
3015.26888	3032.3625
3017.68865	3036.8625
3020.10694	3025.1625
3022.52376	3006.6625
3024.9391	2992.4625
3027.35298	2983.2625
3029.76539	2981.3625
3032.17632	2986.0625
3034.5858	2961.4625
3036.9938	2952.3625
3039.40034	2959.9625
3041.80542	2944.4625
3044.20903	2941.2625
3046.61118	2923.9625
3049.01187	2926.9625
3051.4111	2926.5625
3053.80888	2914.1625
3056.20519	2904.6625
3058.60005	2893.6625
3060.99345	2901.2625
3063.3854	2889.2625
3065.7759	2880.8625
3068.16494	2883.1625
3070.55254	2859.1625
3072.93868	2852.0625
3075.32338	2851.2625
3077.70662	2829.7625
3080.08842	2830.5625
3082.46878	2835.9625
3084.84769	2813.9625
3087.22515	2804.8625
3089.60118	2802.7625
3091.97576	2818.3625
3094.3489	2809.8625
3096.72061	2795.1625
3099.09087	2803.5625
3101.4597	2791.1625
3103.82709	2796.0625
3106.19305	2783.7625
3108.55757	2786.8625
3110.92066	2773.5625
3113.28232	2776.7625
3115.64255	2763.8625
3118.00134	2750.8625
3120.35871	2752.4625
3122.71466	2753.5625
3125.06917	2745.2625
3127.42226	2735.0625
3129.77393	2725.6625
3132.12417	2726.1625
3134.47299	2721.3625
3136.82039	2708.0625
3139.16636	2717.2625
3141.51092	2717.1625
3143.85406	2715.3625
3146.19579	2702.4625
3148.53609	2692.8625
3150.87499	2693.5625
3153.21246	2692.2625
3155.54853	2689.6625
3157.88318	2683.0625
3160.21642	2685.7625
3162.54826	2674.9625
3164.87868	2688.0625
3167.2077	2689.2625
3169.5353	2667.3625
3171.86151	2662.3625
3174.18631	2663.9625
3176.5097	2651.9625
3178.83169	2659.0625
3181.15228	2645.3625
3183.47147	2635.7625
3185.78926	2635.0625
3188.10565	2611.3625
3190.42065	2604.3625
3192.73424	2609.8625
3195.04645	2613.8625
3197.35725	2605.0625
3199.66667	2604.9625
3201.97469	2598.1625
3204.28132	2596.9625
3206.58656	2604.0625
3208.8904	2602.7625
3211.19287	2603.6625
3213.49394	2607.2625
3215.79363	2598.5625
3218.09193	2598.8625
3220.38884	2592.7625
3222.68438	2590.6625
3224.97853	2594.9625
3227.2713	2582.4625
3229.56269	2569.4625
3231.8527	2575.0625
3234.14133	2561.0625
3236.42858	2562.7625
3238.71446	2551.0625
3240.99896	2543.8625
3243.28209	2537.0625
3245.56384	2537.4625
3247.84423	2521.1625
3250.12324	2511.3625
3252.40088	2510.0625
3254.67715	2508.0625
3256.95205	2510.5625
3259.22558	2502.4625
3261.49775	2508.5625
3263.76855	2496.5625
3266.03799	2495.5625
3268.30606	2508.3625
3270.57277	2498.3625
3272.83812	2488.9625
3275.10211	2484.3625
3277.36474	2463.0625
3279.62601	2478.5625
3281.88593	2467.2625
3284.14448	2454.1625
3286.40168	2448.8625
3288.65753	2461.1625
3290.91202	2442.3625
3293.16516	2453.5625
3295.41695	2449.7625
3297.66738	2440.6625
3299.91647	2430.0625
3302.16421	2417.8625
3304.4106	2385.2625
3306.65564	2376.3625
3308.89933	2353.7625
3311.14169	2335.5625
3313.38269	2317.3625
3315.62236	2290.3625
3317.86068	2286.8625
3320.09766	2256.3625
3322.3333	2247.5625
3324.5676	2230.5625
3326.80056	2197.2625
3329.03219	2165.0625
3331.26248	1.4625
3333.49143	-0.6375
3335.71905	0.5625
