EXPLAIN
TAG	CHRONOA
TITLE	LABEL	Chronoamperometry Scan	Test Identifier
DATE	LABEL	5/7/2022	Date
TIME	LABEL	12:10:51	Time
NOTES	NOTES	1	Notes...
	
PSTAT	PSTAT	IFC1010-21051	Potentiostat
VPRESTEP	POTEN	2.50000E-001	F	Pre-step Voltage (V)
TPRESTEP	QUANT	5.00000E-001	Pre-step Delay Time (s)
VSTEP1	POTEN	3.00000E-001	F	Step 1 Voltage (V)
TSTEP1	QUANT	3.00000E+002	Step 1 Time (s)
VSTEP2	POTEN	3.50000E-001	F	Step 2 Voltage (V)
TSTEP2	QUANT	1.00000E+000	Step 2 Time (s)
SAMPLETIME	QUANT	1.00000E-002	Sample Period (s)
DECIMATE	TOGGLE	T	Decimate
ILIMIT	QUANT	1.00000E+000	Limit I (mA/cm^2)
IMODE	SELECTOR	1	I/E Range Mode
IRANGE	QUANT	3.00000E-001	Max Current (mA)
EQDELAY	QUANT	5.00000E+000	Equil. Time (s)
SAMPLINGMODE	SELECTOR	1	Sampling Mode
AREA	QUANT	1.00000E+000	Sample Area (cm^2)
IRCOMP	SELECTOR	0	IRComp
PFCOR	QUANT	5.00000E+001	PF Corr. (ohm)
SEQUENCER	TOGGLE	TRUE	Run as Sequence
PSTATMODEL	IQUANT	64	Pstat Model
PSTATSECTION	LABEL	IFC1010-21051	Pstat Section
PSTATSERIALNO	LABEL	21051	Pstat Serial Number
CTRLMODE	IQUANT	1	Control Mode
ELECTROMETER	IQUANT	0	RE=0 or CS=1
IESTAB	IQUANT	0	I/E Stability
CASPEED	IQUANT	4	Control Amp Speed
CONVENTION	IQUANT	1	Current Convention
ICHRANGE	IQUANT	2	Ich Range
ICHRANGEMODE	TOGGLE	T	Ich Auto Range
ICHOFFSETENABLE	TOGGLE	F	Ich Offset Enable
ICHOFFSET	QUANT	0	Ich Offset (V)
ICHFILTER	IQUANT	3	Ich Filter
VCHRANGE	IQUANT	3	Vch Range
VCHRANGEMODE	TOGGLE	T	Vch Auto Range
VCHOFFSETENABLE	TOGGLE	F	Vch Offset Enable
VCHOFFSET	QUANT	0	Vch Offset (V)
VCHFILTER	IQUANT	3	Vch Filter
IERANGELOWERLIMIT	IQUANT	4	I/E Range Lower Limit
IERANGEMODE	TOGGLE	F	I/E AutoRange
IERANGE	IQUANT	9	I/E Range
ACHSELECT	IQUANT	0	Ach Select
ACHRANGE	IQUANT	2	Ach Range
ACHOFFSETENABLE	TOGGLE	F	Ach Offset Enable
ACHOFFSET	QUANT	0	Ach Offset (V)
ACHFILTER	IQUANT	1	Ach Filter
SENSECABLEID	IQUANT	14	Sense Cable ID
PWRCABLEID	IQUANT	14	Power Cable ID
DCCALDATE	LABEL	5/16/2022	DC Calibration Date
ACCALDATE	LABEL	4/2/2018	AC Calibration Date
FRAMEWORKVERSION	QUANT	7.06	Framework Version
INSTRUMENTVERSION	LABEL	4.30	Instrument Version
CURVE	TABLE	208
	Pt	T	Vf	Im	Vu	Sig	Ach	IERange	Over	Temp
	#	s	V vs. Ref.	A	V	V	V	#	bits	deg C
	0	-0.49	2.50269E-001	6.74043E-006	0.00000E+000	2.49884E-001	0.00000E+000	9	...........	1424.54
	1	-0.48	2.50333E-001	6.78604E-006	0.00000E+000	2.49884E-001	0.00000E+000	9	...........	1424.54
	2	-0.47	2.50314E-001	6.73293E-006	0.00000E+000	2.49884E-001	0.00000E+000	9	...........	1424.54
	3	-0.46	2.50325E-001	6.76351E-006	0.00000E+000	2.49884E-001	0.00000E+000	9	...........	1424.54
	4	-0.45	2.50323E-001	6.71875E-006	0.00000E+000	2.49884E-001	0.00000E+000	9	...........	1424.54
	5	-0.44	2.50325E-001	6.75990E-006	0.00000E+000	2.49884E-001	0.00000E+000	9	...........	1424.54
	6	-0.43	2.50329E-001	6.72514E-006	0.00000E+000	2.49884E-001	0.00000E+000	9	...........	1424.54
	7	-0.42	2.50329E-001	6.76268E-006	0.00000E+000	2.49884E-001	0.00000E+000	9	...........	1424.54
	8	-0.41	2.50327E-001	6.71124E-006	0.00000E+000	2.49884E-001	0.00000E+000	9	...........	1424.54
	9	-0.4	2.50344E-001	6.75045E-006	0.00000E+000	2.49884E-001	0.00000E+000	9	...........	1424.54
	10	-0.39	2.50334E-001	6.69122E-006	0.00000E+000	2.49884E-001	0.00000E+000	9	...........	1424.54
	11	-0.38	2.50331E-001	6.73459E-006	0.00000E+000	2.49884E-001	0.00000E+000	9	...........	1424.54
	12	-0.37	2.50336E-001	6.69928E-006	0.00000E+000	2.49884E-001	0.00000E+000	9	...........	1424.54
	13	-0.36	2.50330E-001	6.71791E-006	0.00000E+000	2.49884E-001	0.00000E+000	9	...........	1424.54
	14	-0.35	2.50337E-001	6.68121E-006	0.00000E+000	2.49884E-001	0.00000E+000	9	...........	1424.54
	15	-0.34	2.50322E-001	6.70484E-006	0.00000E+000	2.49884E-001	0.00000E+000	9	...........	1424.54
	16	-0.33	2.50332E-001	6.67231E-006	0.00000E+000	2.49884E-001	0.00000E+000	9	...........	1424.54
	17	-0.32	2.50334E-001	6.70484E-006	0.00000E+000	2.49884E-001	0.00000E+000	9	...........	1424.54
	18	-0.31	2.50324E-001	6.65479E-006	0.00000E+000	2.49884E-001	0.00000E+000	9	...........	1424.54
	19	-0.3	2.50344E-001	6.68482E-006	0.00000E+000	2.49884E-001	0.00000E+000	9	...........	1424.54
	20	-0.29	2.50336E-001	6.63477E-006	0.00000E+000	2.49884E-001	0.00000E+000	9	...........	1424.54
	21	-0.28	2.50339E-001	6.69066E-006	0.00000E+000	2.49884E-001	0.00000E+000	9	...........	1424.54
	22	-0.27	2.50341E-001	6.63199E-006	0.00000E+000	2.49884E-001	0.00000E+000	9	...........	1424.54
	23	-0.26	2.50334E-001	6.66369E-006	0.00000E+000	2.49884E-001	0.00000E+000	9	...........	1424.54
	24	-0.25	2.50334E-001	6.62337E-006	0.00000E+000	2.49884E-001	0.00000E+000	9	...........	1424.54
	25	-0.24	2.50335E-001	6.63699E-006	0.00000E+000	2.49884E-001	0.00000E+000	9	...........	1424.54
	26	-0.23	2.50339E-001	6.60085E-006	0.00000E+000	2.49884E-001	0.00000E+000	9	...........	1424.54
	27	-0.22	2.50343E-001	6.64283E-006	0.00000E+000	2.49884E-001	0.00000E+000	9	...........	1424.54
	28	-0.21	2.50330E-001	6.59362E-006	0.00000E+000	2.49884E-001	0.00000E+000	9	...........	1424.54
	29	-0.2	2.50339E-001	6.62226E-006	0.00000E+000	2.49884E-001	0.00000E+000	9	...........	1424.54
	30	-0.19	2.50341E-001	6.59056E-006	0.00000E+000	2.49884E-001	0.00000E+000	9	...........	1424.54
	31	-0.18	2.50341E-001	6.59946E-006	0.00000E+000	2.49884E-001	0.00000E+000	9	...........	1424.54
	32	-0.17	2.50340E-001	6.56581E-006	0.00000E+000	2.49884E-001	0.00000E+000	9	...........	1424.54
	33	-0.16	2.50338E-001	6.58917E-006	0.00000E+000	2.49884E-001	0.00000E+000	9	...........	1424.54
	34	-0.15	2.50338E-001	6.55914E-006	0.00000E+000	2.49884E-001	0.00000E+000	9	...........	1424.54
	35	-0.14	2.50343E-001	6.57554E-006	0.00000E+000	2.49884E-001	0.00000E+000	9	...........	1424.54
	36	-0.13	2.50339E-001	6.51937E-006	0.00000E+000	2.49884E-001	0.00000E+000	9	...........	1424.54
	37	-0.12	2.50330E-001	6.56247E-006	0.00000E+000	2.49884E-001	0.00000E+000	9	...........	1424.54
	38	-0.11	2.50332E-001	6.51187E-006	0.00000E+000	2.49884E-001	0.00000E+000	9	...........	1424.54
	39	-0.1	2.50332E-001	6.54885E-006	0.00000E+000	2.49884E-001	0.00000E+000	9	...........	1424.54
	40	-0.09	2.50324E-001	6.51020E-006	0.00000E+000	2.49884E-001	0.00000E+000	9	...........	1424.54
	41	-0.08	2.50329E-001	6.53745E-006	0.00000E+000	2.49884E-001	0.00000E+000	9	...........	1424.54
	42	-0.07	2.50334E-001	6.49991E-006	0.00000E+000	2.49884E-001	0.00000E+000	9	...........	1424.54
	43	-0.06	2.50324E-001	6.52855E-006	0.00000E+000	2.49884E-001	0.00000E+000	9	...........	1424.54
	44	-0.05	2.50334E-001	6.50325E-006	0.00000E+000	2.49884E-001	0.00000E+000	9	...........	1424.54
	45	-0.04	2.50336E-001	6.50686E-006	0.00000E+000	2.49884E-001	0.00000E+000	9	...........	1424.54
	46	-0.03	2.50341E-001	6.47155E-006	0.00000E+000	2.49884E-001	0.00000E+000	9	...........	1424.54
	47	-0.02	2.50337E-001	6.50019E-006	0.00000E+000	2.49884E-001	0.00000E+000	9	...........	1424.54
	48	-0.01	2.50336E-001	6.44485E-006	0.00000E+000	2.49884E-001	0.00000E+000	9	...........	1424.54
	49	0	2.50341E-001	6.49157E-006	0.00000E+000	2.49884E-001	0.00000E+000	9	...........	1424.54
	50	0.01	3.00322E-001	2.40977E-004	0.00000E+000	2.99883E-001	0.00000E+000	9	...........	1424.54
	51	0.02	3.00311E-001	2.31785E-004	0.00000E+000	2.99883E-001	0.00000E+000	9	...........	1424.54
	52	0.03	3.00308E-001	2.24329E-004	0.00000E+000	2.99883E-001	0.00000E+000	9	...........	1424.54
	53	0.04	3.00313E-001	2.17609E-004	0.00000E+000	2.99883E-001	0.00000E+000	9	...........	1424.54
	54	0.05	3.00309E-001	2.11301E-004	0.00000E+000	2.99883E-001	0.00000E+000	9	...........	1424.54
	55	0.06	3.00321E-001	2.05424E-004	0.00000E+000	2.99883E-001	0.00000E+000	9	...........	1424.54
	56	0.07	3.00323E-001	1.99809E-004	0.00000E+000	2.99883E-001	0.00000E+000	9	...........	1424.54
	57	0.08	3.00313E-001	1.94568E-004	0.00000E+000	2.99883E-001	0.00000E+000	9	...........	1424.54
	58	0.09	3.00322E-001	1.89505E-004	0.00000E+000	2.99883E-001	0.00000E+000	9	...........	1424.54
	59	0.1	3.00332E-001	1.84720E-004	0.00000E+000	2.99883E-001	0.00000E+000	9	...........	1424.54
	60	0.11	3.00333E-001	1.80082E-004	0.00000E+000	2.99883E-001	0.00000E+000	9	...........	1424.54
	61	0.12	3.00332E-001	1.75685E-004	0.00000E+000	2.99883E-001	0.00000E+000	9	...........	1424.54
	62	0.13	3.00336E-001	1.71393E-004	0.00000E+000	2.99883E-001	0.00000E+000	9	...........	1424.54
	63	0.14	3.00333E-001	1.67322E-004	0.00000E+000	2.99883E-001	0.00000E+000	9	...........	1424.54
	64	0.15	3.00315E-001	1.63375E-004	0.00000E+000	2.99883E-001	0.00000E+000	9	...........	1424.54
	65	0.16	3.00313E-001	1.59628E-004	0.00000E+000	2.99883E-001	0.00000E+000	9	...........	1424.54
	66	0.17	3.00317E-001	1.55949E-004	0.00000E+000	2.99883E-001	0.00000E+000	9	...........	1424.54
	67	0.18	3.00328E-001	1.52471E-004	0.00000E+000	2.99883E-001	0.00000E+000	9	...........	1424.54
	68	0.19	3.00332E-001	1.49030E-004	0.00000E+000	2.99883E-001	0.00000E+000	9	...........	1424.54
	69	0.2	3.00327E-001	1.45772E-004	0.00000E+000	2.99883E-001	0.00000E+000	9	...........	1424.54
	70	0.21	3.00342E-001	1.42561E-004	0.00000E+000	2.99883E-001	0.00000E+000	9	...........	1424.54
	71	0.22	3.00330E-001	1.39511E-004	0.00000E+000	2.99883E-001	0.00000E+000	9	...........	1424.54
	72	0.23	3.00331E-001	1.36523E-004	0.00000E+000	2.99883E-001	0.00000E+000	9	...........	1424.54
	73	0.24	3.00320E-001	1.33660E-004	0.00000E+000	2.99883E-001	0.00000E+000	9	...........	1424.54
	74	0.25	3.00312E-001	1.30835E-004	0.00000E+000	2.99883E-001	0.00000E+000	9	...........	1424.54
	75	0.26	3.00326E-001	1.28177E-004	0.00000E+000	2.99883E-001	0.00000E+000	9	...........	1424.54
	76	0.27	3.00322E-001	1.25554E-004	0.00000E+000	2.99883E-001	0.00000E+000	9	...........	1424.54
	77	0.28	3.00322E-001	1.23033E-004	0.00000E+000	2.99883E-001	0.00000E+000	9	...........	1424.54
	78	0.29	3.00320E-001	1.20552E-004	0.00000E+000	2.99883E-001	0.00000E+000	9	...........	1424.54
	79	0.3	3.00326E-001	1.18201E-004	0.00000E+000	2.99883E-001	0.00000E+000	9	...........	1424.54
	80	0.31	3.00325E-001	1.15848E-004	0.00000E+000	2.99883E-001	0.00000E+000	9	...........	1424.54
	81	0.32	3.00324E-001	1.13647E-004	0.00000E+000	2.99883E-001	0.00000E+000	9	...........	1424.54
	82	0.33	3.00329E-001	1.11418E-004	0.00000E+000	2.99883E-001	0.00000E+000	9	...........	1424.54
	83	0.34	3.00314E-001	1.09323E-004	0.00000E+000	2.99883E-001	0.00000E+000	9	...........	1424.54
	84	0.35	3.00326E-001	1.07246E-004	0.00000E+000	2.99883E-001	0.00000E+000	9	...........	1424.54
	85	0.36	3.00326E-001	1.05258E-004	0.00000E+000	2.99883E-001	0.00000E+000	9	...........	1424.54
	86	0.37	3.00324E-001	1.03296E-004	0.00000E+000	2.99883E-001	0.00000E+000	9	...........	1424.54
	87	0.38	3.00321E-001	1.01422E-004	0.00000E+000	2.99883E-001	0.00000E+000	9	...........	1424.54
	88	0.39	3.00329E-001	9.95595E-005	0.00000E+000	2.99883E-001	0.00000E+000	9	...........	1424.54
	89	0.4	3.00342E-001	9.77994E-005	0.00000E+000	2.99883E-001	0.00000E+000	9	...........	1424.54
	90	0.41	3.00332E-001	9.60203E-005	0.00000E+000	2.99883E-001	0.00000E+000	9	...........	1424.54
	91	0.42	3.00318E-001	9.43528E-005	0.00000E+000	2.99883E-001	0.00000E+000	9	...........	1424.54
	92	0.43	3.00331E-001	9.26552E-005	0.00000E+000	2.99883E-001	0.00000E+000	9	...........	1424.54
	93	0.44	3.00325E-001	9.10991E-005	0.00000E+000	2.99883E-001	0.00000E+000	9	...........	1424.54
	94	0.45	3.00333E-001	8.95153E-005	0.00000E+000	2.99883E-001	0.00000E+000	9	...........	1424.54
	95	0.46	3.00327E-001	8.80054E-005	0.00000E+000	2.99883E-001	0.00000E+000	9	...........	1424.54
	96	0.47	3.00325E-001	8.65164E-005	0.00000E+000	2.99883E-001	0.00000E+000	9	...........	1424.54
	97	0.48	3.00334E-001	8.50938E-005	0.00000E+000	2.99883E-001	0.00000E+000	9	...........	1424.54
	98	0.49	3.00329E-001	8.36543E-005	0.00000E+000	2.99883E-001	0.00000E+000	9	...........	1424.54
	99	0.5	3.00319E-001	8.23076E-005	0.00000E+000	2.99883E-001	0.00000E+000	9	...........	1424.54
	100	0.51	3.00317E-001	8.09617E-005	0.00000E+000	2.99883E-001	0.00000E+000	9	...........	1424.54
	101	0.52	3.00321E-001	7.96762E-005	0.00000E+000	2.99883E-001	0.00000E+000	9	...........	1424.54
	102	0.53	3.00323E-001	7.83849E-005	0.00000E+000	2.99883E-001	0.00000E+000	9	...........	1424.54
	103	0.54	3.00308E-001	7.71550E-005	0.00000E+000	2.99883E-001	0.00000E+000	9	...........	1424.54
	104	0.55	3.00331E-001	7.59407E-005	0.00000E+000	2.99883E-001	0.00000E+000	9	...........	1424.54
	105	0.56	3.00332E-001	7.47748E-005	0.00000E+000	2.99883E-001	0.00000E+000	9	...........	1424.54
	106	0.57	3.00326E-001	7.36067E-005	0.00000E+000	2.99883E-001	0.00000E+000	9	...........	1424.54
	107	0.58	3.00317E-001	7.24986E-005	0.00000E+000	2.99883E-001	0.00000E+000	9	...........	1424.54
	108	0.59	3.00321E-001	7.13835E-005	0.00000E+000	2.99883E-001	0.00000E+000	9	...........	1424.54
	109	0.6	3.00324E-001	7.03297E-005	0.00000E+000	2.99883E-001	0.00000E+000	9	...........	1424.54
	110	0.61	3.00334E-001	6.92869E-005	0.00000E+000	2.99883E-001	0.00000E+000	9	...........	1424.54
	111	0.71	3.00330E-001	6.00435E-005	0.00000E+000	2.99883E-001	0.00000E+000	9	...........	1424.45
	112	0.81	3.00307E-001	5.26831E-005	0.00000E+000	2.99883E-001	0.00000E+000	9	...........	1424.45
	113	0.91	3.00327E-001	4.67548E-005	0.00000E+000	2.99883E-001	0.00000E+000	9	...........	1424.45
	114	1.01	3.00312E-001	4.19162E-005	0.00000E+000	2.99883E-001	0.00000E+000	9	...........	1424.45
	115	1.11	3.00315E-001	3.78842E-005	0.00000E+000	2.99883E-001	0.00000E+000	9	...........	1424.45
	116	1.21	3.00322E-001	3.46122E-005	0.00000E+000	2.99883E-001	0.00000E+000	9	...........	1424.45
	117	1.31	3.00318E-001	3.18466E-005	0.00000E+000	2.99883E-001	0.00000E+000	9	...........	1424.45
	118	1.41	3.00323E-001	2.95328E-005	0.00000E+000	2.99883E-001	0.00000E+000	9	...........	1424.45
	119	1.51	3.00322E-001	2.75183E-005	0.00000E+000	2.99883E-001	0.00000E+000	9	...........	1424.45
	120	1.61	3.00337E-001	2.58215E-005	0.00000E+000	2.99883E-001	0.00000E+000	9	...........	1424.45
	121	2.61	3.00328E-001	1.70297E-005	0.00000E+000	2.99883E-001	0.00000E+000	9	...........	1424.36
	122	3.61	3.00321E-001	1.37593E-005	0.00000E+000	2.99883E-001	0.00000E+000	9	...........	1423.92
	123	4.61	3.00324E-001	1.20234E-005	0.00000E+000	2.99883E-001	0.00000E+000	9	...........	1424.19
	124	5.61	3.00327E-001	1.08942E-005	0.00000E+000	2.99883E-001	0.00000E+000	9	...........	1424.45
	125	6.61	3.00332E-001	1.00947E-005	0.00000E+000	2.99883E-001	0.00000E+000	9	...........	1424.01
	126	7.61	3.00307E-001	9.47687E-006	0.00000E+000	2.99883E-001	0.00000E+000	9	...........	1424.36
	127	8.61	3.00318E-001	8.98052E-006	0.00000E+000	2.99883E-001	0.00000E+000	9	...........	1424.54
	128	9.61	3.00330E-001	8.57066E-006	0.00000E+000	2.99883E-001	0.00000E+000	9	...........	1424.10
	129	10.61	3.00337E-001	8.17803E-006	0.00000E+000	2.99883E-001	0.00000E+000	9	...........	1424.10
	130	11.61	3.00362E-001	7.85103E-006	0.00000E+000	2.99883E-001	0.00000E+000	9	...........	1424.45
	131	21.61	3.00337E-001	6.12591E-006	0.00000E+000	2.99883E-001	0.00000E+000	9	...........	1424.54
	132	31.61	3.00335E-001	5.38431E-006	0.00000E+000	2.99883E-001	0.00000E+000	9	...........	1424.54
	133	41.61	3.00323E-001	5.02478E-006	0.00000E+000	2.99883E-001	0.00000E+000	9	...........	1424.63
	134	51.61	3.00325E-001	4.74588E-006	0.00000E+000	2.99883E-001	0.00000E+000	9	...........	1424.54
	135	61.61	3.00337E-001	4.51536E-006	0.00000E+000	2.99883E-001	0.00000E+000	9	...........	1424.54
	136	71.61	3.00337E-001	4.33657E-006	0.00000E+000	2.99883E-001	0.00000E+000	9	...........	1424.54
	137	81.61	3.00313E-001	4.14248E-006	0.00000E+000	2.99883E-001	0.00000E+000	9	...........	1424.54
	138	91.61	3.00327E-001	4.02541E-006	0.00000E+000	2.99883E-001	0.00000E+000	9	...........	1424.54
	139	101.61	3.00339E-001	3.77654E-006	0.00000E+000	2.99883E-001	0.00000E+000	9	...........	1424.54
	140	111.61	3.00317E-001	3.77126E-006	0.00000E+000	2.99883E-001	0.00000E+000	9	...........	1424.54
	141	211.61	3.00312E-001	2.80721E-006	0.00000E+000	2.99883E-001	0.00000E+000	9	...........	1424.54
	142	300	3.00332E-001	2.28806E-006	0.00000E+000	2.99883E-001	0.00000E+000	9	...........	1424.63
	143	300.01	3.50338E-001	2.37877E-004	0.00000E+000	3.49883E-001	0.00000E+000	9	...........	1424.63
	144	300.02	3.50335E-001	2.30555E-004	0.00000E+000	3.49883E-001	0.00000E+000	9	...........	1424.63
	145	300.03	3.50341E-001	2.24551E-004	0.00000E+000	3.49883E-001	0.00000E+000	9	...........	1424.63
	146	300.04	3.50356E-001	2.19212E-004	0.00000E+000	3.49883E-001	0.00000E+000	9	...........	1424.63
	147	300.05	3.50345E-001	2.14059E-004	0.00000E+000	3.49883E-001	0.00000E+000	9	...........	1424.63
	148	300.06	3.50341E-001	2.09380E-004	0.00000E+000	3.49883E-001	0.00000E+000	9	...........	1424.63
	149	300.07	3.50349E-001	2.04745E-004	0.00000E+000	3.49883E-001	0.00000E+000	9	...........	1424.63
	150	300.08	3.50351E-001	2.00502E-004	0.00000E+000	3.49883E-001	0.00000E+000	9	...........	1424.63
	151	300.09	3.50357E-001	1.96246E-004	0.00000E+000	3.49883E-001	0.00000E+000	9	...........	1424.63
	152	300.1	3.50360E-001	1.92324E-004	0.00000E+000	3.49883E-001	0.00000E+000	9	...........	1424.63
	153	300.11	3.50357E-001	1.88413E-004	0.00000E+000	3.49883E-001	0.00000E+000	9	...........	1424.63
	154	300.12	3.50351E-001	1.84764E-004	0.00000E+000	3.49883E-001	0.00000E+000	9	...........	1424.63
	155	300.13	3.50344E-001	1.81100E-004	0.00000E+000	3.49883E-001	0.00000E+000	9	...........	1424.63
	156	300.14	3.50356E-001	1.77712E-004	0.00000E+000	3.49883E-001	0.00000E+000	9	...........	1424.63
	157	300.15	3.50359E-001	1.74272E-004	0.00000E+000	3.49883E-001	0.00000E+000	9	...........	1424.63
	158	300.16	3.50357E-001	1.71113E-004	0.00000E+000	3.49883E-001	0.00000E+000	9	...........	1424.63
	159	300.17	3.50347E-001	1.67855E-004	0.00000E+000	3.49883E-001	0.00000E+000	9	...........	1424.63
	160	300.18	3.50370E-001	1.64879E-004	0.00000E+000	3.49883E-001	0.00000E+000	9	...........	1424.63
	161	300.19	3.50343E-001	1.61819E-004	0.00000E+000	3.49883E-001	0.00000E+000	9	...........	1424.63
	162	300.2	3.50360E-001	1.59023E-004	0.00000E+000	3.49883E-001	0.00000E+000	9	...........	1424.63
	163	300.21	3.50350E-001	1.56117E-004	0.00000E+000	3.49883E-001	0.00000E+000	9	...........	1424.63
	164	300.22	3.50347E-001	1.53478E-004	0.00000E+000	3.49883E-001	0.00000E+000	9	...........	1424.63
	165	300.23	3.50354E-001	1.50737E-004	0.00000E+000	3.49883E-001	0.00000E+000	9	...........	1424.63
	166	300.24	3.50349E-001	1.48230E-004	0.00000E+000	3.49883E-001	0.00000E+000	9	...........	1424.63
	167	300.25	3.50345E-001	1.45638E-004	0.00000E+000	3.49883E-001	0.00000E+000	9	...........	1424.63
	168	300.26	3.50354E-001	1.43267E-004	0.00000E+000	3.49883E-001	0.00000E+000	9	...........	1424.63
	169	300.27	3.50354E-001	1.40804E-004	0.00000E+000	3.49883E-001	0.00000E+000	9	...........	1424.63
	170	300.28	3.50340E-001	1.38556E-004	0.00000E+000	3.49883E-001	0.00000E+000	9	...........	1424.63
	171	300.29	3.50350E-001	1.36221E-004	0.00000E+000	3.49883E-001	0.00000E+000	9	...........	1424.63
	172	300.3	3.50340E-001	1.34080E-004	0.00000E+000	3.49883E-001	0.00000E+000	9	...........	1424.63
	173	300.31	3.50339E-001	1.31831E-004	0.00000E+000	3.49883E-001	0.00000E+000	9	...........	1424.63
	174	300.32	3.50348E-001	1.29840E-004	0.00000E+000	3.49883E-001	0.00000E+000	9	...........	1424.63
	175	300.33	3.50347E-001	1.27687E-004	0.00000E+000	3.49883E-001	0.00000E+000	9	...........	1424.63
	176	300.34	3.50350E-001	1.25765E-004	0.00000E+000	3.49883E-001	0.00000E+000	9	...........	1424.63
	177	300.35	3.50348E-001	1.23738E-004	0.00000E+000	3.49883E-001	0.00000E+000	9	...........	1424.63
	178	300.36	3.50338E-001	1.21911E-004	0.00000E+000	3.49883E-001	0.00000E+000	9	...........	1424.63
	179	300.37	3.50345E-001	1.19964E-004	0.00000E+000	3.49883E-001	0.00000E+000	9	...........	1424.63
	180	300.38	3.50347E-001	1.18239E-004	0.00000E+000	3.49883E-001	0.00000E+000	9	...........	1424.63
	181	300.39	3.50345E-001	1.16371E-004	0.00000E+000	3.49883E-001	0.00000E+000	9	...........	1424.63
	182	300.4	3.50362E-001	1.14700E-004	0.00000E+000	3.49883E-001	0.00000E+000	9	...........	1424.63
	183	300.41	3.50357E-001	1.12939E-004	0.00000E+000	3.49883E-001	0.00000E+000	9	...........	1424.63
	184	300.42	3.50351E-001	1.11350E-004	0.00000E+000	3.49883E-001	0.00000E+000	9	...........	1424.63
	185	300.43	3.50344E-001	1.09646E-004	0.00000E+000	3.49883E-001	0.00000E+000	9	...........	1424.63
	186	300.44	3.50339E-001	1.08151E-004	0.00000E+000	3.49883E-001	0.00000E+000	9	...........	1424.63
	187	300.45	3.50354E-001	1.06528E-004	0.00000E+000	3.49883E-001	0.00000E+000	9	...........	1424.63
	188	300.46	3.50355E-001	1.05087E-004	0.00000E+000	3.49883E-001	0.00000E+000	9	...........	1424.63
	189	300.47	3.50345E-001	1.03498E-004	0.00000E+000	3.49883E-001	0.00000E+000	9	...........	1424.63
	190	300.48	3.50348E-001	1.02130E-004	0.00000E+000	3.49883E-001	0.00000E+000	9	...........	1424.63
	191	300.49	3.50358E-001	1.00627E-004	0.00000E+000	3.49883E-001	0.00000E+000	9	...........	1424.63
	192	300.5	3.50349E-001	9.92943E-005	0.00000E+000	3.49883E-001	0.00000E+000	9	...........	1424.63
	193	300.51	3.50345E-001	9.78589E-005	0.00000E+000	3.49883E-001	0.00000E+000	9	...........	1424.63
	194	300.52	3.50334E-001	9.66179E-005	0.00000E+000	3.49883E-001	0.00000E+000	9	...........	1424.63
	195	300.53	3.50337E-001	9.52379E-005	0.00000E+000	3.49883E-001	0.00000E+000	9	...........	1424.63
	196	300.54	3.50340E-001	9.40464E-005	0.00000E+000	3.49883E-001	0.00000E+000	9	...........	1424.63
	197	300.55	3.50338E-001	9.27261E-005	0.00000E+000	3.49883E-001	0.00000E+000	9	...........	1424.63
	198	300.56	3.50345E-001	9.15610E-005	0.00000E+000	3.49883E-001	0.00000E+000	9	...........	1424.63
	199	300.57	3.50350E-001	9.02869E-005	0.00000E+000	3.49883E-001	0.00000E+000	9	...........	1424.63
	200	300.58	3.50360E-001	8.91710E-005	0.00000E+000	3.49883E-001	0.00000E+000	9	...........	1424.63
	201	300.59	3.50362E-001	8.79328E-005	0.00000E+000	3.49883E-001	0.00000E+000	9	...........	1424.63
	202	300.6	3.50333E-001	8.68829E-005	0.00000E+000	3.49883E-001	0.00000E+000	9	...........	1424.63
	203	300.61	3.50350E-001	8.57233E-005	0.00000E+000	3.49883E-001	0.00000E+000	9	...........	1424.63
	204	300.71	3.50350E-001	7.57769E-005	0.00000E+000	3.49883E-001	0.00000E+000	9	...........	1424.63
	205	300.81	3.50347E-001	6.75757E-005	0.00000E+000	3.49883E-001	0.00000E+000	9	...........	1424.63
	206	300.91	3.50350E-001	6.07706E-005	0.00000E+000	3.49883E-001	0.00000E+000	9	...........	1424.63
	207	301	3.50340E-001	5.56217E-005	0.00000E+000	3.49883E-001	0.00000E+000	9	...........	1424.63
