Data from AgNPs_FTO_APTES_UA_1uM_CRN_1uM_R6G_10uM_NaF_0.1M_Addition_RamanShift__19__12-34-19-503.txt Node

Date: Thu Jan 27 12:34:19 GMT 2022
User: TCL
Spectrometer: QEP01345
Trigger mode: 4
Integration Time (sec): 7.000000E0
Scans to average: 10
Electric dark correction enabled: true
Nonlinearity correction enabled: false
Boxcar width: 0
XAxis mode: Raman Shifts
Number of Pixels in Spectrum: 1044
>>>>>Begin Spectral Data<<<<<
46.04893	0.1625
50.45542	0.8625
54.85868	-1.3375
59.25871	-1.1375
63.6555	57.2625
68.04907	58.3625
72.43941	59.7625
76.82654	63.2625
81.21044	65.2625
85.59113	62.6625
89.96862	68.8625
94.34289	69.4625
98.71396	73.2625
103.08183	75.0625
107.4465	79.3625
111.80798	77.8625
116.16626	81.1625
120.52136	86.9625
124.87327	89.1625
129.222	89.2625
133.56755	94.2625
137.90993	100.2625
142.24913	109.4625
146.58517	123.3625
150.91804	142.9625
155.24774	162.8625
159.57429	202.6625
163.89768	255.2625
168.21792	340.5625
172.53501	453.3625
176.84895	629.0625
181.15975	884.5625
185.46741	1231.4625
189.77193	1703.6625
194.07331	2279.3625
198.37157	2934.9625
202.6667	3630.0625
206.9587	4309.9625
211.24758	4975.2625
215.53334	5664.4625
219.81599	6399.4625
224.09553	7195.2625
228.37195	8108.0625
232.64527	9100.8625
236.91549	10168.2625
241.18261	11201.7625
245.44663	12133.5625
249.70755	12975.9625
253.96539	13699.8625
258.22014	14287.9625
262.4718	14795.7625
266.72039	15153.6625
270.96589	15359.8625
275.20832	15363.5625
279.44768	15179.5625
283.68397	15018.1625
287.91719	14868.5625
292.14735	14762.1625
296.37445	14780.7625
300.59849	14939.0625
304.81948	15026.9625
309.03742	15112.2625
313.25231	15010.8625
317.46415	14648.4625
321.67296	14164.4625
325.87872	13723.8625
330.08145	13513.8625
334.28114	13529.0625
338.47781	13634.7625
342.67145	13788.4625
346.86207	14106.7625
351.04966	14415.7625
355.23424	14827.5625
359.4158	15138.9625
363.59435	15371.7625
367.76989	15537.9625
371.94243	15618.3625
376.11196	15716.5625
380.27849	15809.9625
384.44203	15864.6625
388.60257	15959.0625
392.76012	16038.7625
396.91468	16246.2625
401.06626	16484.1625
405.21485	16685.3625
409.36047	16538.1625
413.50311	16234.3625
417.64277	15956.6625
421.77947	15837.6625
425.9132	15868.3625
430.04396	15919.3625
434.17176	15997.2625
438.2966	16125.2625
442.41849	16389.0625
446.53742	16827.0625
450.6534	17289.5625
454.76644	17704.6625
458.87653	17846.0625
462.98368	17701.8625
467.08789	17480.8625
471.18916	17145.6625
475.2875	16811.5625
479.38291	16670.0625
483.4754	16560.1625
487.56496	16392.8625
491.6516	16173.9625
495.73531	16027.1625
499.81612	16014.3625
503.89401	16113.8625
507.96899	16192.8625
512.04106	16209.9625
516.11023	16164.7625
520.1765	16124.1625
524.23987	16058.5625
528.30034	15899.5625
532.35792	15711.1625
536.41261	15439.4625
540.46441	15277.9625
544.51333	15184.8625
548.55936	15309.1625
552.60252	15661.1625
556.64279	16013.9625
560.6802	16200.8625
564.71473	16233.7625
568.7464	16426.5625
572.7752	16753.6625
576.80114	17025.3625
580.82422	17289.5625
584.84444	17615.9625
588.86181	17885.1625
592.87633	18147.3625
596.888	18299.6625
600.89682	18353.6625
604.9028	19083.2625
608.90594	21261.9625
612.90624	23739.7625
616.90371	22593.2625
620.89834	18529.8625
624.89015	16726.2625
628.87913	16582.3625
632.86528	16574.1625
636.84862	16260.8625
640.82913	15883.3625
644.80683	15408.2625
648.78172	15046.4625
652.75379	14973.8625
656.72306	15197.1625
660.68952	15518.2625
664.65319	15506.4625
668.61405	15139.3625
672.57211	15010.5625
676.52738	15004.8625
680.47986	14962.0625
684.42955	14850.0625
688.37646	14802.9625
692.32058	14850.5625
696.26192	15037.1625
700.20048	15238.4625
704.13626	15363.8625
708.06928	15249.9625
711.99952	15127.4625
715.927	15075.8625
719.85171	15092.7625
723.77365	15094.7625
727.69284	14926.0625
731.60928	14751.5625
735.52295	14710.7625
739.43388	14754.3625
743.34206	14803.8625
747.24749	14916.9625
751.15017	15045.5625
755.05012	15299.2625
758.94733	15740.6625
762.8418	16520.5625
766.73354	18009.6625
770.62254	19483.5625
774.50882	20076.7625
778.39237	19275.0625
782.27321	17682.5625
786.15132	16344.7625
790.02671	15553.6625
793.89938	15203.6625
797.76935	15103.0625
801.6366	15050.5625
805.50115	14987.3625
809.36299	14858.1625
813.22213	14703.4625
817.07857	14599.0625
820.93231	14511.6625
824.78336	14523.1625
828.63172	14520.2625
832.47738	14531.5625
836.32036	14592.0625
840.16066	14733.6625
843.99827	14840.2625
847.8332	14829.0625
851.66546	14646.1625
855.49504	14592.9625
859.32195	14557.6625
863.1462	14501.4625
866.96777	14424.7625
870.78668	14341.7625
874.60293	14371.7625
878.41652	14348.0625
882.22745	14419.9625
886.03573	14496.1625
889.84136	14480.0625
893.64433	14426.6625
897.44466	14352.1625
901.24235	14304.2625
905.0374	14245.6625
908.8298	14188.1625
912.61957	14205.2625
916.40671	14339.8625
920.19121	14595.6625
923.97308	14894.9625
927.75233	15044.0625
931.52895	15116.9625
935.30295	14991.7625
939.07433	14632.0625
942.84309	14309.7625
946.60924	14197.9625
950.37278	14160.9625
954.13371	14063.4625
957.89203	13909.8625
961.64774	13859.7625
965.40086	13794.0625
969.15137	13728.4625
972.89929	13662.1625
976.64461	13653.9625
980.38733	13683.8625
984.12747	13793.9625
987.86502	13983.0625
991.59999	14251.6625
995.33237	14712.4625
999.06217	15430.3625
1002.78939	16176.8625
1006.51404	16541.4625
1010.23611	16608.2625
1013.95561	16678.2625
1017.67255	16658.5625
1021.38692	16433.6625
1025.09872	16315.8625
1028.80796	16689.5625
1032.51465	17627.3625
1036.21877	18531.0625
1039.92035	18639.9625
1043.61937	18090.4625
1047.31584	17219.1625
1051.00976	16391.8625
1054.70114	15879.4625
1058.38998	15769.3625
1062.07627	15776.0625
1065.76003	15742.5625
1069.44126	15747.4625
1073.11995	15918.8625
1076.79611	16174.0625
1080.46974	16375.4625
1084.14085	16528.0625
1087.80943	16729.5625
1091.47549	16820.8625
1095.13903	16739.5625
1098.80005	16453.9625
1102.45857	16028.7625
1106.11456	15794.1625
1109.76805	15726.9625
1113.41903	15834.3625
1117.06751	15946.9625
1120.71348	16083.4625
1124.35696	16271.0625
1127.99793	16508.7625
1131.63641	16627.5625
1135.2724	16565.2625
1138.90589	16323.4625
1142.5369	16147.8625
1146.16542	16046.9625
1149.79145	16039.5625
1153.415	16055.9625
1157.03607	16206.1625
1160.65467	16522.5625
1164.27079	17162.5625
1167.88443	18046.0625
1171.49561	19359.3625
1175.10432	21073.9625
1178.71056	23281.9625
1182.31434	25410.7625
1185.91565	26610.6625
1189.51451	26562.8625
1193.11091	25413.4625
1196.70485	23904.8625
1200.29634	22516.7625
1203.88538	21578.2625
1207.47197	20846.6625
1211.05612	20267.9625
1214.63782	19893.2625
1218.21708	19725.6625
1221.79391	19770.6625
1225.36829	19870.4625
1228.94024	19770.0625
1232.50976	19333.5625
1236.07685	18910.6625
1239.6415	18599.4625
1243.20374	18492.5625
1246.76355	18577.9625
1250.32093	18874.0625
1253.8759	19448.8625
1257.42845	20111.1625
1260.97859	20759.7625
1264.52631	21394.5625
1268.07163	22136.8625
1271.61453	22973.1625
1275.15503	23858.6625
1278.69312	24751.0625
1282.22882	25429.7625
1285.76211	25864.5625
1289.29301	26156.2625
1292.82151	26673.9625
1296.34761	27586.8625
1299.87133	29047.2625
1303.39266	31028.3625
1306.9116	33623.9625
1310.42815	36227.7625
1313.94233	37970.6625
1317.45412	37945.4625
1320.96354	36675.7625
1324.47058	35086.9625
1327.97525	33635.5625
1331.47754	32439.9625
1334.97747	31743.3625
1338.47502	31288.0625
1341.97022	31114.7625
1345.46305	30777.4625
1348.95352	30535.0625
1352.44163	30653.7625
1355.92738	31702.6625
1359.41078	33871.4625
1362.89183	35949.9625
1366.37053	35702.5625
1369.84688	32521.5625
1373.32088	28586.2625
1376.79254	25721.9625
1380.26186	24355.4625
1383.72883	23950.5625
1387.19347	23726.1625
1390.65578	23318.8625
1394.11575	23061.8625
1397.57339	23139.9625
1401.0287	23552.5625
1404.48168	23924.9625
1407.93234	24028.0625
1411.38068	23840.0625
1414.82669	23332.8625
1418.27039	22624.9625
1421.71177	21890.0625
1425.15083	21254.1625
1428.58758	20909.0625
1432.02203	20944.0625
1435.45416	21329.3625
1438.88399	21862.8625
1442.31151	22294.8625
1445.73673	22549.4625
1449.15965	22751.3625
1452.58027	22901.4625
1455.9986	22911.2625
1459.41463	23039.1625
1462.82837	23461.2625
1466.23982	24030.1625
1469.64898	24627.3625
1473.05586	24975.1625
1476.46045	25070.7625
1479.86276	24940.5625
1483.26279	24674.1625
1486.66054	24470.1625
1490.05602	24492.3625
1493.44922	24689.9625
1496.84016	24984.1625
1500.22882	25639.5625
1503.61521	26676.2625
1506.99934	27994.3625
1510.38121	29226.3625
1513.76081	29626.0625
1517.13816	28830.7625
1520.51324	27301.1625
1523.88607	25748.6625
1527.25665	24646.9625
1530.62498	24053.4625
1533.99105	23742.0625
1537.35488	23517.1625
1540.71647	23337.5625
1544.07581	23099.0625
1547.4329	22795.7625
1550.78776	22522.4625
1554.14038	22348.1625
1557.49077	22242.3625
1560.83892	22115.1625
1564.18484	22063.3625
1567.52853	22184.4625
1570.86999	22390.0625
1574.20922	22632.6625
1577.54624	22793.9625
1580.88103	22649.5625
1584.2136	22505.0625
1587.54395	22936.5625
1590.87208	24096.0625
1594.19801	25863.4625
1597.52172	27915.5625
1600.84321	28780.6625
1604.16251	27569.7625
1607.47959	25202.9625
1610.79447	22734.7625
1614.10715	20667.8625
1617.41763	19025.6625
1620.7259	17916.1625
1624.03199	17419.2625
1627.33587	17475.0625
1630.63757	18003.0625
1633.93707	19139.4625
1637.23439	20885.1625
1640.52951	23222.4625
1643.82246	25873.3625
1647.11321	27761.3625
1650.40179	28153.3625
1653.68819	26352.3625
1656.97241	23083.6625
1660.25446	19768.9625
1663.53433	17327.0625
1666.81203	15778.0625
1670.08756	14838.9625
1673.36092	14287.3625
1676.63211	13910.3625
1679.90115	13626.0625
1683.16801	13407.5625
1686.43272	13249.4625
1689.69527	13154.7625
1692.95567	13057.2625
1696.2139	12968.4625
1699.46999	12875.8625
1702.72392	12850.7625
1705.97571	12809.5625
1709.22535	12833.0625
1712.47284	12859.0625
1715.71819	12862.5625
1718.96139	12858.7625
1722.20246	12819.3625
1725.44139	12765.4625
1728.67818	12674.4625
1731.91284	12612.1625
1735.14537	12536.3625
1738.37576	12492.4625
1741.60403	12446.7625
1744.83017	12403.5625
1748.05418	12341.5625
1751.27607	12335.9625
1754.49584	12283.8625
1757.71349	12253.1625
1760.92903	12253.1625
1764.14244	12217.5625
1767.35375	12227.9625
1770.56294	12225.9625
1773.77002	12201.9625
1776.97499	12208.3625
1780.17785	12185.6625
1783.37861	12166.0625
1786.57727	12182.8625
1789.77382	12157.3625
1792.96828	12126.7625
1796.16064	12133.9625
1799.3509	12115.2625
1802.53907	12074.1625
1805.72514	12052.6625
1808.90913	12034.8625
1812.09102	12009.1625
1815.27083	11976.0625
1818.44856	11962.6625
1821.6242	11983.5625
1824.79776	11950.6625
1827.96924	11939.5625
1831.13864	11935.6625
1834.30597	11962.9625
1837.47122	11933.9625
1840.6344	11973.7625
1843.7955	11970.3625
1846.95454	11959.7625
1850.11151	11974.5625
1853.26642	11989.1625
1856.41926	11965.3625
1859.57004	11983.0625
1862.71876	11986.1625
1865.86542	11977.6625
1869.01003	11980.7625
1872.15258	11981.3625
1875.29308	11964.5625
1878.43152	11969.0625
1881.56792	11976.7625
1884.70227	11968.8625
1887.83457	11961.8625
1890.96482	11961.4625
1894.09304	11955.5625
1897.21921	11920.1625
1900.34335	11926.9625
1903.46544	11944.3625
1906.58551	11943.3625
1909.70353	11923.8625
1912.81953	11890.1625
1915.93349	11904.2625
1919.04543	11870.3625
1922.15534	11807.6625
1925.26322	11800.6625
1928.36908	11757.7625
1931.47292	11706.3625
1934.57473	11668.4625
1937.67453	11640.6625
1940.77232	11584.9625
1943.86808	11541.1625
1946.96184	11499.0625
1950.05358	11444.1625
1953.14331	11425.8625
1956.23103	11407.4625
1959.31675	11348.8625
1962.40046	11339.4625
1965.48217	11308.2625
1968.56188	11267.2625
1971.63959	11257.9625
1974.7153	11218.5625
1977.78901	11160.8625
1980.86073	11139.1625
1983.93046	11106.7625
1986.99819	11073.1625
1990.06394	11044.4625
1993.1277	11039.1625
1996.18947	10961.2625
1999.24925	10960.2625
2002.30706	10910.4625
2005.36288	10881.7625
2008.41672	10877.7625
2011.46859	10820.3625
2014.51848	10785.8625
2017.56639	10775.9625
2020.61233	10766.2625
2023.6563	10751.9625
2026.6983	10704.1625
2029.73833	10696.6625
2032.7764	10694.3625
2035.8125	10723.5625
2038.84664	10655.5625
2041.87881	10679.7625
2044.90903	10649.8625
2047.93729	10634.4625
2050.96359	10599.8625
2053.98794	10604.2625
2057.01034	10617.1625
2060.03078	10569.2625
2063.04927	10589.2625
2066.06582	10595.8625
2069.08042	10573.4625
2072.09307	10570.2625
2075.10378	10544.9625
2078.11255	10569.5625
2081.11938	10550.3625
2084.12426	10555.7625
2087.12722	10530.6625
2090.12824	10547.6625
2093.12732	10499.0625
2096.12447	10523.4625
2099.11969	10512.6625
2102.11299	10515.8625
2105.10435	10539.9625
2108.09379	10535.8625
2111.08131	10529.4625
2114.0669	10545.8625
2117.05057	10552.6625
2120.03233	10565.5625
2123.01216	10573.3625
2125.99008	10604.1625
2128.96609	10578.2625
2131.94018	10617.1625
2134.91236	10623.4625
2137.88263	10588.6625
2140.851	10607.2625
2143.81746	10614.7625
2146.78201	10640.2625
2149.74466	10655.0625
2152.7054	10655.3625
2155.66425	10648.4625
2158.6212	10649.1625
2161.57625	10650.3625
2164.52941	10652.8625
2167.48067	10633.8625
2170.43004	10627.8625
2173.37752	10648.8625
2176.32311	10660.2625
2179.26681	10667.0625
2182.20863	10660.4625
2185.14856	10670.1625
2188.08661	10673.7625
2191.02278	10664.1625
2193.95707	10671.6625
2196.88948	10664.0625
2199.82001	10667.3625
2202.74867	10657.6625
2205.67545	10672.9625
2208.60037	10705.5625
2211.52341	10687.9625
2214.44458	10668.8625
2217.36388	10673.1625
2220.28132	10656.3625
2223.1969	10637.9625
2226.11061	10621.1625
2229.02246	10594.1625
2231.93245	10594.6625
2234.84058	10552.7625
2237.74686	10559.3625
2240.65128	10538.2625
2243.55385	10493.5625
2246.45456	10486.5625
2249.35343	10474.0625
2252.25044	10449.1625
2255.14561	10439.3625
2258.03893	10468.5625
2260.93041	10411.3625
2263.82004	10398.5625
2266.70783	10373.5625
2269.59378	10350.7625
2272.4779	10314.6625
2275.36017	10344.3625
2278.24061	10303.7625
2281.11922	10304.7625
2283.996	10261.7625
2286.87094	10277.5625
2289.74405	10259.8625
2292.61534	10258.5625
2295.4848	10266.8625
2298.35243	10271.0625
2301.21824	10255.9625
2304.08223	10292.8625
2306.94439	10285.6625
2309.80474	10311.3625
2312.66327	10306.2625
2315.51999	10324.3625
2318.37489	10347.4625
2321.22797	10339.1625
2324.07925	10313.6625
2326.92871	10338.9625
2329.77637	10328.6625
2332.62222	10293.4625
2335.46626	10301.9625
2338.3085	10311.6625
2341.14893	10330.2625
2343.98756	10343.9625
2346.8244	10355.1625
2349.65943	10363.6625
2352.49267	10365.8625
2355.32411	10321.1625
2358.15376	10336.6625
2360.98161	10325.7625
2363.80768	10314.9625
2366.63195	10292.8625
2369.45444	10247.7625
2372.27514	10254.9625
2375.09405	10234.1625
2377.91118	10216.5625
2380.72652	10159.2625
2383.54009	10153.7625
2386.35187	10161.2625
2389.16188	10118.0625
2391.97011	10088.5625
2394.77657	10075.9625
2397.58125	10094.9625
2400.38416	10093.7625
2403.18529	10044.2625
2405.98466	10021.3625
2408.78226	10001.4625
2411.57809	9970.8625
2414.37216	9946.8625
2417.16446	9940.5625
2419.955	9932.9625
2422.74378	9929.4625
2425.5308	9898.6625
2428.31606	9908.4625
2431.09956	9893.1625
2433.88131	9896.4625
2436.6613	9899.6625
2439.43954	9913.0625
2442.21603	9920.4625
2444.99077	9921.5625
2447.76377	9919.7625
2450.53501	9935.9625
2453.30451	9888.3625
2456.07226	9908.5625
2458.83827	9892.7625
2461.60254	9889.2625
2464.36507	9910.1625
2467.12586	9888.1625
2469.88492	9899.1625
2472.64224	9923.8625
2475.39782	9937.7625
2478.15167	9952.6625
2480.90379	9944.4625
2483.65417	9968.6625
2486.40283	9978.7625
2489.14976	9972.3625
2491.89497	9983.0625
2494.63845	9979.3625
2497.3802	9972.9625
2500.12024	9972.0625
2502.85855	9967.0625
2505.59514	9949.4625
2508.33002	9942.0625
2511.06318	9938.6625
2513.79462	9913.6625
2516.52435	9895.9625
2519.25237	9897.9625
2521.97867	9891.0625
2524.70327	9892.3625
2527.42616	9868.0625
2530.14734	9897.1625
2532.86681	9895.8625
2535.58458	9897.3625
2538.30065	9874.9625
2541.01501	9908.3625
2543.72768	9899.4625
2546.43864	9882.1625
2549.14791	9849.9625
2551.85548	9881.6625
2554.56136	9837.7625
2557.26554	9835.0625
2559.96803	9807.0625
2562.66883	9805.7625
2565.36794	9823.5625
2568.06536	9817.9625
2570.7611	9797.4625
2573.45514	9799.1625
2576.14751	9814.8625
2578.83819	9797.0625
2581.52719	9796.7625
2584.21451	9798.1625
2586.90015	9817.2625
2589.58411	9800.5625
2592.2664	9799.7625
2594.94701	9792.5625
2597.62594	9791.9625
2600.30321	9781.4625
2602.9788	9775.3625
2605.65273	9776.9625
2608.32498	9756.5625
2610.99557	9743.9625
2613.66449	9765.5625
2616.33175	9754.3625
2618.99734	9762.8625
2621.66128	9771.5625
2624.32355	9762.3625
2626.98416	9761.3625
2629.64311	9803.2625
2632.30041	9782.7625
2634.95605	9777.9625
2637.61004	9735.5625
2640.26238	9741.3625
2642.91306	9719.6625
2645.56209	9703.5625
2648.20948	9673.7625
2650.85521	9709.5625
2653.4993	9704.1625
2656.14175	9670.5625
2658.78255	9726.7625
2661.42171	9698.8625
2664.05923	9741.1625
2666.6951	9747.6625
2669.32934	9722.9625
2671.96194	9738.1625
2674.59291	9736.3625
2677.22224	9710.6625
2679.84993	9731.7625
2682.476	9720.8625
2685.10043	9700.7625
2687.72324	9670.4625
2690.34441	9696.2625
2692.96396	9657.0625
2695.58188	9651.4625
2698.19818	9646.4625
2700.81285	9649.2625
2703.4259	9636.2625
2706.03733	9619.2625
2708.64714	9604.1625
2711.25533	9644.4625
2713.86191	9647.4625
2716.46687	9660.0625
2719.07021	9661.3625
2721.67194	9678.2625
2724.27206	9669.1625
2726.87057	9697.4625
2729.46747	9692.1625
2732.06276	9691.4625
2734.65644	9682.4625
2737.24852	9704.1625
2739.83899	9694.7625
2742.42786	9682.6625
2745.01513	9677.3625
2747.60079	9663.4625
2750.18486	9604.6625
2752.76733	9637.0625
2755.3482	9635.8625
2757.92747	9663.6625
2760.50515	9631.2625
2763.08123	9626.3625
2765.65573	9637.9625
2768.22863	9631.4625
2770.79994	9626.2625
2773.36967	9626.0625
2775.9378	9640.5625
2778.50435	9636.4625
2781.06932	9618.1625
2783.6327	9634.7625
2786.1945	9612.8625
2788.75471	9606.3625
2791.31335	9597.1625
2793.87041	9606.1625
2796.42589	9573.2625
2798.97979	9561.6625
2801.53212	9523.5625
2804.08288	9561.1625
2806.63206	9515.1625
2809.17967	9504.9625
2811.72571	9471.9625
2814.27018	9474.6625
2816.81308	9455.3625
2819.35442	9455.2625
2821.89419	9422.9625
2824.43239	9432.9625
2826.96904	9457.0625
2829.50412	9438.8625
2832.03763	9407.5625
2834.56959	9459.1625
2837.1	9420.8625
2839.62884	9423.5625
2842.15613	9393.5625
2844.68186	9427.3625
2847.20604	9433.7625
2849.72867	9462.2625
2852.24974	9446.8625
2854.76927	9426.5625
2857.28724	9416.9625
2859.80367	9406.2625
2862.31855	9429.2625
2864.83189	9392.0625
2867.34368	9360.0625
2869.85393	9409.7625
2872.36264	9382.7625
2874.8698	9403.2625
2877.37543	9401.4625
2879.87952	9385.8625
2882.38207	9405.4625
2884.88308	9400.5625
2887.38256	9422.4625
2889.88051	9403.9625
2892.37692	9437.4625
2894.8718	9422.0625
2897.36515	9449.8625
2899.85698	9434.0625
2902.34727	9469.0625
2904.83604	9502.1625
2907.32328	9506.3625
2909.809	9487.0625
2912.29319	9508.0625
2914.77587	9507.3625
2917.25702	9506.1625
2919.73665	9506.9625
2922.21476	9486.0625
2924.69136	9458.9625
2927.16644	9480.5625
2929.64	9467.2625
2932.11205	9459.1625
2934.58258	9397.7625
2937.05161	9433.6625
2939.51912	9417.1625
2941.98513	9414.8625
2944.44962	9387.0625
2946.91261	9350.9625
2949.37409	9342.3625
2951.83407	9354.2625
2954.29254	9318.2625
2956.74951	9339.7625
2959.20498	9316.8625
2961.65895	9317.4625
2964.11142	9315.9625
2966.56239	9291.3625
2969.01186	9253.7625
2971.45984	9276.2625
2973.90632	9225.1625
2976.35131	9230.4625
2978.7948	9180.6625
2981.23681	9176.0625
2983.67732	9128.3625
2986.11635	9142.1625
2988.55388	9111.8625
2990.98993	9081.9625
2993.4245	9052.3625
2995.85758	9031.0625
2998.28917	9050.5625
3000.71928	8996.8625
3003.14791	9003.6625
3005.57506	8991.6625
3008.00073	8988.9625
3010.42493	8977.7625
3012.84764	8968.8625
3015.26888	8965.2625
3017.68865	8932.3625
3020.10694	8921.1625
3022.52376	8914.6625
3024.9391	8921.2625
3027.35298	8910.7625
3029.76539	8895.8625
3032.17632	8903.4625
3034.5858	8879.8625
3036.9938	8867.6625
3039.40034	8871.3625
3041.80542	8875.4625
3044.20903	8844.5625
3046.61118	8869.4625
3049.01187	8841.6625
3051.4111	8799.1625
3053.80888	8806.0625
3056.20519	8814.0625
3058.60005	8777.8625
3060.99345	8793.2625
3063.3854	8745.0625
3065.7759	8723.7625
3068.16494	8720.9625
3070.55254	8709.1625
3072.93868	8669.2625
3075.32338	8652.4625
3077.70662	8661.1625
3080.08842	8648.0625
3082.46878	8654.2625
3084.84769	8637.8625
3087.22515	8602.2625
3089.60118	8627.6625
3091.97576	8629.4625
3094.3489	8621.6625
3096.72061	8629.6625
3099.09087	8634.4625
3101.4597	8623.6625
3103.82709	8650.8625
3106.19305	8611.5625
3108.55757	8640.7625
3110.92066	8615.1625
3113.28232	8574.9625
3115.64255	8585.3625
3118.00134	8581.5625
3120.35871	8570.2625
3122.71466	8554.5625
3125.06917	8560.8625
3127.42226	8535.8625
3129.77393	8518.8625
3132.12417	8513.9625
3134.47299	8517.4625
3136.82039	8506.4625
3139.16636	8523.0625
3141.51092	8530.1625
3143.85406	8537.3625
3146.19579	8531.1625
3148.53609	8523.8625
3150.87499	8562.7625
3153.21246	8563.7625
3155.54853	8572.7625
3157.88318	8577.9625
3160.21642	8575.6625
3162.54826	8576.2625
3164.87868	8584.5625
3167.2077	8568.1625
3169.5353	8583.8625
3171.86151	8583.8625
3174.18631	8576.9625
3176.5097	8574.9625
3178.83169	8562.0625
3181.15228	8564.9625
3183.47147	8547.8625
3185.78926	8560.2625
3188.10565	8544.9625
3190.42065	8557.9625
3192.73424	8567.5625
3195.04645	8559.7625
3197.35725	8557.2625
3199.66667	8555.1625
3201.97469	8546.4625
3204.28132	8556.6625
3206.58656	8588.7625
3208.8904	8589.2625
3211.19287	8584.5625
3213.49394	8602.4625
3215.79363	8618.9625
3218.09193	8616.4625
3220.38884	8599.4625
3222.68438	8611.5625
3224.97853	8591.3625
3227.2713	8596.8625
3229.56269	8574.4625
3231.8527	8585.2625
3234.14133	8602.4625
3236.42858	8574.9625
3238.71446	8562.6625
3240.99896	8539.2625
3243.28209	8542.5625
3245.56384	8534.2625
3247.84423	8552.5625
3250.12324	8531.0625
3252.40088	8530.0625
3254.67715	8511.1625
3256.95205	8517.3625
3259.22558	8534.3625
3261.49775	8514.8625
3263.76855	8514.7625
3266.03799	8483.8625
3268.30606	8484.1625
3270.57277	8494.4625
3272.83812	8487.0625
3275.10211	8450.7625
3277.36474	8421.3625
3279.62601	8429.9625
3281.88593	8408.7625
3284.14448	8419.6625
3286.40168	8462.1625
3288.65753	8441.2625
3290.91202	8431.1625
3293.16516	8390.2625
3295.41695	8411.5625
3297.66738	8346.5625
3299.91647	8311.0625
3302.16421	8283.4625
3304.4106	8249.3625
3306.65564	8199.6625
3308.89933	8161.1625
3311.14169	8110.9625
3313.38269	8054.4625
3315.62236	8003.2625
3317.86068	7947.7625
3320.09766	7885.6625
3322.3333	7852.6625
3324.5676	7835.1625
3326.80056	7683.6625
3329.03219	7656.6625
3331.26248	3.1625
3333.49143	0.4625
3335.71905	-1.5375
