Data from AgNPs_FTO_APTES_UA_1uM_CRN_2uM_R6G_10uM_NaF_0.1M_Addition_RamanShift__21__13-19-49-555.txt Node

Date: Thu Jan 27 13:19:49 GMT 2022
User: TCL
Spectrometer: QEP01345
Trigger mode: 4
Integration Time (sec): 7.000000E0
Scans to average: 10
Electric dark correction enabled: true
Nonlinearity correction enabled: false
Boxcar width: 0
XAxis mode: Raman Shifts
Number of Pixels in Spectrum: 1044
>>>>>Begin Spectral Data<<<<<
46.04893	0.3625
50.45542	-0.4375
54.85868	-2.1375
59.25871	0.7625
63.6555	64.4625
68.04907	60.7625
72.43941	68.0625
76.82654	70.7625
81.21044	71.4625
85.59113	73.3625
89.96862	77.3625
94.34289	80.7625
98.71396	82.5625
103.08183	83.2625
107.4465	89.5625
111.80798	87.9625
116.16626	88.3625
120.52136	97.6625
124.87327	100.3625
129.222	99.4625
133.56755	104.1625
137.90993	111.0625
142.24913	123.2625
146.58517	137.9625
150.91804	156.8625
155.24774	184.5625
159.57429	224.5625
163.89768	293.3625
168.21792	387.8625
172.53501	517.0625
176.84895	711.4625
181.15975	999.4625
185.46741	1397.6625
189.77193	1936.6625
194.07331	2576.2625
198.37157	3348.8625
202.6667	4123.2625
206.9587	4910.0625
211.24758	5687.3625
215.53334	6465.4625
219.81599	7289.5625
224.09553	8214.0625
228.37195	9279.5625
232.64527	10413.7625
236.91549	11574.4625
241.18261	12795.9625
245.44663	13886.1625
249.70755	14812.6625
253.96539	15659.8625
258.22014	16376.8625
262.4718	17025.4625
266.72039	17486.7625
270.96589	17718.3625
275.20832	17787.9625
279.44768	17704.3625
283.68397	17543.9625
287.91719	17371.4625
292.14735	17356.6625
296.37445	17358.3625
300.59849	17532.2625
304.81948	17724.4625
309.03742	17750.7625
313.25231	17630.8625
317.46415	17114.0625
321.67296	16424.7625
325.87872	15886.4625
330.08145	15644.6625
334.28114	15644.0625
338.47781	15800.3625
342.67145	16077.2625
346.86207	16441.9625
351.04966	16919.0625
355.23424	17494.5625
359.4158	17955.7625
363.59435	18260.4625
367.76989	18445.9625
371.94243	18557.3625
376.11196	18672.5625
380.27849	18758.4625
384.44203	18822.0625
388.60257	18813.1625
392.76012	18959.2625
396.91468	19160.3625
401.06626	19496.2625
405.21485	19802.6625
409.36047	19715.3625
413.50311	19326.9625
417.64277	18966.9625
421.77947	18828.2625
425.9132	18862.8625
430.04396	18958.7625
434.17176	19091.0625
438.2966	19285.2625
442.41849	19587.2625
446.53742	20043.5625
450.6534	20611.8625
454.76644	21092.1625
458.87653	21324.3625
462.98368	21260.0625
467.08789	20978.0625
471.18916	20571.2625
475.2875	20110.3625
479.38291	19863.8625
483.4754	19684.4625
487.56496	19508.8625
491.6516	19252.5625
495.73531	19053.5625
499.81612	18989.8625
503.89401	19049.3625
507.96899	19109.6625
512.04106	19155.2625
516.11023	19148.4625
520.1765	19161.3625
524.23987	19067.3625
528.30034	18837.0625
532.35792	18588.1625
536.41261	18344.6625
540.46441	18153.6625
544.51333	18083.9625
548.55936	18258.1625
552.60252	18595.0625
556.64279	18953.8625
560.6802	19158.4625
564.71473	19243.1625
568.7464	19527.5625
572.7752	19895.2625
576.80114	20065.6625
580.82422	20165.3625
584.84444	20328.5625
588.86181	20523.8625
592.87633	20779.1625
596.888	21048.2625
600.89682	21339.7625
604.9028	22335.4625
608.90594	25060.6625
612.90624	28326.2625
616.90371	27231.9625
620.89834	22266.6625
624.89015	20005.2625
628.87913	19717.4625
632.86528	19635.8625
636.84862	19393.2625
640.82913	19006.2625
644.80683	18442.1625
648.78172	18011.3625
652.75379	17971.0625
656.72306	18263.8625
660.68952	18735.1625
664.65319	18695.0625
668.61405	18300.5625
672.57211	18100.5625
676.52738	18061.6625
680.47986	18079.4625
684.42955	18037.9625
688.37646	17998.5625
692.32058	18078.3625
696.26192	18221.8625
700.20048	18434.0625
704.13626	18522.2625
708.06928	18419.8625
711.99952	18242.6625
715.927	18217.4625
719.85171	18193.4625
723.77365	18156.7625
727.69284	17985.6625
731.60928	17858.1625
735.52295	17789.1625
739.43388	17873.7625
743.34206	17963.0625
747.24749	18052.3625
751.15017	18227.6625
755.05012	18549.7625
758.94733	19093.5625
762.8418	20125.7625
766.73354	21756.5625
770.62254	23572.4625
774.50882	24248.0625
778.39237	23263.5625
782.27321	21332.8625
786.15132	19703.3625
790.02671	18744.0625
793.89938	18289.7625
797.76935	18170.4625
801.6366	18119.1625
805.50115	18052.0625
809.36299	17936.4625
813.22213	17805.7625
817.07857	17786.7625
820.93231	17769.4625
824.78336	17772.7625
828.63172	17790.0625
832.47738	17875.7625
836.32036	17937.6625
840.16066	18039.1625
843.99827	18126.1625
847.8332	18071.3625
851.66546	17975.6625
855.49504	17862.5625
859.32195	17843.4625
863.1462	17754.5625
866.96777	17650.3625
870.78668	17582.3625
874.60293	17549.6625
878.41652	17540.6625
882.22745	17620.8625
886.03573	17696.5625
889.84136	17679.6625
893.64433	17592.6625
897.44466	17502.9625
901.24235	17449.4625
905.0374	17419.3625
908.8298	17425.3625
912.61957	17422.5625
916.40671	17599.1625
920.19121	17831.7625
923.97308	18150.1625
927.75233	18294.6625
931.52895	18372.0625
935.30295	18211.6625
939.07433	17827.2625
942.84309	17547.5625
946.60924	17431.3625
950.37278	17372.3625
954.13371	17214.2625
957.89203	17062.5625
961.64774	16973.4625
965.40086	16908.2625
969.15137	16848.9625
972.89929	16740.1625
976.64461	16707.3625
980.38733	16759.4625
984.12747	16877.8625
987.86502	17075.3625
991.59999	17404.5625
995.33237	17889.8625
999.06217	18634.8625
1002.78939	19496.1625
1006.51404	20019.3625
1010.23611	20166.6625
1013.95561	20323.0625
1017.67255	20313.4625
1021.38692	20099.1625
1025.09872	20013.2625
1028.80796	20391.3625
1032.51465	21424.6625
1036.21877	22370.0625
1039.92035	22478.3625
1043.61937	21914.3625
1047.31584	20942.7625
1051.00976	19905.3625
1054.70114	19321.2625
1058.38998	19107.5625
1062.07627	19090.8625
1065.76003	19086.9625
1069.44126	19122.4625
1073.11995	19258.4625
1076.79611	19450.5625
1080.46974	19589.5625
1084.14085	19726.5625
1087.80943	19951.5625
1091.47549	20052.0625
1095.13903	19932.5625
1098.80005	19562.3625
1102.45857	19172.9625
1106.11456	18966.3625
1109.76805	18951.8625
1113.41903	19145.1625
1117.06751	19378.2625
1120.71348	19605.9625
1124.35696	19861.0625
1127.99793	20141.4625
1131.63641	20238.9625
1135.2724	19982.6625
1138.90589	19676.6625
1142.5369	19450.5625
1146.16542	19297.8625
1149.79145	19260.9625
1153.415	19263.8625
1157.03607	19436.6625
1160.65467	19750.7625
1164.27079	20361.4625
1167.88443	21314.0625
1171.49561	22639.0625
1175.10432	24568.4625
1178.71056	26975.3625
1182.31434	29244.7625
1185.91565	30579.7625
1189.51451	30668.0625
1193.11091	29527.4625
1196.70485	27823.0625
1200.29634	26340.4625
1203.88538	25233.3625
1207.47197	24269.9625
1211.05612	23624.8625
1214.63782	23220.3625
1218.21708	23123.7625
1221.79391	23233.2625
1225.36829	23385.5625
1228.94024	23330.5625
1232.50976	23029.0625
1236.07685	22720.9625
1239.6415	22561.3625
1243.20374	22457.0625
1246.76355	22576.5625
1250.32093	22831.9625
1253.8759	23406.8625
1257.42845	24160.7625
1260.97859	24853.5625
1264.52631	25434.0625
1268.07163	26015.2625
1271.61453	26745.1625
1275.15503	27657.5625
1278.69312	28592.3625
1282.22882	29393.4625
1285.76211	29913.5625
1289.29301	30436.5625
1292.82151	31062.4625
1296.34761	31988.2625
1299.87133	33439.2625
1303.39266	35522.3625
1306.9116	38287.0625
1310.42815	41138.9625
1313.94233	42981.0625
1317.45412	42861.7625
1320.96354	41409.8625
1324.47058	39653.1625
1327.97525	38073.8625
1331.47754	37061.0625
1334.97747	36639.4625
1338.47502	36743.4625
1341.97022	36936.6625
1345.46305	36936.9625
1348.95352	36618.7625
1352.44163	36526.6625
1355.92738	37364.7625
1359.41078	39646.6625
1362.89183	42108.6625
1366.37053	41680.6625
1369.84688	37784.0625
1373.32088	33332.3625
1376.79254	30246.2625
1380.26186	28774.3625
1383.72883	28278.1625
1387.19347	27932.5625
1390.65578	27600.0625
1394.11575	27458.0625
1397.57339	27721.7625
1401.0287	28235.1625
1404.48168	28843.3625
1407.93234	29315.6625
1411.38068	29505.7625
1414.82669	29291.3625
1418.27039	28535.8625
1421.71177	27614.9625
1425.15083	26760.3625
1428.58758	26212.7625
1432.02203	26094.0625
1435.45416	26320.3625
1438.88399	26657.6625
1442.31151	26982.7625
1445.73673	27248.7625
1449.15965	27461.9625
1452.58027	27598.2625
1455.9986	27546.1625
1459.41463	27545.0625
1462.82837	27789.8625
1466.23982	28300.1625
1469.64898	28813.5625
1473.05586	29200.5625
1476.46045	29397.0625
1479.86276	29467.1625
1483.26279	29510.8625
1486.66054	29640.8625
1490.05602	29913.4625
1493.44922	30337.1625
1496.84016	30823.5625
1500.22882	31402.6625
1503.61521	32372.5625
1506.99934	33715.5625
1510.38121	35128.7625
1513.76081	35943.4625
1517.13816	35304.0625
1520.51324	33498.8625
1523.88607	31549.8625
1527.25665	30135.3625
1530.62498	29168.4625
1533.99105	28637.2625
1537.35488	28273.8625
1540.71647	28074.5625
1544.07581	27835.0625
1547.4329	27529.3625
1550.78776	27340.6625
1554.14038	27185.4625
1557.49077	27178.9625
1560.83892	27205.7625
1564.18484	27219.0625
1567.52853	27177.5625
1570.86999	27167.3625
1574.20922	27318.9625
1577.54624	27423.1625
1580.88103	27312.6625
1584.2136	27220.6625
1587.54395	27804.3625
1590.87208	29117.1625
1594.19801	31076.2625
1597.52172	33236.6625
1600.84321	34142.0625
1604.16251	32944.5625
1607.47959	30399.9625
1610.79447	27740.6625
1614.10715	25388.0625
1617.41763	23497.4625
1620.7259	22278.3625
1624.03199	21736.5625
1627.33587	21784.1625
1630.63757	22453.8625
1633.93707	23733.9625
1637.23439	25469.0625
1640.52951	27633.9625
1643.82246	29761.9625
1647.11321	31380.6625
1650.40179	31713.4625
1653.68819	30071.0625
1656.97241	26833.5625
1660.25446	23433.5625
1663.53433	20885.2625
1666.81203	19300.8625
1670.08756	18330.3625
1673.36092	17722.7625
1676.63211	17351.0625
1679.90115	17077.7625
1683.16801	16823.7625
1686.43272	16661.1625
1689.69527	16525.8625
1692.95567	16397.7625
1696.2139	16374.1625
1699.46999	16299.1625
1702.72392	16277.5625
1705.97571	16293.0625
1709.22535	16281.6625
1712.47284	16277.9625
1715.71819	16283.0625
1718.96139	16252.0625
1722.20246	16205.9625
1725.44139	16189.7625
1728.67818	16105.9625
1731.91284	16025.9625
1735.14537	15941.9625
1738.37576	15892.1625
1741.60403	15818.8625
1744.83017	15723.2625
1748.05418	15732.1625
1751.27607	15687.2625
1754.49584	15635.9625
1757.71349	15635.6625
1760.92903	15603.6625
1764.14244	15618.1625
1767.35375	15580.9625
1770.56294	15562.1625
1773.77002	15581.8625
1776.97499	15566.6625
1780.17785	15568.6625
1783.37861	15598.8625
1786.57727	15549.8625
1789.77382	15545.1625
1792.96828	15540.5625
1796.16064	15525.3625
1799.3509	15506.9625
1802.53907	15490.5625
1805.72514	15448.9625
1808.90913	15422.1625
1812.09102	15389.3625
1815.27083	15371.5625
1818.44856	15335.3625
1821.6242	15346.3625
1824.79776	15314.4625
1827.96924	15307.0625
1831.13864	15297.2625
1834.30597	15293.3625
1837.47122	15311.6625
1840.6344	15306.6625
1843.7955	15330.2625
1846.95454	15334.7625
1850.11151	15323.0625
1853.26642	15328.1625
1856.41926	15367.9625
1859.57004	15417.1625
1862.71876	15391.0625
1865.86542	15389.2625
1869.01003	15384.3625
1872.15258	15383.7625
1875.29308	15372.8625
1878.43152	15422.4625
1881.56792	15382.5625
1884.70227	15403.0625
1887.83457	15432.3625
1890.96482	15382.8625
1894.09304	15395.0625
1897.21921	15403.3625
1900.34335	15396.2625
1903.46544	15448.3625
1906.58551	15403.2625
1909.70353	15425.7625
1912.81953	15406.4625
1915.93349	15376.1625
1919.04543	15358.4625
1922.15534	15318.1625
1925.26322	15305.9625
1928.36908	15256.5625
1931.47292	15232.5625
1934.57473	15135.8625
1937.67453	15109.1625
1940.77232	15074.6625
1943.86808	14971.1625
1946.96184	14922.1625
1950.05358	14859.0625
1953.14331	14814.3625
1956.23103	14760.8625
1959.31675	14745.1625
1962.40046	14683.0625
1965.48217	14665.6625
1968.56188	14616.2625
1971.63959	14557.5625
1974.7153	14520.5625
1977.78901	14478.9625
1980.86073	14422.9625
1983.93046	14380.9625
1986.99819	14335.3625
1990.06394	14275.0625
1993.1277	14237.5625
1996.18947	14197.6625
1999.24925	14166.2625
2002.30706	14113.0625
2005.36288	14074.9625
2008.41672	14057.5625
2011.46859	14013.0625
2014.51848	13991.7625
2017.56639	13962.1625
2020.61233	13905.6625
2023.6563	13898.4625
2026.6983	13866.6625
2029.73833	13837.6625
2032.7764	13829.4625
2035.8125	13822.1625
2038.84664	13794.1625
2041.87881	13794.2625
2044.90903	13785.0625
2047.93729	13735.7625
2050.96359	13737.3625
2053.98794	13707.5625
2057.01034	13688.0625
2060.03078	13680.3625
2063.04927	13675.8625
2066.06582	13676.7625
2069.08042	13664.6625
2072.09307	13636.7625
2075.10378	13612.4625
2078.11255	13613.1625
2081.11938	13590.7625
2084.12426	13592.6625
2087.12722	13593.3625
2090.12824	13567.5625
2093.12732	13575.1625
2096.12447	13546.2625
2099.11969	13567.6625
2102.11299	13570.0625
2105.10435	13588.7625
2108.09379	13608.0625
2111.08131	13613.6625
2114.0669	13613.8625
2117.05057	13612.0625
2120.03233	13633.7625
2123.01216	13617.6625
2125.99008	13634.0625
2128.96609	13686.8625
2131.94018	13665.5625
2134.91236	13661.0625
2137.88263	13674.6625
2140.851	13682.5625
2143.81746	13688.7625
2146.78201	13682.7625
2149.74466	13719.9625
2152.7054	13727.5625
2155.66425	13722.5625
2158.6212	13689.5625
2161.57625	13684.9625
2164.52941	13693.0625
2167.48067	13720.0625
2170.43004	13708.2625
2173.37752	13709.2625
2176.32311	13696.2625
2179.26681	13696.6625
2182.20863	13688.7625
2185.14856	13715.2625
2188.08661	13705.8625
2191.02278	13741.7625
2193.95707	13753.6625
2196.88948	13730.3625
2199.82001	13739.4625
2202.74867	13747.8625
2205.67545	13745.1625
2208.60037	13689.5625
2211.52341	13698.8625
2214.44458	13696.9625
2217.36388	13688.9625
2220.28132	13699.6625
2223.1969	13656.4625
2226.11061	13668.1625
2229.02246	13652.5625
2231.93245	13615.6625
2234.84058	13562.2625
2237.74686	13525.4625
2240.65128	13509.5625
2243.55385	13510.0625
2246.45456	13476.4625
2249.35343	13455.6625
2252.25044	13444.3625
2255.14561	13419.8625
2258.03893	13412.1625
2260.93041	13394.8625
2263.82004	13369.9625
2266.70783	13369.0625
2269.59378	13312.0625
2272.4779	13267.0625
2275.36017	13256.8625
2278.24061	13260.5625
2281.11922	13222.0625
2283.996	13220.2625
2286.87094	13184.3625
2289.74405	13205.9625
2292.61534	13168.0625
2295.4848	13180.3625
2298.35243	13204.4625
2301.21824	13192.4625
2304.08223	13206.3625
2306.94439	13193.9625
2309.80474	13215.0625
2312.66327	13228.7625
2315.51999	13250.0625
2318.37489	13266.8625
2321.22797	13251.2625
2324.07925	13228.8625
2326.92871	13247.5625
2329.77637	13236.2625
2332.62222	13210.4625
2335.46626	13189.6625
2338.3085	13205.2625
2341.14893	13241.9625
2343.98756	13239.4625
2346.8244	13260.3625
2349.65943	13249.6625
2352.49267	13228.9625
2355.32411	13227.2625
2358.15376	13192.7625
2360.98161	13195.8625
2363.80768	13213.9625
2366.63195	13173.9625
2369.45444	13145.7625
2372.27514	13086.2625
2375.09405	13078.1625
2377.91118	13081.7625
2380.72652	13031.8625
2383.54009	12968.0625
2386.35187	12975.0625
2389.16188	12932.4625
2391.97011	12910.4625
2394.77657	12899.3625
2397.58125	12915.8625
2400.38416	12882.9625
2403.18529	12870.3625
2405.98466	12834.4625
2408.78226	12782.4625
2411.57809	12767.3625
2414.37216	12752.7625
2417.16446	12711.7625
2419.955	12707.9625
2422.74378	12708.3625
2425.5308	12698.9625
2428.31606	12667.0625
2431.09956	12666.2625
2433.88131	12662.3625
2436.6613	12669.7625
2439.43954	12645.6625
2442.21603	12652.9625
2444.99077	12625.1625
2447.76377	12651.8625
2450.53501	12637.3625
2453.30451	12654.2625
2456.07226	12618.0625
2458.83827	12620.6625
2461.60254	12625.0625
2464.36507	12614.9625
2467.12586	12611.9625
2469.88492	12608.7625
2472.64224	12631.2625
2475.39782	12667.2625
2478.15167	12673.3625
2480.90379	12660.6625
2483.65417	12684.1625
2486.40283	12682.4625
2489.14976	12708.2625
2491.89497	12723.4625
2494.63845	12741.3625
2497.3802	12717.8625
2500.12024	12725.6625
2502.85855	12708.2625
2505.59514	12699.3625
2508.33002	12690.8625
2511.06318	12674.7625
2513.79462	12672.7625
2516.52435	12610.7625
2519.25237	12634.7625
2521.97867	12608.7625
2524.70327	12607.2625
2527.42616	12594.9625
2530.14734	12577.9625
2532.86681	12585.6625
2535.58458	12564.2625
2538.30065	12546.3625
2541.01501	12552.4625
2543.72768	12569.5625
2546.43864	12548.5625
2549.14791	12534.7625
2551.85548	12527.5625
2554.56136	12519.1625
2557.26554	12498.2625
2559.96803	12506.0625
2562.66883	12506.1625
2565.36794	12492.1625
2568.06536	12480.2625
2570.7611	12460.3625
2573.45514	12438.6625
2576.14751	12459.4625
2578.83819	12460.0625
2581.52719	12463.6625
2584.21451	12477.1625
2586.90015	12436.1625
2589.58411	12443.8625
2592.2664	12465.5625
2594.94701	12443.9625
2597.62594	12438.6625
2600.30321	12426.7625
2602.9788	12444.0625
2605.65273	12393.1625
2608.32498	12414.3625
2610.99557	12413.5625
2613.66449	12436.1625
2616.33175	12429.6625
2618.99734	12424.9625
2621.66128	12447.6625
2624.32355	12451.4625
2626.98416	12463.5625
2629.64311	12428.5625
2632.30041	12444.6625
2634.95605	12444.2625
2637.61004	12389.5625
2640.26238	12381.5625
2642.91306	12394.7625
2645.56209	12385.3625
2648.20948	12369.4625
2650.85521	12332.5625
2653.4993	12344.6625
2656.14175	12346.0625
2658.78255	12338.4625
2661.42171	12334.9625
2664.05923	12359.8625
2666.6951	12349.3625
2669.32934	12382.9625
2671.96194	12377.2625
2674.59291	12377.9625
2677.22224	12417.0625
2679.84993	12399.4625
2682.476	12376.0625
2685.10043	12374.6625
2687.72324	12347.2625
2690.34441	12357.6625
2692.96396	12339.1625
2695.58188	12353.0625
2698.19818	12316.5625
2700.81285	12309.8625
2703.4259	12294.0625
2706.03733	12297.8625
2708.64714	12271.9625
2711.25533	12304.3625
2713.86191	12316.6625
2716.46687	12330.4625
2719.07021	12322.7625
2721.67194	12360.3625
2724.27206	12351.1625
2726.87057	12342.9625
2729.46747	12366.7625
2732.06276	12355.0625
2734.65644	12342.2625
2737.24852	12365.5625
2739.83899	12344.4625
2742.42786	12340.3625
2745.01513	12306.6625
2747.60079	12326.5625
2750.18486	12312.8625
2752.76733	12308.0625
2755.3482	12287.0625
2757.92747	12306.4625
2760.50515	12290.6625
2763.08123	12300.7625
2765.65573	12284.5625
2768.22863	12294.3625
2770.79994	12301.8625
2773.36967	12286.6625
2775.9378	12299.1625
2778.50435	12291.8625
2781.06932	12269.8625
2783.6327	12287.2625
2786.1945	12250.7625
2788.75471	12259.1625
2791.31335	12230.2625
2793.87041	12246.5625
2796.42589	12171.4625
2798.97979	12173.9625
2801.53212	12143.6625
2804.08288	12133.5625
2806.63206	12100.4625
2809.17967	12094.4625
2811.72571	12064.4625
2814.27018	12067.5625
2816.81308	12062.3625
2819.35442	12054.5625
2821.89419	12035.8625
2824.43239	12080.4625
2826.96904	12042.5625
2829.50412	12050.7625
2832.03763	12035.7625
2834.56959	12057.3625
2837.1	12033.9625
2839.62884	12045.1625
2842.15613	12006.6625
2844.68186	12039.4625
2847.20604	12045.3625
2849.72867	12042.6625
2852.24974	12058.9625
2854.76927	12019.5625
2857.28724	12021.7625
2859.80367	12002.3625
2862.31855	11998.3625
2864.83189	11982.9625
2867.34368	11967.3625
2869.85393	11944.3625
2872.36264	11947.4625
2874.8698	11931.6625
2877.37543	11948.3625
2879.87952	11945.2625
2882.38207	11941.8625
2884.88308	11956.7625
2887.38256	11971.3625
2889.88051	11964.5625
2892.37692	11955.9625
2894.8718	11945.5625
2897.36515	11979.9625
2899.85698	12003.0625
2902.34727	12011.9625
2904.83604	12005.2625
2907.32328	12045.6625
2909.809	12037.3625
2912.29319	12043.9625
2914.77587	12047.3625
2917.25702	12065.4625
2919.73665	12022.4625
2922.21476	12020.9625
2924.69136	12014.9625
2927.16644	12007.7625
2929.64	11998.2625
2932.11205	11979.7625
2934.58258	11945.9625
2937.05161	11926.2625
2939.51912	11923.4625
2941.98513	11915.3625
2944.44962	11906.2625
2946.91261	11849.2625
2949.37409	11869.6625
2951.83407	11862.2625
2954.29254	11850.6625
2956.74951	11840.0625
2959.20498	11827.8625
2961.65895	11810.1625
2964.11142	11815.2625
2966.56239	11768.9625
2969.01186	11773.5625
2971.45984	11732.5625
2973.90632	11729.1625
2976.35131	11710.7625
2978.7948	11697.0625
2981.23681	11639.1625
2983.67732	11629.8625
2986.11635	11614.5625
2988.55388	11585.8625
2990.98993	11534.5625
2993.4245	11510.3625
2995.85758	11494.6625
2998.28917	11472.8625
3000.71928	11475.0625
3003.14791	11425.1625
3005.57506	11429.6625
3008.00073	11387.6625
3010.42493	11409.6625
3012.84764	11407.4625
3015.26888	11372.3625
3017.68865	11389.1625
3020.10694	11354.0625
3022.52376	11306.6625
3024.9391	11336.1625
3027.35298	11318.2625
3029.76539	11306.5625
3032.17632	11282.5625
3034.5858	11277.7625
3036.9938	11258.7625
3039.40034	11260.3625
3041.80542	11273.7625
3044.20903	11224.0625
3046.61118	11219.2625
3049.01187	11201.3625
3051.4111	11182.3625
3053.80888	11200.2625
3056.20519	11164.0625
3058.60005	11123.7625
3060.99345	11093.9625
3063.3854	11066.2625
3065.7759	11035.6625
3068.16494	11021.4625
3070.55254	10983.2625
3072.93868	10967.5625
3075.32338	10944.8625
3077.70662	10932.1625
3080.08842	10906.4625
3082.46878	10883.5625
3084.84769	10868.8625
3087.22515	10887.7625
3089.60118	10876.2625
3091.97576	10865.4625
3094.3489	10876.2625
3096.72061	10857.4625
3099.09087	10863.5625
3101.4597	10850.4625
3103.82709	10852.3625
3106.19305	10827.1625
3108.55757	10854.1625
3110.92066	10795.5625
3113.28232	10787.9625
3115.64255	10772.8625
3118.00134	10744.7625
3120.35871	10753.5625
3122.71466	10737.6625
3125.06917	10713.4625
3127.42226	10694.1625
3129.77393	10674.1625
3132.12417	10680.2625
3134.47299	10664.9625
3136.82039	10676.9625
3139.16636	10651.9625
3141.51092	10677.4625
3143.85406	10708.0625
3146.19579	10673.9625
3148.53609	10669.6625
3150.87499	10700.4625
3153.21246	10693.7625
3155.54853	10684.9625
3157.88318	10689.1625
3160.21642	10685.0625
3162.54826	10705.2625
3164.87868	10688.3625
3167.2077	10676.0625
3169.5353	10710.7625
3171.86151	10689.5625
3174.18631	10675.9625
3176.5097	10665.2625
3178.83169	10653.5625
3181.15228	10655.8625
3183.47147	10656.2625
3185.78926	10643.9625
3188.10565	10633.6625
3190.42065	10638.9625
3192.73424	10626.8625
3195.04645	10630.4625
3197.35725	10644.4625
3199.66667	10616.5625
3201.97469	10619.9625
3204.28132	10640.7625
3206.58656	10674.5625
3208.8904	10654.3625
3211.19287	10672.2625
3213.49394	10686.6625
3215.79363	10686.5625
3218.09193	10673.8625
3220.38884	10687.9625
3222.68438	10682.2625
3224.97853	10656.2625
3227.2713	10656.4625
3229.56269	10635.9625
3231.8527	10647.6625
3234.14133	10620.0625
3236.42858	10616.9625
3238.71446	10587.3625
3240.99896	10569.5625
3243.28209	10585.9625
3245.56384	10559.2625
3247.84423	10559.4625
3250.12324	10562.6625
3252.40088	10545.7625
3254.67715	10526.9625
3256.95205	10540.1625
3259.22558	10547.8625
3261.49775	10526.2625
3263.76855	10519.6625
3266.03799	10481.2625
3268.30606	10490.7625
3270.57277	10486.9625
3272.83812	10456.4625
3275.10211	10436.1625
3277.36474	10398.2625
3279.62601	10400.1625
3281.88593	10401.9625
3284.14448	10416.0625
3286.40168	10435.5625
3288.65753	10428.0625
3290.91202	10434.0625
3293.16516	10398.0625
3295.41695	10343.4625
3297.66738	10319.0625
3299.91647	10252.4625
3302.16421	10189.1625
3304.4106	10141.1625
3306.65564	10104.9625
3308.89933	10072.3625
3311.14169	10008.2625
3313.38269	9949.0625
3315.62236	9859.7625
3317.86068	9767.7625
3320.09766	9703.0625
3322.3333	9666.9625
3324.5676	9662.3625
3326.80056	9471.7625
3329.03219	9409.9625
3331.26248	3.6625
3333.49143	-1.0375
3335.71905	-0.8375
