Data from AgNPs_FTO_APTES_UA_1uM_CRN_10uM_R6G_20uM_NaF_0.1M_Addition_RamanShift__30__15-32-49-707.txt Node

Date: Thu Jan 27 15:32:49 GMT 2022
User: TCL
Spectrometer: QEP01345
Trigger mode: 4
Integration Time (sec): 7.000000E0
Scans to average: 10
Electric dark correction enabled: true
Nonlinearity correction enabled: false
Boxcar width: 0
XAxis mode: Raman Shifts
Number of Pixels in Spectrum: 1044
>>>>>Begin Spectral Data<<<<<
46.04893	1.5625
50.45542	0.6625
54.85868	-0.9375
59.25871	-0.2375
63.6555	31.8625
68.04907	34.4625
72.43941	36.4625
76.82654	40.8625
81.21044	43.3625
85.59113	39.2625
89.96862	44.8625
94.34289	46.9625
98.71396	51.8625
103.08183	46.3625
107.4465	54.0625
111.80798	52.1625
116.16626	51.2625
120.52136	52.8625
124.87327	55.7625
129.222	51.1625
133.56755	54.1625
137.90993	54.3625
142.24913	54.1625
146.58517	60.6625
150.91804	68.9625
155.24774	74.5625
159.57429	83.8625
163.89768	100.7625
168.21792	131.2625
172.53501	169.7625
176.84895	226.9625
181.15975	311.8625
185.46741	419.1625
189.77193	581.5625
194.07331	772.3625
198.37157	988.7625
202.6667	1225.8625
206.9587	1449.3625
211.24758	1673.6625
215.53334	1919.8625
219.81599	2196.3625
224.09553	2494.4625
228.37195	2842.6625
232.64527	3208.6625
236.91549	3563.0625
241.18261	3878.6625
245.44663	4136.5625
249.70755	4344.3625
253.96539	4529.7625
258.22014	4690.0625
262.4718	4844.0625
266.72039	4962.9625
270.96589	5059.1625
275.20832	5074.5625
279.44768	5049.9625
283.68397	5022.4625
287.91719	4969.4625
292.14735	4998.6625
296.37445	5102.3625
300.59849	5278.3625
304.81948	5516.7625
309.03742	5690.7625
313.25231	5674.1625
317.46415	5418.4625
321.67296	4951.7625
325.87872	4594.2625
330.08145	4416.3625
334.28114	4394.3625
338.47781	4475.3625
342.67145	4594.5625
346.86207	4812.1625
351.04966	5109.2625
355.23424	5444.3625
359.4158	5694.0625
363.59435	5829.0625
367.76989	5867.8625
371.94243	5843.6625
376.11196	5789.4625
380.27849	5744.6625
384.44203	5673.1625
388.60257	5569.0625
392.76012	5545.0625
396.91468	5571.8625
401.06626	5754.3625
405.21485	5882.7625
409.36047	5785.8625
413.50311	5480.4625
417.64277	5148.3625
421.77947	4974.5625
425.9132	4914.7625
430.04396	4885.1625
434.17176	4909.7625
438.2966	4960.0625
442.41849	5075.3625
446.53742	5205.1625
450.6534	5356.8625
454.76644	5429.1625
458.87653	5453.3625
462.98368	5412.6625
467.08789	5330.6625
471.18916	5226.2625
475.2875	5099.2625
479.38291	5012.1625
483.4754	4932.8625
487.56496	4861.6625
491.6516	4837.1625
495.73531	4848.7625
499.81612	4835.4625
503.89401	4920.9625
507.96899	4989.4625
512.04106	5051.0625
516.11023	5130.3625
520.1765	5180.6625
524.23987	5150.5625
528.30034	5053.5625
532.35792	4915.2625
536.41261	4808.2625
540.46441	4697.3625
544.51333	4635.7625
548.55936	4690.9625
552.60252	4788.3625
556.64279	4942.5625
560.6802	5008.0625
564.71473	5084.5625
568.7464	5291.5625
572.7752	5443.6625
576.80114	5323.1625
580.82422	5143.6625
584.84444	5050.0625
588.86181	5000.5625
592.87633	4986.8625
596.888	5014.8625
600.89682	5185.0625
604.9028	5819.4625
608.90594	7444.8625
612.90624	9689.4625
616.90371	9464.9625
620.89834	6586.2625
624.89015	5167.9625
628.87913	4865.2625
632.86528	4908.1625
636.84862	4983.7625
640.82913	4939.0625
644.80683	4727.1625
648.78172	4596.0625
652.75379	4611.2625
656.72306	4813.3625
660.68952	5073.7625
664.65319	5052.6625
668.61405	4781.6625
672.57211	4621.4625
676.52738	4630.0625
680.47986	4603.2625
684.42955	4588.3625
688.37646	4569.2625
692.32058	4569.0625
696.26192	4627.7625
700.20048	4673.0625
704.13626	4719.5625
708.06928	4710.3625
711.99952	4679.6625
715.927	4641.1625
719.85171	4661.1625
723.77365	4671.6625
727.69284	4626.2625
731.60928	4596.1625
735.52295	4562.5625
739.43388	4574.3625
743.34206	4580.9625
747.24749	4613.9625
751.15017	4665.3625
755.05012	4766.9625
758.94733	5009.1625
762.8418	5550.1625
766.73354	6501.4625
770.62254	7529.3625
774.50882	8015.3625
778.39237	7686.7625
782.27321	6665.3625
786.15132	5633.2625
790.02671	5034.0625
793.89938	4769.8625
797.76935	4642.9625
801.6366	4592.4625
805.50115	4563.4625
809.36299	4544.7625
813.22213	4521.9625
817.07857	4514.2625
820.93231	4493.8625
824.78336	4513.0625
828.63172	4545.2625
832.47738	4565.3625
836.32036	4546.7625
840.16066	4514.9625
843.99827	4488.3625
847.8332	4466.2625
851.66546	4455.3625
855.49504	4474.4625
859.32195	4458.2625
863.1462	4429.2625
866.96777	4427.9625
870.78668	4419.2625
874.60293	4430.9625
878.41652	4433.0625
882.22745	4435.3625
886.03573	4505.2625
889.84136	4466.5625
893.64433	4449.3625
897.44466	4421.1625
901.24235	4426.6625
905.0374	4414.2625
908.8298	4399.8625
912.61957	4386.8625
916.40671	4396.7625
920.19121	4461.6625
923.97308	4506.8625
927.75233	4544.6625
931.52895	4574.4625
935.30295	4530.2625
939.07433	4417.3625
942.84309	4280.8625
946.60924	4212.9625
950.37278	4172.2625
954.13371	4175.0625
957.89203	4143.8625
961.64774	4145.6625
965.40086	4098.0625
969.15137	4098.4625
972.89929	4096.1625
976.64461	4077.1625
980.38733	4069.2625
984.12747	4083.5625
987.86502	4090.2625
991.59999	4103.6625
995.33237	4150.3625
999.06217	4210.6625
1002.78939	4326.3625
1006.51404	4414.7625
1010.23611	4507.7625
1013.95561	4573.7625
1017.67255	4572.8625
1021.38692	4498.7625
1025.09872	4423.3625
1028.80796	4374.4625
1032.51465	4378.2625
1036.21877	4427.4625
1039.92035	4493.4625
1043.61937	4496.0625
1047.31584	4499.0625
1051.00976	4490.2625
1054.70114	4487.2625
1058.38998	4489.6625
1062.07627	4533.4625
1065.76003	4554.4625
1069.44126	4568.9625
1073.11995	4633.9625
1076.79611	4688.3625
1080.46974	4753.2625
1084.14085	4847.1625
1087.80943	4988.7625
1091.47549	5043.4625
1095.13903	4992.0625
1098.80005	4799.8625
1102.45857	4630.5625
1106.11456	4561.6625
1109.76805	4536.1625
1113.41903	4653.4625
1117.06751	4806.5625
1120.71348	4974.5625
1124.35696	5200.9625
1127.99793	5396.4625
1131.63641	5411.0625
1135.2724	5154.7625
1138.90589	4903.5625
1142.5369	4753.1625
1146.16542	4662.4625
1149.79145	4600.5625
1153.415	4594.2625
1157.03607	4639.5625
1160.65467	4746.7625
1164.27079	4913.4625
1167.88443	5162.6625
1171.49561	5590.6625
1175.10432	6274.1625
1178.71056	7197.0625
1182.31434	7825.3625
1185.91565	7914.7625
1189.51451	7668.9625
1193.11091	7174.4625
1196.70485	6617.4625
1200.29634	6185.1625
1203.88538	5895.0625
1207.47197	5548.5625
1211.05612	5232.6625
1214.63782	5057.0625
1218.21708	4989.4625
1221.79391	4989.7625
1225.36829	5032.4625
1228.94024	5082.2625
1232.50976	5119.2625
1236.07685	5161.8625
1239.6415	5161.7625
1243.20374	5156.3625
1246.76355	5157.7625
1250.32093	5227.6625
1253.8759	5337.4625
1257.42845	5460.0625
1260.97859	5642.5625
1264.52631	5793.9625
1268.07163	5932.3625
1271.61453	6110.6625
1275.15503	6253.0625
1278.69312	6278.6625
1282.22882	6297.8625
1285.76211	6420.5625
1289.29301	6622.0625
1292.82151	6829.2625
1296.34761	7011.6625
1299.87133	7340.8625
1303.39266	7860.8625
1306.9116	8753.7625
1310.42815	9772.2625
1313.94233	10478.7625
1317.45412	10405.4625
1320.96354	9734.3625
1324.47058	8945.7625
1327.97525	8273.5625
1331.47754	7889.4625
1334.97747	7711.5625
1338.47502	7744.1625
1341.97022	7844.6625
1345.46305	8086.9625
1348.95352	8469.0625
1352.44163	9058.5625
1355.92738	9900.2625
1359.41078	11312.1625
1362.89183	12815.3625
1366.37053	12652.7625
1369.84688	10780.7625
1373.32088	8831.0625
1376.79254	7570.9625
1380.26186	6932.1625
1383.72883	6657.2625
1387.19347	6430.7625
1390.65578	6177.9625
1394.11575	5963.6625
1397.57339	5862.4625
1401.0287	5849.4625
1404.48168	5934.9625
1407.93234	6013.4625
1411.38068	6081.0625
1414.82669	6068.6625
1418.27039	5976.9625
1421.71177	5878.1625
1425.15083	5736.8625
1428.58758	5663.6625
1432.02203	5642.8625
1435.45416	5674.1625
1438.88399	5694.1625
1442.31151	5705.4625
1445.73673	5723.5625
1449.15965	5753.2625
1452.58027	5748.1625
1455.9986	5705.2625
1459.41463	5692.8625
1462.82837	5729.0625
1466.23982	5830.1625
1469.64898	5949.7625
1473.05586	6051.8625
1476.46045	6118.3625
1479.86276	6229.1625
1483.26279	6372.7625
1486.66054	6554.5625
1490.05602	6779.4625
1493.44922	7094.1625
1496.84016	7574.8625
1500.22882	8317.9625
1503.61521	9296.5625
1506.99934	10460.3625
1510.38121	11599.6625
1513.76081	12290.6625
1517.13816	11877.7625
1520.51324	10519.6625
1523.88607	8989.9625
1527.25665	7923.3625
1530.62498	7297.5625
1533.99105	6918.8625
1537.35488	6672.3625
1540.71647	6511.5625
1544.07581	6432.4625
1547.4329	6382.1625
1550.78776	6300.5625
1554.14038	6313.8625
1557.49077	6389.7625
1560.83892	6536.2625
1564.18484	6735.1625
1567.52853	6932.3625
1570.86999	7107.7625
1574.20922	7219.9625
1577.54624	7169.6625
1580.88103	6843.7625
1584.2136	6386.5625
1587.54395	6114.8625
1590.87208	6142.6625
1594.19801	6431.1625
1597.52172	6852.2625
1600.84321	7061.9625
1604.16251	6818.1625
1607.47959	6375.7625
1610.79447	5946.1625
1614.10715	5522.5625
1617.41763	5192.5625
1620.7259	4957.5625
1624.03199	4841.9625
1627.33587	4844.3625
1630.63757	4931.4625
1633.93707	5154.7625
1637.23439	5487.1625
1640.52951	5989.1625
1643.82246	6644.1625
1647.11321	7458.9625
1650.40179	8151.8625
1653.68819	8084.4625
1656.97241	7150.8625
1660.25446	5966.7625
1663.53433	5081.2625
1666.81203	4563.5625
1670.08756	4265.3625
1673.36092	4104.1625
1676.63211	4001.4625
1679.90115	3936.8625
1683.16801	3872.6625
1686.43272	3817.5625
1689.69527	3782.5625
1692.95567	3726.1625
1696.2139	3702.6625
1699.46999	3639.4625
1702.72392	3635.4625
1705.97571	3639.9625
1709.22535	3673.5625
1712.47284	3694.4625
1715.71819	3724.8625
1718.96139	3745.8625
1722.20246	3732.2625
1725.44139	3720.3625
1728.67818	3682.9625
1731.91284	3659.4625
1735.14537	3627.7625
1738.37576	3598.5625
1741.60403	3592.9625
1744.83017	3563.9625
1748.05418	3542.5625
1751.27607	3524.3625
1754.49584	3519.6625
1757.71349	3494.0625
1760.92903	3463.6625
1764.14244	3470.4625
1767.35375	3465.2625
1770.56294	3435.5625
1773.77002	3449.4625
1776.97499	3435.6625
1780.17785	3444.5625
1783.37861	3460.4625
1786.57727	3459.9625
1789.77382	3460.4625
1792.96828	3453.9625
1796.16064	3448.9625
1799.3509	3435.2625
1802.53907	3449.7625
1805.72514	3428.8625
1808.90913	3410.4625
1812.09102	3410.8625
1815.27083	3406.1625
1818.44856	3397.9625
1821.6242	3393.2625
1824.79776	3373.6625
1827.96924	3376.2625
1831.13864	3375.3625
1834.30597	3375.4625
1837.47122	3363.5625
1840.6344	3373.7625
1843.7955	3360.0625
1846.95454	3358.0625
1850.11151	3364.1625
1853.26642	3346.1625
1856.41926	3355.6625
1859.57004	3375.6625
1862.71876	3368.4625
1865.86542	3353.0625
1869.01003	3356.1625
1872.15258	3360.8625
1875.29308	3350.1625
1878.43152	3367.5625
1881.56792	3378.3625
1884.70227	3375.3625
1887.83457	3363.4625
1890.96482	3367.4625
1894.09304	3368.1625
1897.21921	3352.1625
1900.34335	3369.0625
1903.46544	3373.6625
1906.58551	3360.6625
1909.70353	3361.8625
1912.81953	3360.8625
1915.93349	3354.2625
1919.04543	3354.6625
1922.15534	3359.3625
1925.26322	3351.9625
1928.36908	3321.0625
1931.47292	3328.1625
1934.57473	3289.1625
1937.67453	3279.1625
1940.77232	3249.8625
1943.86808	3227.5625
1946.96184	3218.7625
1950.05358	3199.9625
1953.14331	3191.4625
1956.23103	3187.8625
1959.31675	3174.4625
1962.40046	3171.4625
1965.48217	3156.9625
1968.56188	3143.6625
1971.63959	3141.7625
1974.7153	3133.3625
1977.78901	3117.1625
1980.86073	3099.6625
1983.93046	3104.0625
1986.99819	3081.6625
1990.06394	3073.7625
1993.1277	3036.4625
1996.18947	3046.6625
1999.24925	3024.5625
2002.30706	3018.8625
2005.36288	3026.0625
2008.41672	3005.8625
2011.46859	3006.7625
2014.51848	2987.5625
2017.56639	2993.5625
2020.61233	2969.7625
2023.6563	2960.9625
2026.6983	2958.0625
2029.73833	2949.7625
2032.7764	2935.7625
2035.8125	2941.5625
2038.84664	2920.0625
2041.87881	2916.7625
2044.90903	2912.0625
2047.93729	2902.0625
2050.96359	2899.9625
2053.98794	2887.0625
2057.01034	2891.1625
2060.03078	2893.4625
2063.04927	2880.2625
2066.06582	2884.7625
2069.08042	2882.0625
2072.09307	2871.5625
2075.10378	2871.0625
2078.11255	2864.8625
2081.11938	2869.7625
2084.12426	2876.4625
2087.12722	2863.1625
2090.12824	2850.0625
2093.12732	2866.1625
2096.12447	2862.1625
2099.11969	2857.6625
2102.11299	2862.9625
2105.10435	2858.3625
2108.09379	2865.0625
2111.08131	2855.0625
2114.0669	2865.8625
2117.05057	2862.8625
2120.03233	2851.4625
2123.01216	2856.6625
2125.99008	2874.2625
2128.96609	2875.6625
2131.94018	2875.1625
2134.91236	2864.9625
2137.88263	2868.6625
2140.851	2872.4625
2143.81746	2871.8625
2146.78201	2866.9625
2149.74466	2861.1625
2152.7054	2858.2625
2155.66425	2845.4625
2158.6212	2861.5625
2161.57625	2849.5625
2164.52941	2853.6625
2167.48067	2847.8625
2170.43004	2848.9625
2173.37752	2841.2625
2176.32311	2848.0625
2179.26681	2840.0625
2182.20863	2854.0625
2185.14856	2842.6625
2188.08661	2848.9625
2191.02278	2838.1625
2193.95707	2822.2625
2196.88948	2828.2625
2199.82001	2820.4625
2202.74867	2820.0625
2205.67545	2821.2625
2208.60037	2822.3625
2211.52341	2800.9625
2214.44458	2803.8625
2217.36388	2795.2625
2220.28132	2783.1625
2223.1969	2790.1625
2226.11061	2786.1625
2229.02246	2779.1625
2231.93245	2778.6625
2234.84058	2755.1625
2237.74686	2750.2625
2240.65128	2743.4625
2243.55385	2751.1625
2246.45456	2738.3625
2249.35343	2739.1625
2252.25044	2743.5625
2255.14561	2737.2625
2258.03893	2738.6625
2260.93041	2729.0625
2263.82004	2724.2625
2266.70783	2722.4625
2269.59378	2714.8625
2272.4779	2696.4625
2275.36017	2697.0625
2278.24061	2697.2625
2281.11922	2683.1625
2283.996	2682.3625
2286.87094	2672.5625
2289.74405	2671.6625
2292.61534	2657.7625
2295.4848	2653.4625
2298.35243	2649.7625
2301.21824	2655.6625
2304.08223	2642.3625
2306.94439	2641.1625
2309.80474	2647.6625
2312.66327	2645.0625
2315.51999	2639.1625
2318.37489	2630.1625
2321.22797	2639.3625
2324.07925	2635.8625
2326.92871	2629.6625
2329.77637	2628.3625
2332.62222	2618.2625
2335.46626	2606.1625
2338.3085	2606.2625
2341.14893	2596.8625
2343.98756	2599.6625
2346.8244	2618.6625
2349.65943	2611.9625
2352.49267	2607.2625
2355.32411	2615.6625
2358.15376	2604.0625
2360.98161	2617.3625
2363.80768	2614.2625
2366.63195	2615.9625
2369.45444	2630.1625
2372.27514	2624.1625
2375.09405	2615.8625
2377.91118	2604.2625
2380.72652	2601.6625
2383.54009	2572.9625
2386.35187	2580.5625
2389.16188	2564.6625
2391.97011	2549.8625
2394.77657	2536.8625
2397.58125	2539.4625
2400.38416	2536.3625
2403.18529	2521.5625
2405.98466	2512.4625
2408.78226	2504.6625
2411.57809	2509.9625
2414.37216	2522.0625
2417.16446	2503.3625
2419.955	2503.6625
2422.74378	2498.8625
2425.5308	2494.7625
2428.31606	2499.1625
2431.09956	2490.8625
2433.88131	2490.2625
2436.6613	2496.4625
2439.43954	2491.7625
2442.21603	2490.8625
2444.99077	2492.6625
2447.76377	2492.5625
2450.53501	2495.0625
2453.30451	2477.8625
2456.07226	2481.8625
2458.83827	2481.0625
2461.60254	2483.9625
2464.36507	2475.6625
2467.12586	2477.2625
2469.88492	2477.4625
2472.64224	2473.7625
2475.39782	2464.5625
2478.15167	2472.7625
2480.90379	2457.4625
2483.65417	2473.9625
2486.40283	2486.0625
2489.14976	2481.7625
2491.89497	2484.1625
2494.63845	2492.0625
2497.3802	2491.1625
2500.12024	2486.9625
2502.85855	2475.8625
2505.59514	2471.3625
2508.33002	2461.3625
2511.06318	2458.1625
2513.79462	2461.8625
2516.52435	2422.4625
2519.25237	2435.2625
2521.97867	2431.2625
2524.70327	2414.2625
2527.42616	2402.3625
2530.14734	2405.2625
2532.86681	2409.8625
2535.58458	2394.5625
2538.30065	2406.6625
2541.01501	2391.7625
2543.72768	2405.3625
2546.43864	2404.2625
2549.14791	2396.3625
2551.85548	2387.3625
2554.56136	2381.3625
2557.26554	2383.7625
2559.96803	2382.5625
2562.66883	2378.7625
2565.36794	2381.7625
2568.06536	2362.5625
2570.7611	2358.3625
2573.45514	2360.8625
2576.14751	2359.0625
2578.83819	2362.0625
2581.52719	2350.1625
2584.21451	2351.0625
2586.90015	2345.3625
2589.58411	2336.8625
2592.2664	2333.0625
2594.94701	2333.0625
2597.62594	2331.9625
2600.30321	2321.6625
2602.9788	2322.4625
2605.65273	2323.2625
2608.32498	2328.4625
2610.99557	2327.7625
2613.66449	2327.3625
2616.33175	2311.4625
2618.99734	2318.0625
2621.66128	2319.6625
2624.32355	2301.7625
2626.98416	2309.7625
2629.64311	2304.2625
2632.30041	2299.1625
2634.95605	2291.5625
2637.61004	2292.7625
2640.26238	2282.8625
2642.91306	2292.4625
2645.56209	2277.9625
2648.20948	2284.7625
2650.85521	2272.1625
2653.4993	2271.3625
2656.14175	2281.5625
2658.78255	2279.3625
2661.42171	2283.0625
2664.05923	2288.3625
2666.6951	2289.9625
2669.32934	2290.9625
2671.96194	2281.3625
2674.59291	2298.1625
2677.22224	2287.2625
2679.84993	2309.1625
2682.476	2296.7625
2685.10043	2288.4625
2687.72324	2294.8625
2690.34441	2279.9625
2692.96396	2290.2625
2695.58188	2306.7625
2698.19818	2281.2625
2700.81285	2288.8625
2703.4259	2291.3625
2706.03733	2267.8625
2708.64714	2263.8625
2711.25533	2276.1625
2713.86191	2286.5625
2716.46687	2297.8625
2719.07021	2288.0625
2721.67194	2291.3625
2724.27206	2294.9625
2726.87057	2287.5625
2729.46747	2288.9625
2732.06276	2301.5625
2734.65644	2285.5625
2737.24852	2291.2625
2739.83899	2287.7625
2742.42786	2283.0625
2745.01513	2276.8625
2747.60079	2268.8625
2750.18486	2271.2625
2752.76733	2263.1625
2755.3482	2259.8625
2757.92747	2261.9625
2760.50515	2259.4625
2763.08123	2260.4625
2765.65573	2261.4625
2768.22863	2251.0625
2770.79994	2253.3625
2773.36967	2236.5625
2775.9378	2253.4625
2778.50435	2242.7625
2781.06932	2239.4625
2783.6327	2240.5625
2786.1945	2244.4625
2788.75471	2236.9625
2791.31335	2233.8625
2793.87041	2224.9625
2796.42589	2227.3625
2798.97979	2237.5625
2801.53212	2224.1625
2804.08288	2213.8625
2806.63206	2220.2625
2809.17967	2212.6625
2811.72571	2214.0625
2814.27018	2212.7625
2816.81308	2208.7625
2819.35442	2221.7625
2821.89419	2221.7625
2824.43239	2230.3625
2826.96904	2220.4625
2829.50412	2240.1625
2832.03763	2219.4625
2834.56959	2234.4625
2837.1	2228.7625
2839.62884	2241.4625
2842.15613	2254.1625
2844.68186	2266.5625
2847.20604	2297.4625
2849.72867	2314.3625
2852.24974	2327.9625
2854.76927	2313.8625
2857.28724	2301.8625
2859.80367	2303.2625
2862.31855	2293.5625
2864.83189	2292.2625
2867.34368	2275.3625
2869.85393	2289.4625
2872.36264	2294.5625
2874.8698	2280.1625
2877.37543	2276.5625
2879.87952	2276.8625
2882.38207	2282.8625
2884.88308	2273.5625
2887.38256	2278.5625
2889.88051	2265.4625
2892.37692	2264.5625
2894.8718	2269.2625
2897.36515	2254.2625
2899.85698	2270.6625
2902.34727	2286.9625
2904.83604	2280.5625
2907.32328	2269.2625
2909.809	2278.5625
2912.29319	2280.0625
2914.77587	2276.3625
2917.25702	2278.1625
2919.73665	2274.8625
2922.21476	2266.5625
2924.69136	2270.6625
2927.16644	2278.2625
2929.64	2270.6625
2932.11205	2265.3625
2934.58258	2251.5625
2937.05161	2246.0625
2939.51912	2248.6625
2941.98513	2230.2625
2944.44962	2224.6625
2946.91261	2188.3625
2949.37409	2193.9625
2951.83407	2178.5625
2954.29254	2181.9625
2956.74951	2166.4625
2959.20498	2162.0625
2961.65895	2159.6625
2964.11142	2163.2625
2966.56239	2146.2625
2969.01186	2150.6625
2971.45984	2131.2625
2973.90632	2136.2625
2976.35131	2127.7625
2978.7948	2123.3625
2981.23681	2119.8625
2983.67732	2119.4625
2986.11635	2106.5625
2988.55388	2105.0625
2990.98993	2096.2625
2993.4245	2104.0625
2995.85758	2084.9625
2998.28917	2087.5625
3000.71928	2079.4625
3003.14791	2080.4625
3005.57506	2077.4625
3008.00073	2068.1625
3010.42493	2072.1625
3012.84764	2076.1625
3015.26888	2073.5625
3017.68865	2065.6625
3020.10694	2071.3625
3022.52376	2058.6625
3024.9391	2050.9625
3027.35298	2064.2625
3029.76539	2053.4625
3032.17632	2054.4625
3034.5858	2055.5625
3036.9938	2053.1625
3039.40034	2044.5625
3041.80542	2057.4625
3044.20903	2046.6625
3046.61118	2041.7625
3049.01187	2047.4625
3051.4111	2048.8625
3053.80888	2045.1625
3056.20519	2032.6625
3058.60005	2032.0625
3060.99345	2026.8625
3063.3854	2024.4625
3065.7759	2017.8625
3068.16494	2028.6625
3070.55254	2032.2625
3072.93868	2013.1625
3075.32338	2014.1625
3077.70662	2019.1625
3080.08842	2011.7625
3082.46878	2002.8625
3084.84769	2002.5625
3087.22515	1995.8625
3089.60118	1999.8625
3091.97576	2005.2625
3094.3489	2009.8625
3096.72061	2012.5625
3099.09087	2016.3625
3101.4597	2001.2625
3103.82709	2008.8625
3106.19305	2009.2625
3108.55757	2010.4625
3110.92066	2001.4625
3113.28232	2002.0625
3115.64255	2003.2625
3118.00134	1999.6625
3120.35871	2002.3625
3122.71466	2015.8625
3125.06917	2001.7625
3127.42226	2002.6625
3129.77393	2007.8625
3132.12417	2014.4625
3134.47299	2013.8625
3136.82039	2015.5625
3139.16636	2022.3625
3141.51092	2025.0625
3143.85406	2038.4625
3146.19579	2034.3625
3148.53609	2035.7625
3150.87499	2048.4625
3153.21246	2049.3625
3155.54853	2071.4625
3157.88318	2061.7625
3160.21642	2060.6625
3162.54826	2068.2625
3164.87868	2067.8625
3167.2077	2065.1625
3169.5353	2081.5625
3171.86151	2073.8625
3174.18631	2086.5625
3176.5097	2095.1625
3178.83169	2085.0625
3181.15228	2088.4625
3183.47147	2090.8625
3185.78926	2087.7625
3188.10565	2090.5625
3190.42065	2095.8625
3192.73424	2111.7625
3195.04645	2109.6625
3197.35725	2105.0625
3199.66667	2109.7625
3201.97469	2118.6625
3204.28132	2112.9625
3206.58656	2109.8625
3208.8904	2130.4625
3211.19287	2129.4625
3213.49394	2150.1625
3215.79363	2142.4625
3218.09193	2143.8625
3220.38884	2149.9625
3222.68438	2124.8625
3224.97853	2130.1625
3227.2713	2143.6625
3229.56269	2136.6625
3231.8527	2143.3625
3234.14133	2143.5625
3236.42858	2131.4625
3238.71446	2128.7625
3240.99896	2131.0625
3243.28209	2125.5625
3245.56384	2129.2625
3247.84423	2131.5625
3250.12324	2120.6625
3252.40088	2129.7625
3254.67715	2127.3625
3256.95205	2123.7625
3259.22558	2129.7625
3261.49775	2128.0625
3263.76855	2120.4625
3266.03799	2113.7625
3268.30606	2117.8625
3270.57277	2116.4625
3272.83812	2095.5625
3275.10211	2100.8625
3277.36474	2090.4625
3279.62601	2113.9625
3281.88593	2103.4625
3284.14448	2080.7625
3286.40168	2100.5625
3288.65753	2105.8625
3290.91202	2084.3625
3293.16516	2081.3625
3295.41695	2087.4625
3297.66738	2074.1625
3299.91647	2062.0625
3302.16421	2050.4625
3304.4106	2052.8625
3306.65564	2032.5625
3308.89933	2027.6625
3311.14169	2005.0625
3313.38269	1989.1625
3315.62236	1980.2625
3317.86068	1965.1625
3320.09766	1949.5625
3322.3333	1939.7625
3324.5676	1929.2625
3326.80056	1901.4625
3329.03219	1893.0625
3331.26248	0.1625
3333.49143	0.2625
3335.71905	-1.4375
