Data from AgNPs_UA_0uM_CRN_0uM_R6G_10uM_Q_RamanShift__29__11-52-18-780.txt Node

Date: Wed Jul 13 11:52:18 BST 2022
User: TCL
Spectrometer: QEP01345
Trigger mode: 4
Integration Time (sec): 7.000000E0
Scans to average: 10
Electric dark correction enabled: true
Nonlinearity correction enabled: false
Boxcar width: 0
XAxis mode: Raman Shifts
Number of Pixels in Spectrum: 1044
>>>>>Begin Spectral Data<<<<<
46.04893	-0.1
50.45542	-0.5
54.85868	-1.6
59.25871	-0.2
63.6555	42.1
68.04907	45.6
72.43941	51
76.82654	54.4
81.21044	56.6
85.59113	61.7
89.96862	62.4
94.34289	67.2
98.71396	65.2
103.08183	69.2
107.4465	70.6
111.80798	72.6
116.16626	72.4
120.52136	72.6
124.87327	71.7
129.222	72.6
133.56755	75
137.90993	75.9
142.24913	78.9
146.58517	84.3
150.91804	89
155.24774	96.1
159.57429	108.2
163.89768	128.2
168.21792	166.2
172.53501	214.3
176.84895	284.5
181.15975	381.1
185.46741	518.3
189.77193	692.5
194.07331	926.7
198.37157	1173.8
202.6667	1430.8
206.9587	1694.3
211.24758	1962.2
215.53334	2234.9
219.81599	2532.9
224.09553	2888.5
228.37195	3273.8
232.64527	3684.2
236.91549	4104.6
241.18261	4487.6
245.44663	4824.2
249.70755	5111.1
253.96539	5325
258.22014	5487.7
262.4718	5605
266.72039	5645.9
270.96589	5607.1
275.20832	5557.5
279.44768	5453
283.68397	5352.7
287.91719	5289.7
292.14735	5271.5
296.37445	5365.8
300.59849	5544.1
304.81948	5725.4
309.03742	5887.9
313.25231	5886.4
317.46415	5650.7
321.67296	5314.2
325.87872	5007.4
330.08145	4889.5
334.28114	4894.5
338.47781	4985
342.67145	5118.2
346.86207	5320.1
351.04966	5598.7
355.23424	5935.6
359.4158	6179
363.59435	6279.8
367.76989	6289.7
371.94243	6241.4
376.11196	6227.6
380.27849	6192.4
384.44203	6119.8
388.60257	6051.8
392.76012	6034.7
396.91468	6100.9
401.06626	6262.4
405.21485	6346.6
409.36047	6203.4
413.50311	5878.1
417.64277	5600.3
421.77947	5468.7
425.9132	5420
430.04396	5467.1
434.17176	5530.5
438.2966	5707.2
442.41849	5941.1
446.53742	6236.9
450.6534	6494.6
454.76644	6585.1
458.87653	6513.4
462.98368	6353.4
467.08789	6150.4
471.18916	5939.8
475.2875	5702.9
479.38291	5557.9
483.4754	5396
487.56496	5290
491.6516	5220.5
495.73531	5173.4
499.81612	5146.7
503.89401	5211.4
507.96899	5282.8
512.04106	5365.2
516.11023	5456.2
520.1765	5488.6
524.23987	5498
528.30034	5461
532.35792	5365.1
536.41261	5262.7
540.46441	5104.4
544.51333	5038.9
548.55936	5056.4
552.60252	5198.3
556.64279	5350.5
560.6802	5431
564.71473	5556.5
568.7464	5798.9
572.7752	5924.9
576.80114	5786.1
580.82422	5668
584.84444	5701
588.86181	5918.1
592.87633	6227.5
596.888	6551
600.89682	6794.9
604.9028	7429.4
608.90594	9100.8
612.90624	10827.6
616.90371	9598.8
620.89834	6741.4
624.89015	5589.5
628.87913	5391.1
632.86528	5438.4
636.84862	5447
640.82913	5258
644.80683	4990.7
648.78172	4841.1
652.75379	4892.9
656.72306	5110.8
660.68952	5322
664.65319	5214.9
668.61405	4977.8
672.57211	4898.2
676.52738	4900.2
680.47986	4816.7
684.42955	4747.5
688.37646	4721.5
692.32058	4766.5
696.26192	4863.8
700.20048	4940.7
704.13626	4981.9
708.06928	4925.7
711.99952	4863.9
715.927	4812.7
719.85171	4832.5
723.77365	4818.2
727.69284	4753.8
731.60928	4701.6
735.52295	4747
739.43388	4780.9
743.34206	4813.5
747.24749	4806.4
751.15017	4846.3
755.05012	4967.4
758.94733	5319
762.8418	6084.9
766.73354	7184.4
770.62254	8118.8
774.50882	8532.6
778.39237	8050.5
782.27321	6923.2
786.15132	5839.7
790.02671	5196.8
793.89938	4908.8
797.76935	4783.8
801.6366	4715.6
805.50115	4666.5
809.36299	4625
813.22213	4594.2
817.07857	4567.3
820.93231	4578.7
824.78336	4610
828.63172	4648
832.47738	4652.3
836.32036	4651
840.16066	4614.8
843.99827	4579.1
847.8332	4553.3
851.66546	4538.6
855.49504	4541.4
859.32195	4513.1
863.1462	4494.4
866.96777	4451.9
870.78668	4440.4
874.60293	4450.2
878.41652	4484.3
882.22745	4523.2
886.03573	4562.6
889.84136	4525.4
893.64433	4513
897.44466	4500.4
901.24235	4482.4
905.0374	4466.8
908.8298	4418.7
912.61957	4419.8
916.40671	4435.2
920.19121	4480.9
923.97308	4576.8
927.75233	4656.7
931.52895	4671.2
935.30295	4573.3
939.07433	4413.2
942.84309	4281.7
946.60924	4212.5
950.37278	4179.2
954.13371	4150.4
957.89203	4115
961.64774	4109.8
965.40086	4091.9
969.15137	4065.6
972.89929	4057.5
976.64461	4051.6
980.38733	4070
984.12747	4085.5
987.86502	4121.6
991.59999	4181.2
995.33237	4265.4
999.06217	4430.3
1002.78939	4645.9
1006.51404	4816.2
1010.23611	4929.8
1013.95561	4969.4
1017.67255	4970.9
1021.38692	4815.4
1025.09872	4651.1
1028.80796	4595.7
1032.51465	4582.9
1036.21877	4655.9
1039.92035	4703.2
1043.61937	4706.4
1047.31584	4660.4
1051.00976	4584.2
1054.70114	4573.1
1058.38998	4533.3
1062.07627	4559.9
1065.76003	4583.4
1069.44126	4617.7
1073.11995	4708.9
1076.79611	4829.8
1080.46974	4959.4
1084.14085	5139.2
1087.80943	5274.8
1091.47549	5254
1095.13903	5104.4
1098.80005	4906.1
1102.45857	4754.5
1106.11456	4727.5
1109.76805	4776.6
1113.41903	4907.7
1117.06751	5117
1120.71348	5394
1124.35696	5683.4
1127.99793	5856.5
1131.63641	5726.8
1135.2724	5387.5
1138.90589	5128.5
1142.5369	4985.9
1146.16542	4913.3
1149.79145	4903.6
1153.415	4916.8
1157.03607	4992.8
1160.65467	5147.6
1164.27079	5391.8
1167.88443	5801.9
1171.49561	6449.9
1175.10432	7446.7
1178.71056	8671.6
1182.31434	9637.3
1185.91565	9974.8
1189.51451	9785.1
1193.11091	9250.9
1196.70485	8587.9
1200.29634	7872.2
1203.88538	7222.2
1207.47197	6619.4
1211.05612	6198.1
1214.63782	6061.5
1218.21708	6117.1
1221.79391	6242.5
1225.36829	6312.4
1228.94024	6269.2
1232.50976	6170.7
1236.07685	6115.9
1239.6415	6094.8
1243.20374	6073
1246.76355	6034.6
1250.32093	6067.1
1253.8759	6250.5
1257.42845	6476.3
1260.97859	6770
1264.52631	7069.6
1268.07163	7339.5
1271.61453	7580.4
1275.15503	7764.2
1278.69312	7887.8
1282.22882	8040.6
1285.76211	8357.3
1289.29301	8771
1292.82151	9181.1
1296.34761	9685.6
1299.87133	10380.2
1303.39266	11305.5
1306.9116	12574.7
1310.42815	13863.2
1313.94233	14510.3
1317.45412	14116.5
1320.96354	13080
1324.47058	11997.5
1327.97525	11166.3
1331.47754	10746.9
1334.97747	10619
1338.47502	10700.2
1341.97022	10935.7
1345.46305	11247
1348.95352	11724.9
1352.44163	12532.9
1355.92738	13759
1359.41078	15455.1
1362.89183	16417.4
1366.37053	15526.4
1369.84688	13308.7
1373.32088	11265
1376.79254	9974.3
1380.26186	9263.8
1383.72883	8834.7
1387.19347	8513.2
1390.65578	8221.3
1394.11575	8125.2
1397.57339	8184.4
1401.0287	8347.4
1404.48168	8494.9
1407.93234	8610.7
1411.38068	8565.4
1414.82669	8405.5
1418.27039	8099
1421.71177	7771.2
1425.15083	7599.9
1428.58758	7572.3
1432.02203	7705.5
1435.45416	7835
1438.88399	7886
1442.31151	7909.4
1445.73673	7923.9
1449.15965	7920.9
1452.58027	7887.9
1455.9986	7828.8
1459.41463	7838.8
1462.82837	7992.7
1466.23982	8225.8
1469.64898	8389.2
1473.05586	8510.1
1476.46045	8534.2
1479.86276	8593.1
1483.26279	8677.1
1486.66054	8780.3
1490.05602	8982.5
1493.44922	9292.1
1496.84016	9696.6
1500.22882	10321.5
1503.61521	11266.5
1506.99934	12307.2
1510.38121	13143.3
1513.76081	13281
1517.13816	12401.6
1520.51324	11017.6
1523.88607	9778.9
1527.25665	9091.1
1530.62498	8756
1533.99105	8596.2
1537.35488	8438.2
1540.71647	8328
1544.07581	8192.2
1547.4329	8057.3
1550.78776	7928.4
1554.14038	7796.7
1557.49077	7711.3
1560.83892	7718.5
1564.18484	7819.7
1567.52853	8017.5
1570.86999	8191.4
1574.20922	8314.5
1577.54624	8258.2
1580.88103	7865.8
1584.2136	7434.6
1587.54395	7389.8
1590.87208	7759.2
1594.19801	8488.5
1597.52172	9402.1
1600.84321	9830.8
1604.16251	9521.3
1607.47959	8626.3
1610.79447	7586.7
1614.10715	6672.6
1617.41763	6001
1620.7259	5623.5
1624.03199	5430.9
1627.33587	5472.5
1630.63757	5716.6
1633.93707	6203.5
1637.23439	7049.1
1640.52951	8263.9
1643.82246	9675.9
1647.11321	10798.9
1650.40179	11052.7
1653.68819	10106
1656.97241	8380.2
1660.25446	6775.1
1663.53433	5641
1666.81203	4938.2
1670.08756	4516.8
1673.36092	4258.7
1676.63211	4088.4
1679.90115	3955.3
1683.16801	3893.6
1686.43272	3814.7
1689.69527	3776.7
1692.95567	3740.3
1696.2139	3719.4
1699.46999	3703.8
1702.72392	3693.1
1705.97571	3679.4
1709.22535	3651.7
1712.47284	3630.9
1715.71819	3645
1718.96139	3653.4
1722.20246	3643.4
1725.44139	3612.7
1728.67818	3577.4
1731.91284	3535.5
1735.14537	3504.1
1738.37576	3470
1741.60403	3453.1
1744.83017	3441.8
1748.05418	3435.8
1751.27607	3417.8
1754.49584	3397.4
1757.71349	3399.8
1760.92903	3393.8
1764.14244	3372.6
1767.35375	3381.9
1770.56294	3361.8
1773.77002	3350.5
1776.97499	3351.2
1780.17785	3330.9
1783.37861	3327.3
1786.57727	3312
1789.77382	3302.8
1792.96828	3296.1
1796.16064	3290.5
1799.3509	3280.4
1802.53907	3283.4
1805.72514	3262.3
1808.90913	3260.5
1812.09102	3245.5
1815.27083	3239.9
1818.44856	3225.5
1821.6242	3205.9
1824.79776	3196.5
1827.96924	3192.5
1831.13864	3203.9
1834.30597	3186.7
1837.47122	3172.2
1840.6344	3178.6
1843.7955	3172.2
1846.95454	3166.5
1850.11151	3165.9
1853.26642	3160
1856.41926	3156.8
1859.57004	3158.4
1862.71876	3175.9
1865.86542	3175.4
1869.01003	3183.3
1872.15258	3188.4
1875.29308	3188
1878.43152	3176.2
1881.56792	3183.6
1884.70227	3185.9
1887.83457	3189.5
1890.96482	3180.9
1894.09304	3182
1897.21921	3191.2
1900.34335	3173.4
1903.46544	3186.3
1906.58551	3176.6
1909.70353	3189.4
1912.81953	3178.5
1915.93349	3175.8
1919.04543	3165.2
1922.15534	3164.4
1925.26322	3147.2
1928.36908	3140
1931.47292	3123.8
1934.57473	3103.6
1937.67453	3086.6
1940.77232	3071.3
1943.86808	3066.7
1946.96184	3050.6
1950.05358	3030.2
1953.14331	3028.2
1956.23103	3008.3
1959.31675	3013.3
1962.40046	2996.6
1965.48217	2993.2
1968.56188	2974.1
1971.63959	2988
1974.7153	2970.5
1977.78901	2937.8
1980.86073	2943.3
1983.93046	2929
1986.99819	2913.8
1990.06394	2895.4
1993.1277	2885.5
1996.18947	2879.5
1999.24925	2883
2002.30706	2878.5
2005.36288	2858.1
2008.41672	2855.9
2011.46859	2841.6
2014.51848	2839.5
2017.56639	2835.5
2020.61233	2823.9
2023.6563	2820.9
2026.6983	2818.2
2029.73833	2788.4
2032.7764	2784.8
2035.8125	2796.1
2038.84664	2779.8
2041.87881	2773.5
2044.90903	2790.4
2047.93729	2770
2050.96359	2780.6
2053.98794	2760.2
2057.01034	2764.2
2060.03078	2752.6
2063.04927	2752.4
2066.06582	2750.3
2069.08042	2754.5
2072.09307	2748.5
2075.10378	2740.6
2078.11255	2732.4
2081.11938	2737.5
2084.12426	2736.4
2087.12722	2735
2090.12824	2734
2093.12732	2739.9
2096.12447	2741.9
2099.11969	2724
2102.11299	2723.7
2105.10435	2738.4
2108.09379	2730.7
2111.08131	2739.3
2114.0669	2732.6
2117.05057	2742.9
2120.03233	2737.4
2123.01216	2750.3
2125.99008	2749.7
2128.96609	2757.2
2131.94018	2744.1
2134.91236	2744.2
2137.88263	2755.3
2140.851	2761.3
2143.81746	2742.2
2146.78201	2726.2
2149.74466	2742.9
2152.7054	2739.5
2155.66425	2735
2158.6212	2735.5
2161.57625	2733.9
2164.52941	2719.1
2167.48067	2722.9
2170.43004	2727.6
2173.37752	2710.2
2176.32311	2719.8
2179.26681	2735.8
2182.20863	2730.9
2185.14856	2724.5
2188.08661	2722.2
2191.02278	2722
2193.95707	2731.2
2196.88948	2724.3
2199.82001	2715.8
2202.74867	2711.3
2205.67545	2706.1
2208.60037	2701.6
2211.52341	2708.5
2214.44458	2699
2217.36388	2697.4
2220.28132	2696.9
2223.1969	2679
2226.11061	2666.7
2229.02246	2683.8
2231.93245	2662.4
2234.84058	2656.6
2237.74686	2657.1
2240.65128	2672.7
2243.55385	2666.4
2246.45456	2674.4
2249.35343	2649.1
2252.25044	2654.9
2255.14561	2657.4
2258.03893	2653.3
2260.93041	2649.6
2263.82004	2636.5
2266.70783	2633
2269.59378	2623.3
2272.4779	2628.2
2275.36017	2614.9
2278.24061	2604.5
2281.11922	2601.6
2283.996	2606.2
2286.87094	2581.5
2289.74405	2583
2292.61534	2575.6
2295.4848	2574.2
2298.35243	2585.9
2301.21824	2576.1
2304.08223	2571.2
2306.94439	2579
2309.80474	2580.4
2312.66327	2575.7
2315.51999	2582.6
2318.37489	2568.1
2321.22797	2574.8
2324.07925	2574.5
2326.92871	2573.2
2329.77637	2572.3
2332.62222	2565.7
2335.46626	2546.3
2338.3085	2559.8
2341.14893	2565.3
2343.98756	2561.7
2346.8244	2555.3
2349.65943	2568.8
2352.49267	2569
2355.32411	2569.8
2358.15376	2583.1
2360.98161	2580.1
2363.80768	2578
2366.63195	2581.7
2369.45444	2585.4
2372.27514	2597.3
2375.09405	2593
2377.91118	2577.5
2380.72652	2571.6
2383.54009	2557.7
2386.35187	2552.7
2389.16188	2545.5
2391.97011	2539.3
2394.77657	2527.1
2397.58125	2515.2
2400.38416	2523.7
2403.18529	2505.6
2405.98466	2512.6
2408.78226	2514.3
2411.57809	2496.4
2414.37216	2504.3
2417.16446	2498.5
2419.955	2497.4
2422.74378	2494.5
2425.5308	2503.2
2428.31606	2495.5
2431.09956	2489
2433.88131	2491.1
2436.6613	2487.9
2439.43954	2485
2442.21603	2483
2444.99077	2500.8
2447.76377	2512.6
2450.53501	2500.7
2453.30451	2493.5
2456.07226	2500.6
2458.83827	2493.8
2461.60254	2495.8
2464.36507	2497.9
2467.12586	2505.4
2469.88492	2506.4
2472.64224	2506.9
2475.39782	2504.1
2478.15167	2516.7
2480.90379	2516
2483.65417	2530.6
2486.40283	2532
2489.14976	2527.9
2491.89497	2528.6
2494.63845	2538.5
2497.3802	2538.2
2500.12024	2540.1
2502.85855	2544
2505.59514	2524.2
2508.33002	2516.5
2511.06318	2519.8
2513.79462	2518.1
2516.52435	2508.2
2519.25237	2489.8
2521.97867	2493.6
2524.70327	2491.8
2527.42616	2485.3
2530.14734	2479.5
2532.86681	2475.4
2535.58458	2481.3
2538.30065	2487.3
2541.01501	2479.4
2543.72768	2479.2
2546.43864	2486.8
2549.14791	2483.5
2551.85548	2486
2554.56136	2486.1
2557.26554	2490.5
2559.96803	2475
2562.66883	2473.8
2565.36794	2490.5
2568.06536	2474.9
2570.7611	2478.3
2573.45514	2478.2
2576.14751	2481.5
2578.83819	2460.3
2581.52719	2473.1
2584.21451	2465.1
2586.90015	2473.1
2589.58411	2476.8
2592.2664	2464.6
2594.94701	2468.2
2597.62594	2466.4
2600.30321	2459.8
2602.9788	2471.6
2605.65273	2462.7
2608.32498	2467.7
2610.99557	2473.7
2613.66449	2474.1
2616.33175	2466.8
2618.99734	2473.3
2621.66128	2464.5
2624.32355	2469.4
2626.98416	2476.4
2629.64311	2468.4
2632.30041	2469.8
2634.95605	2463.1
2637.61004	2461.8
2640.26238	2459.2
2642.91306	2459.2
2645.56209	2457.6
2648.20948	2457.1
2650.85521	2448.6
2653.4993	2441.7
2656.14175	2461.3
2658.78255	2465.3
2661.42171	2465.9
2664.05923	2467.9
2666.6951	2472.4
2669.32934	2486.1
2671.96194	2472.8
2674.59291	2473.1
2677.22224	2488.8
2679.84993	2482.6
2682.476	2496.3
2685.10043	2480.7
2687.72324	2485
2690.34441	2492.4
2692.96396	2477.6
2695.58188	2490.1
2698.19818	2478.5
2700.81285	2483.6
2703.4259	2487.9
2706.03733	2502.7
2708.64714	2492.3
2711.25533	2496.7
2713.86191	2506.9
2716.46687	2505.5
2719.07021	2530.6
2721.67194	2522.7
2724.27206	2516.5
2726.87057	2525.8
2729.46747	2522.4
2732.06276	2526.8
2734.65644	2523.7
2737.24852	2537.4
2739.83899	2523.4
2742.42786	2526.7
2745.01513	2506.7
2747.60079	2517.3
2750.18486	2520.6
2752.76733	2507.6
2755.3482	2498.4
2757.92747	2499.5
2760.50515	2491
2763.08123	2509.9
2765.65573	2494.6
2768.22863	2499.4
2770.79994	2511.8
2773.36967	2523.6
2775.9378	2507.2
2778.50435	2521.5
2781.06932	2516.9
2783.6327	2518.4
2786.1945	2516.7
2788.75471	2523.5
2791.31335	2525.3
2793.87041	2517.6
2796.42589	2515.5
2798.97979	2520.3
2801.53212	2511.1
2804.08288	2526.5
2806.63206	2519.3
2809.17967	2521.8
2811.72571	2523
2814.27018	2514.7
2816.81308	2516.2
2819.35442	2518.8
2821.89419	2522.3
2824.43239	2523.4
2826.96904	2523.1
2829.50412	2539.5
2832.03763	2535.5
2834.56959	2533.6
2837.1	2547.6
2839.62884	2567.1
2842.15613	2580.9
2844.68186	2616.7
2847.20604	2625.8
2849.72867	2665.5
2852.24974	2677.3
2854.76927	2679.3
2857.28724	2691.4
2859.80367	2687.2
2862.31855	2675.2
2864.83189	2672.9
2867.34368	2655
2869.85393	2648.5
2872.36264	2653.6
2874.8698	2634.1
2877.37543	2627.3
2879.87952	2630.8
2882.38207	2629
2884.88308	2629.7
2887.38256	2636.5
2889.88051	2630.1
2892.37692	2634
2894.8718	2642.6
2897.36515	2642.4
2899.85698	2649.8
2902.34727	2657.2
2904.83604	2660.8
2907.32328	2671.2
2909.809	2659.5
2912.29319	2669.3
2914.77587	2660
2917.25702	2646.8
2919.73665	2649.3
2922.21476	2654.1
2924.69136	2638.1
2927.16644	2621.1
2929.64	2607.7
2932.11205	2612.7
2934.58258	2602.7
2937.05161	2604.3
2939.51912	2598.3
2941.98513	2574.4
2944.44962	2537.9
2946.91261	2526.1
2949.37409	2506.2
2951.83407	2500.4
2954.29254	2504.9
2956.74951	2476.7
2959.20498	2473.4
2961.65895	2465
2964.11142	2476.9
2966.56239	2464
2969.01186	2449.6
2971.45984	2446.2
2973.90632	2433.1
2976.35131	2426
2978.7948	2422.4
2981.23681	2405.4
2983.67732	2399.2
2986.11635	2387.4
2988.55388	2381.6
2990.98993	2380.2
2993.4245	2364.5
2995.85758	2354.9
2998.28917	2352.9
3000.71928	2344.7
3003.14791	2332.3
3005.57506	2354.2
3008.00073	2329.3
3010.42493	2335.2
3012.84764	2331.1
3015.26888	2333.2
3017.68865	2322.1
3020.10694	2318.3
3022.52376	2308.2
3024.9391	2313.4
3027.35298	2303.3
3029.76539	2308.6
3032.17632	2308.6
3034.5858	2297.6
3036.9938	2294.2
3039.40034	2303.1
3041.80542	2291
3044.20903	2296.4
3046.61118	2284.6
3049.01187	2291.7
3051.4111	2282.9
3053.80888	2295.4
3056.20519	2271.2
3058.60005	2286.7
3060.99345	2269.3
3063.3854	2259.8
3065.7759	2267.3
3068.16494	2253
3070.55254	2250.1
3072.93868	2239.2
3075.32338	2237.9
3077.70662	2237.4
3080.08842	2237.9
3082.46878	2227.4
3084.84769	2224.4
3087.22515	2225.5
3089.60118	2227.6
3091.97576	2233.7
3094.3489	2227.4
3096.72061	2220
3099.09087	2226.5
3101.4597	2222.4
3103.82709	2225
3106.19305	2222.7
3108.55757	2230.2
3110.92066	2219.6
3113.28232	2225.4
3115.64255	2226.9
3118.00134	2219.6
3120.35871	2221.6
3122.71466	2227.5
3125.06917	2215.5
3127.42226	2225.8
3129.77393	2221.2
3132.12417	2230.5
3134.47299	2221.7
3136.82039	2230.7
3139.16636	2239.1
3141.51092	2229.9
3143.85406	2236.8
3146.19579	2247.4
3148.53609	2232.9
3150.87499	2264.8
3153.21246	2268.6
3155.54853	2263.8
3157.88318	2254.8
3160.21642	2276.2
3162.54826	2276.8
3164.87868	2273.9
3167.2077	2283.5
3169.5353	2290.5
3171.86151	2285
3174.18631	2292.6
3176.5097	2294
3178.83169	2304.5
3181.15228	2307.9
3183.47147	2298.1
3185.78926	2312
3188.10565	2289.4
3190.42065	2304.9
3192.73424	2303.7
3195.04645	2315.5
3197.35725	2311.6
3199.66667	2315.7
3201.97469	2317.8
3204.28132	2324.4
3206.58656	2320.8
3208.8904	2334
3211.19287	2329.3
3213.49394	2333.7
3215.79363	2346.5
3218.09193	2328.7
3220.38884	2333.4
3222.68438	2350.2
3224.97853	2347.9
3227.2713	2357.8
3229.56269	2341.7
3231.8527	2341.1
3234.14133	2357.6
3236.42858	2349
3238.71446	2348.5
3240.99896	2333.2
3243.28209	2338.5
3245.56384	2326.8
3247.84423	2341.6
3250.12324	2336
3252.40088	2322
3254.67715	2334.9
3256.95205	2324.7
3259.22558	2327.5
3261.49775	2335.6
3263.76855	2332.9
3266.03799	2315.9
3268.30606	2321.4
3270.57277	2325.3
3272.83812	2313.3
3275.10211	2301.5
3277.36474	2302.4
3279.62601	2298.7
3281.88593	2300.6
3284.14448	2302.8
3286.40168	2305.6
3288.65753	2299.6
3290.91202	2297.5
3293.16516	2290.9
3295.41695	2292.5
3297.66738	2297.7
3299.91647	2284.1
3302.16421	2276.5
3304.4106	2249.3
3306.65564	2239.5
3308.89933	2216.9
3311.14169	2205.4
3313.38269	2190.9
3315.62236	2186.1
3317.86068	2167.2
3320.09766	2143.8
3322.3333	2127.8
3324.5676	2117.3
3326.80056	2096.6
3329.03219	2076.4
3331.26248	-0.8
3333.49143	2.4
3335.71905	1.8
