Data from AgNPs_UA_1uM_CRN_0uM_R6G_10uM_Q_RamanShift__10__12-22-25-876.txt Node

Date: Wed Jul 13 12:22:25 BST 2022
User: TCL
Spectrometer: QEP01345
Trigger mode: 4
Integration Time (sec): 7.000000E0
Scans to average: 10
Electric dark correction enabled: true
Nonlinearity correction enabled: false
Boxcar width: 0
XAxis mode: Raman Shifts
Number of Pixels in Spectrum: 1044
>>>>>Begin Spectral Data<<<<<
46.04893	-1
50.45542	-0.3
54.85868	-2.3
59.25871	-0.9
63.6555	97.3
68.04907	102.8
72.43941	107.9
76.82654	111.9
81.21044	119.6
85.59113	117.5
89.96862	124.9
94.34289	131.7
98.71396	131.1
103.08183	134.9
107.4465	141.6
111.80798	139.7
116.16626	150.1
120.52136	153.2
124.87327	158.5
129.222	166.7
133.56755	175.9
137.90993	191.5
142.24913	210
146.58517	235.6
150.91804	267.9
155.24774	315.2
159.57429	390
163.89768	495.9
168.21792	659.7
172.53501	901.7
176.84895	1250
181.15975	1748.6
185.46741	2450.9
189.77193	3390.2
194.07331	4528.3
198.37157	5832
202.6667	7187.2
206.9587	8542.1
211.24758	9889.6
215.53334	11253.2
219.81599	12683.3
224.09553	14310.5
228.37195	16018.6
232.64527	17908.2
236.91549	19837.6
241.18261	21792.8
245.44663	23516.9
249.70755	25051.5
253.96539	26388.4
258.22014	27512.8
262.4718	28492
266.72039	29123.1
270.96589	29354.1
275.20832	29308.5
279.44768	29020.8
283.68397	28738.6
287.91719	28512
292.14735	28403
296.37445	28482.5
300.59849	28803.7
304.81948	29201.4
309.03742	29539.6
313.25231	29662
317.46415	29314.5
321.67296	28642.9
325.87872	28105.9
330.08145	27835.2
334.28114	27861.1
338.47781	28173.8
342.67145	28652.6
346.86207	29236.8
351.04966	29982.2
355.23424	30700.5
359.4158	31210.3
363.59435	31537.9
367.76989	31727.8
371.94243	31777.8
376.11196	31813
380.27849	31805.3
384.44203	31907.1
388.60257	32104.6
392.76012	32372.4
396.91468	32789
401.06626	33276
405.21485	33561.6
409.36047	33298
413.50311	32696
417.64277	32301.5
421.77947	32241.9
425.9132	32327.8
430.04396	32462
434.17176	32612.6
438.2966	32821
442.41849	33283.1
446.53742	33828.5
450.6534	34398.7
454.76644	34868
458.87653	34994.4
462.98368	34964.6
467.08789	34734.4
471.18916	34431
475.2875	33927.2
479.38291	33594
483.4754	33353
487.56496	33168.6
491.6516	33136.9
495.73531	33112.8
499.81612	33169.4
503.89401	33426.4
507.96899	33622.3
512.04106	33706
516.11023	33756
520.1765	33723.1
524.23987	33677.8
528.30034	33598.4
532.35792	33437.4
536.41261	33210.8
540.46441	32917.2
544.51333	32859.6
548.55936	33127.1
552.60252	33558.4
556.64279	34119.5
560.6802	34457.6
564.71473	34695.6
568.7464	35135.4
572.7752	35613.9
576.80114	35996.3
580.82422	36426.8
584.84444	37072.5
588.86181	37874.3
592.87633	38538.7
596.888	38658.6
600.89682	38464.7
604.9028	39571.8
608.90594	43449.3
612.90624	47231.6
616.90371	44133.9
620.89834	37562.7
624.89015	35005.3
628.87913	34701.6
632.86528	35106.9
636.84862	35275.8
640.82913	34880.1
644.80683	34169.2
648.78172	33775
652.75379	33923
656.72306	34499
660.68952	35023.4
664.65319	34824.8
668.61405	34376.6
672.57211	34405.5
676.52738	34562.4
680.47986	34357.4
684.42955	34052.4
688.37646	33991
692.32058	34203.5
696.26192	34653.5
700.20048	35079.2
704.13626	35310.6
708.06928	35257.9
711.99952	35062.6
715.927	34981.6
719.85171	35107.2
723.77365	35047.3
727.69284	34748.1
731.60928	34439
735.52295	34446.5
739.43388	34466
743.34206	34624.2
747.24749	34786.6
751.15017	35021.1
755.05012	35359.8
758.94733	36270.1
762.8418	38092.2
766.73354	40895.9
770.62254	43164.6
774.50882	43325.7
778.39237	41822.5
782.27321	39662.1
786.15132	37623.6
790.02671	36233
793.89938	35555.1
797.76935	35191.2
801.6366	35008.5
805.50115	34964.9
809.36299	34800
813.22213	34665.2
817.07857	34644.2
820.93231	34626.6
824.78336	34605.2
828.63172	34614.8
832.47738	34594.3
836.32036	34497.5
840.16066	34530.7
843.99827	34549.6
847.8332	34595.5
851.66546	34663.6
855.49504	34715.5
859.32195	34724.6
863.1462	34674.8
866.96777	34692
870.78668	34757.8
874.60293	34849.8
878.41652	34945.5
882.22745	35093.7
886.03573	35245
889.84136	35250.9
893.64433	35230.1
897.44466	35129.8
901.24235	35023.2
905.0374	34978.5
908.8298	34885.7
912.61957	34851.8
916.40671	34984.3
920.19121	35166
923.97308	35418.4
927.75233	35644.9
931.52895	35549.3
935.30295	35227.8
939.07433	34708.9
942.84309	34435.6
946.60924	34312.1
950.37278	34265.8
954.13371	34232.4
957.89203	34148.2
961.64774	34127.6
965.40086	34109.5
969.15137	34077.6
972.89929	34027.5
976.64461	33978.3
980.38733	34025.6
984.12747	34012.2
987.86502	34164.3
991.59999	34240.2
995.33237	34493.1
999.06217	34742.1
1002.78939	35131.5
1006.51404	35606.2
1010.23611	36136.3
1013.95561	36406.8
1017.67255	36446.1
1021.38692	36214.5
1025.09872	35848.3
1028.80796	35509.8
1032.51465	35404.4
1036.21877	35449
1039.92035	35421.8
1043.61937	35562.5
1047.31584	35655.5
1051.00976	35682.6
1054.70114	35816.7
1058.38998	35922.2
1062.07627	36197.5
1065.76003	36407
1069.44126	36782.4
1073.11995	37391.7
1076.79611	38012.2
1080.46974	38398.2
1084.14085	38733.2
1087.80943	38970.2
1091.47549	39132.8
1095.13903	38924.3
1098.80005	38500.5
1102.45857	38086.9
1106.11456	37747.9
1109.76805	37427.2
1113.41903	37372.2
1117.06751	37631.4
1120.71348	38034.9
1124.35696	38536.9
1127.99793	38958.2
1131.63641	38856.7
1135.2724	38285.5
1138.90589	37887.7
1142.5369	37716.7
1146.16542	37547.2
1149.79145	37562.9
1153.415	37513.9
1157.03607	37615.1
1160.65467	38016.3
1164.27079	38830.8
1167.88443	40022.5
1171.49561	41517.5
1175.10432	43731.2
1178.71056	46529.6
1182.31434	48786.1
1185.91565	49629.1
1189.51451	49257.8
1193.11091	48345.9
1196.70485	47075.3
1200.29634	45782.6
1203.88538	44676.3
1207.47197	43587.4
1211.05612	42668.2
1214.63782	41815.8
1218.21708	41095.2
1221.79391	40551.5
1225.36829	40386.6
1228.94024	40292.5
1232.50976	40135.1
1236.07685	39951.9
1239.6415	39828.8
1243.20374	39786.8
1246.76355	39911.5
1250.32093	40184.6
1253.8759	40595.3
1257.42845	41431.2
1260.97859	42457.6
1264.52631	43427.4
1268.07163	44199.2
1271.61453	44871.7
1275.15503	45423.7
1278.69312	45856.4
1282.22882	46251.9
1285.76211	46955.5
1289.29301	47995.8
1292.82151	49096.9
1296.34761	50352.6
1299.87133	52107.1
1303.39266	54392
1306.9116	57281.5
1310.42815	60157.7
1313.94233	61472.8
1317.45412	60338.4
1320.96354	58318.1
1324.47058	56423.1
1327.97525	55005.6
1331.47754	53980.8
1334.97747	53530.3
1338.47502	53570.3
1341.97022	54046.4
1345.46305	55133
1348.95352	56695.2
1352.44163	58098.5
1355.92738	59840.1
1359.41078	62485.9
1362.89183	64959.1
1366.37053	63449.7
1369.84688	57981.4
1373.32088	52018.6
1376.79254	48285.9
1380.26186	46597.9
1383.72883	45824.7
1387.19347	45311.4
1390.65578	44502.5
1394.11575	43902.2
1397.57339	43535.2
1401.0287	43401.8
1404.48168	43293.5
1407.93234	43285.3
1411.38068	43102.7
1414.82669	42682.6
1418.27039	42174
1421.71177	41713.9
1425.15083	41181.2
1428.58758	41098.2
1432.02203	41406.5
1435.45416	41905.8
1438.88399	42404.9
1442.31151	42531.7
1445.73673	42660.8
1449.15965	42676.4
1452.58027	42503
1455.9986	42424.8
1459.41463	42593.1
1462.82837	43080.5
1466.23982	43731.7
1469.64898	44188.7
1473.05586	44644.7
1476.46045	44824.7
1479.86276	44943.6
1483.26279	45231.4
1486.66054	45622.1
1490.05602	46389.3
1493.44922	47402.5
1496.84016	49049.1
1500.22882	51469.9
1503.61521	54683.3
1506.99934	57942.2
1510.38121	60184.5
1513.76081	60058.2
1517.13816	57295.9
1520.51324	53453
1523.88607	50324.5
1527.25665	48453
1530.62498	47562.6
1533.99105	46984.7
1537.35488	46400.4
1540.71647	45771.1
1544.07581	45049.5
1547.4329	44469.6
1550.78776	44010.4
1554.14038	43666.5
1557.49077	43601.8
1560.83892	43815.7
1564.18484	44308.5
1567.52853	44927.7
1570.86999	45409.2
1574.20922	45836.2
1577.54624	45780.9
1580.88103	44806.1
1584.2136	43809.5
1587.54395	43541.3
1590.87208	44323.2
1594.19801	45867
1597.52172	47627.7
1600.84321	48070.5
1604.16251	47103.9
1607.47959	45491.7
1610.79447	43577.4
1614.10715	41513.6
1617.41763	39528
1620.7259	38208.8
1624.03199	37457.6
1627.33587	37384.1
1630.63757	37851.9
1633.93707	39164.3
1637.23439	41441.2
1640.52951	45139.8
1643.82246	49605.9
1647.11321	53649.7
1650.40179	55088.5
1653.68819	52587.4
1656.97241	47351.1
1660.25446	42139
1663.53433	38498.1
1666.81203	36279.6
1670.08756	34921.8
1673.36092	34066.3
1676.63211	33483.2
1679.90115	33099.5
1683.16801	32775.5
1686.43272	32557.1
1689.69527	32344.2
1692.95567	32232
1696.2139	32145.3
1699.46999	32060.8
1702.72392	32016.7
1705.97571	32010.9
1709.22535	32005.8
1712.47284	32028.8
1715.71819	31999.3
1718.96139	31953.2
1722.20246	31836.9
1725.44139	31799.7
1728.67818	31675.2
1731.91284	31553.7
1735.14537	31440.3
1738.37576	31358.5
1741.60403	31237.5
1744.83017	31152.4
1748.05418	31153.1
1751.27607	31032.7
1754.49584	31021.2
1757.71349	31021.6
1760.92903	30930.6
1764.14244	30898
1767.35375	30914.6
1770.56294	30841
1773.77002	30803.1
1776.97499	30819.2
1780.17785	30752.5
1783.37861	30672.7
1786.57727	30619.9
1789.77382	30543.8
1792.96828	30564.6
1796.16064	30493.7
1799.3509	30496.5
1802.53907	30483.2
1805.72514	30381.7
1808.90913	30329.3
1812.09102	30248.3
1815.27083	30164.3
1818.44856	30101.1
1821.6242	30090.9
1824.79776	30006.1
1827.96924	29979
1831.13864	29941.8
1834.30597	29941.1
1837.47122	29918.3
1840.6344	29876.3
1843.7955	29871.8
1846.95454	29838.7
1850.11151	29810.6
1853.26642	29808.3
1856.41926	29828.8
1859.57004	29708.7
1862.71876	29717.5
1865.86542	29747.4
1869.01003	29726.3
1872.15258	29640.6
1875.29308	29636.5
1878.43152	29580
1881.56792	29546.8
1884.70227	29494.8
1887.83457	29497.6
1890.96482	29445.7
1894.09304	29371.6
1897.21921	29374.6
1900.34335	29305.9
1903.46544	29262
1906.58551	29245.3
1909.70353	29208.4
1912.81953	29195.9
1915.93349	29182.6
1919.04543	29097.3
1922.15534	29060.3
1925.26322	28966.8
1928.36908	28953.8
1931.47292	28866.9
1934.57473	28812.5
1937.67453	28721.8
1940.77232	28646.5
1943.86808	28601
1946.96184	28555.3
1950.05358	28467.1
1953.14331	28347
1956.23103	28270.5
1959.31675	28224.8
1962.40046	28152.6
1965.48217	28091.7
1968.56188	27992.5
1971.63959	27914.4
1974.7153	27836.3
1977.78901	27738.6
1980.86073	27648.7
1983.93046	27603.6
1986.99819	27481.5
1990.06394	27416.3
1993.1277	27365.8
1996.18947	27254.9
1999.24925	27194
2002.30706	27162.4
2005.36288	27031.9
2008.41672	26970.9
2011.46859	26878.2
2014.51848	26807.4
2017.56639	26720.2
2020.61233	26674.1
2023.6563	26537.7
2026.6983	26523.6
2029.73833	26443.6
2032.7764	26397.2
2035.8125	26304.8
2038.84664	26288.1
2041.87881	26247.5
2044.90903	26213.7
2047.93729	26091.8
2050.96359	26104.8
2053.98794	26061.7
2057.01034	26040.2
2060.03078	26008.4
2063.04927	26000.9
2066.06582	26015.7
2069.08042	25936.2
2072.09307	25936.3
2075.10378	25861.2
2078.11255	25878.7
2081.11938	25886.2
2084.12426	25828
2087.12722	25854.1
2090.12824	25828.1
2093.12732	25826.2
2096.12447	25844
2099.11969	25834.3
2102.11299	25802.5
2105.10435	25847.2
2108.09379	25849.2
2111.08131	25881
2114.0669	25885.6
2117.05057	25935.2
2120.03233	25939.6
2123.01216	25989.4
2125.99008	26016.2
2128.96609	26018.6
2131.94018	26026.8
2134.91236	26016.7
2137.88263	26101.7
2140.851	26076.8
2143.81746	26085.9
2146.78201	26085.7
2149.74466	26130.7
2152.7054	26133.3
2155.66425	26111.8
2158.6212	26059.6
2161.57625	26021.8
2164.52941	26039.9
2167.48067	26049.3
2170.43004	26045.9
2173.37752	25994.6
2176.32311	26046.1
2179.26681	26104.2
2182.20863	26005.7
2185.14856	26066.1
2188.08661	26053.6
2191.02278	26055.8
2193.95707	26016.4
2196.88948	25983.7
2199.82001	25946.5
2202.74867	25943.5
2205.67545	25940.1
2208.60037	25866.4
2211.52341	25803.9
2214.44458	25800.4
2217.36388	25735.7
2220.28132	25691.9
2223.1969	25604.2
2226.11061	25576.9
2229.02246	25556
2231.93245	25515.4
2234.84058	25433.9
2237.74686	25400
2240.65128	25424.2
2243.55385	25358.7
2246.45456	25344
2249.35343	25333
2252.25044	25259.4
2255.14561	25209.1
2258.03893	25225.2
2260.93041	25162.6
2263.82004	25076.7
2266.70783	25052.2
2269.59378	24997.8
2272.4779	24942.3
2275.36017	24866.9
2278.24061	24804.5
2281.11922	24797.4
2283.996	24748.3
2286.87094	24733.9
2289.74405	24663.9
2292.61534	24625.1
2295.4848	24586
2298.35243	24586.2
2301.21824	24543.2
2304.08223	24518.9
2306.94439	24524.1
2309.80474	24525.8
2312.66327	24552.7
2315.51999	24460.6
2318.37489	24444.7
2321.22797	24392.6
2324.07925	24355.4
2326.92871	24331.8
2329.77637	24301
2332.62222	24260.4
2335.46626	24202.5
2338.3085	24166.5
2341.14893	24113.8
2343.98756	24087.4
2346.8244	24034.3
2349.65943	24092.6
2352.49267	24060.1
2355.32411	24110
2358.15376	24109.8
2360.98161	24112.4
2363.80768	24065.7
2366.63195	24054.5
2369.45444	24043.8
2372.27514	24037.6
2375.09405	24004.6
2377.91118	23939.7
2380.72652	23898.4
2383.54009	23807.6
2386.35187	23764.6
2389.16188	23702.1
2391.97011	23666.2
2394.77657	23622.1
2397.58125	23572.9
2400.38416	23525.4
2403.18529	23471.8
2405.98466	23462.3
2408.78226	23448.8
2411.57809	23409.7
2414.37216	23375.4
2417.16446	23415.5
2419.955	23353.5
2422.74378	23385.5
2425.5308	23318.8
2428.31606	23352.6
2431.09956	23306.3
2433.88131	23286.1
2436.6613	23279.1
2439.43954	23258.9
2442.21603	23259.8
2444.99077	23209.6
2447.76377	23217.2
2450.53501	23185.7
2453.30451	23178
2456.07226	23139.3
2458.83827	23109.5
2461.60254	23066.2
2464.36507	23033.2
2467.12586	22987.6
2469.88492	23005.8
2472.64224	23011.1
2475.39782	22978.3
2478.15167	22960.2
2480.90379	22931.5
2483.65417	22981.1
2486.40283	22959.6
2489.14976	22948.7
2491.89497	22938.7
2494.63845	22952.2
2497.3802	22900.5
2500.12024	22915.1
2502.85855	22842
2505.59514	22841.1
2508.33002	22790.7
2511.06318	22759.7
2513.79462	22693.2
2516.52435	22638.4
2519.25237	22682.8
2521.97867	22613.6
2524.70327	22584.3
2527.42616	22579.7
2530.14734	22562.9
2532.86681	22511.3
2535.58458	22503.4
2538.30065	22492.4
2541.01501	22476.4
2543.72768	22420.8
2546.43864	22383.7
2549.14791	22362.3
2551.85548	22308.1
2554.56136	22299.9
2557.26554	22268.1
2559.96803	22234.2
2562.66883	22200.2
2565.36794	22148.3
2568.06536	22075.3
2570.7611	22040.8
2573.45514	22076.4
2576.14751	22060.5
2578.83819	21989.8
2581.52719	21980
2584.21451	21919.3
2586.90015	21860.4
2589.58411	21818.8
2592.2664	21803.8
2594.94701	21766.1
2597.62594	21744.2
2600.30321	21647.8
2602.9788	21623.1
2605.65273	21612.4
2608.32498	21605.8
2610.99557	21574.2
2613.66449	21592
2616.33175	21537.4
2618.99734	21563.8
2621.66128	21532.7
2624.32355	21485.7
2626.98416	21423
2629.64311	21423.8
2632.30041	21427.4
2634.95605	21401.6
2637.61004	21315.4
2640.26238	21270.2
2642.91306	21229.8
2645.56209	21185.6
2648.20948	21192.5
2650.85521	21165
2653.4993	21181.1
2656.14175	21166.5
2658.78255	21208.4
2661.42171	21210
2664.05923	21235.8
2666.6951	21226.7
2669.32934	21232.9
2671.96194	21182.8
2674.59291	21228.1
2677.22224	21241.4
2679.84993	21270.8
2682.476	21215.1
2685.10043	21229.4
2687.72324	21185.3
2690.34441	21154.8
2692.96396	21197.3
2695.58188	21164
2698.19818	21151
2700.81285	21191.4
2703.4259	21156
2706.03733	21172
2708.64714	21200.7
2711.25533	21199.2
2713.86191	21180.5
2716.46687	21202
2719.07021	21184.8
2721.67194	21211.6
2724.27206	21195.6
2726.87057	21192.3
2729.46747	21210
2732.06276	21204
2734.65644	21177.8
2737.24852	21228.5
2739.83899	21175.9
2742.42786	21112.1
2745.01513	21060.1
2747.60079	21087.5
2750.18486	21047.8
2752.76733	20990
2755.3482	20986.1
2757.92747	20937.5
2760.50515	20905.6
2763.08123	20919.7
2765.65573	20880
2768.22863	20842.3
2770.79994	20844.1
2773.36967	20828.5
2775.9378	20800.7
2778.50435	20780.1
2781.06932	20767.6
2783.6327	20734.4
2786.1945	20686.5
2788.75471	20650.9
2791.31335	20605.7
2793.87041	20603.6
2796.42589	20541.6
2798.97979	20545.3
2801.53212	20445.4
2804.08288	20449.6
2806.63206	20328.3
2809.17967	20368.8
2811.72571	20247.3
2814.27018	20282.2
2816.81308	20210.4
2819.35442	20181.5
2821.89419	20119.5
2824.43239	20105.3
2826.96904	20122.7
2829.50412	20077
2832.03763	20022.6
2834.56959	20033.8
2837.1	19986.5
2839.62884	19974.7
2842.15613	19973.7
2844.68186	19979.8
2847.20604	19948.9
2849.72867	19913.2
2852.24974	19870.4
2854.76927	19866.9
2857.28724	19848.1
2859.80367	19859.2
2862.31855	19815.4
2864.83189	19807
2867.34368	19757.6
2869.85393	19740.8
2872.36264	19691.9
2874.8698	19693.9
2877.37543	19656.2
2879.87952	19641.2
2882.38207	19618.2
2884.88308	19590.9
2887.38256	19563.3
2889.88051	19558.7
2892.37692	19574.2
2894.8718	19543.4
2897.36515	19589.8
2899.85698	19574.9
2902.34727	19628.2
2904.83604	19557.5
2907.32328	19611.6
2909.809	19629.1
2912.29319	19666.3
2914.77587	19632.3
2917.25702	19619.3
2919.73665	19625.5
2922.21476	19614.3
2924.69136	19552.8
2927.16644	19531.5
2929.64	19527.8
2932.11205	19491.2
2934.58258	19414.8
2937.05161	19478
2939.51912	19461.7
2941.98513	19446.1
2944.44962	19409.8
2946.91261	19324
2949.37409	19361.1
2951.83407	19345.3
2954.29254	19384
2956.74951	19341.5
2959.20498	19324.4
2961.65895	19317.2
2964.11142	19344.9
2966.56239	19323.1
2969.01186	19372.1
2971.45984	19269.6
2973.90632	19312.9
2976.35131	19236.4
2978.7948	19233.5
2981.23681	19195.7
2983.67732	19170.9
2986.11635	19093.9
2988.55388	19055.2
2990.98993	19068.8
2993.4245	18984.2
2995.85758	18918.9
2998.28917	18909.6
3000.71928	18847.6
3003.14791	18806.2
3005.57506	18792
3008.00073	18788.8
3010.42493	18728.2
3012.84764	18666.6
3015.26888	18673.8
3017.68865	18616.8
3020.10694	18639.7
3022.52376	18577.6
3024.9391	18551.3
3027.35298	18529.5
3029.76539	18496.8
3032.17632	18466.7
3034.5858	18458.8
3036.9938	18431.7
3039.40034	18392
3041.80542	18332.9
3044.20903	18299.9
3046.61118	18285.8
3049.01187	18263.3
3051.4111	18255.9
3053.80888	18264.7
3056.20519	18218.1
3058.60005	18173
3060.99345	18145.4
3063.3854	18093.2
3065.7759	18049.6
3068.16494	18034.8
3070.55254	17919.5
3072.93868	17868.2
3075.32338	17824.8
3077.70662	17824.4
3080.08842	17768.3
3082.46878	17779.5
3084.84769	17752.3
3087.22515	17708.3
3089.60118	17704.7
3091.97576	17685.2
3094.3489	17705
3096.72061	17686.7
3099.09087	17695.6
3101.4597	17688.4
3103.82709	17685.2
3106.19305	17650.5
3108.55757	17630.5
3110.92066	17565.8
3113.28232	17563.9
3115.64255	17521
3118.00134	17499.8
3120.35871	17474.6
3122.71466	17435.7
3125.06917	17423.9
3127.42226	17373.9
3129.77393	17373.7
3132.12417	17326.1
3134.47299	17297
3136.82039	17263.1
3139.16636	17328.6
3141.51092	17321.1
3143.85406	17271
3146.19579	17277.1
3148.53609	17274.1
3150.87499	17285.9
3153.21246	17243.1
3155.54853	17278.1
3157.88318	17226.6
3160.21642	17265
3162.54826	17282
3164.87868	17287.1
3167.2077	17247
3169.5353	17246.4
3171.86151	17191
3174.18631	17210.4
3176.5097	17172.5
3178.83169	17120.2
3181.15228	17147
3183.47147	17091.2
3185.78926	17079.3
3188.10565	17006.4
3190.42065	16998.2
3192.73424	16996.9
3195.04645	16998.9
3197.35725	16969.8
3199.66667	16935.1
3201.97469	16960.2
3204.28132	16924.9
3206.58656	16967.1
3208.8904	16905.3
3211.19287	16936.2
3213.49394	16936.5
3215.79363	16914.5
3218.09193	16945.2
3220.38884	16948.5
3222.68438	16984.7
3224.97853	16929.1
3227.2713	16929.4
3229.56269	16875.6
3231.8527	16893.4
3234.14133	16840.4
3236.42858	16788.1
3238.71446	16789.3
3240.99896	16734
3243.28209	16700.4
3245.56384	16652.9
3247.84423	16682
3250.12324	16642.5
3252.40088	16614
3254.67715	16593.7
3256.95205	16599.4
3259.22558	16591.1
3261.49775	16580.4
3263.76855	16504.2
3266.03799	16530.5
3268.30606	16533.1
3270.57277	16503.9
3272.83812	16491.7
3275.10211	16406.1
3277.36474	16362
3279.62601	16369.6
3281.88593	16326.9
3284.14448	16344.5
3286.40168	16321.1
3288.65753	16306.7
3290.91202	16323.9
3293.16516	16275
3295.41695	16240.2
3297.66738	16155.4
3299.91647	16073.5
3302.16421	15964.6
3304.4106	15912.5
3306.65564	15814
3308.89933	15719
3311.14169	15616.1
3313.38269	15503.7
3315.62236	15414.7
3317.86068	15272.2
3320.09766	15162
3322.3333	15073.6
3324.5676	14981.1
3326.80056	14784.6
3329.03219	14676.9
3331.26248	4.7
3333.49143	0.8
3335.71905	-0.3
