Data from AgNPs_UA_2uM_CRN_0uM_R6G_10uM_Q_RamanShift__1__13-02-11-898.txt Node

Date: Wed Jul 13 13:02:11 BST 2022
User: TCL
Spectrometer: QEP01345
Trigger mode: 4
Integration Time (sec): 7.000000E0
Scans to average: 10
Electric dark correction enabled: true
Nonlinearity correction enabled: false
Boxcar width: 0
XAxis mode: Raman Shifts
Number of Pixels in Spectrum: 1044
>>>>>Begin Spectral Data<<<<<
46.04893	-0.9125
50.45542	-0.9125
54.85868	0.1875
59.25871	-1.8125
63.6555	111.2875
68.04907	117.4875
72.43941	116.0875
76.82654	124.6875
81.21044	128.9875
85.59113	134.2875
89.96862	138.7875
94.34289	142.3875
98.71396	148.4875
103.08183	149.9875
107.4465	155.1875
111.80798	163.5875
116.16626	168.5875
120.52136	175.7875
124.87327	180.1875
129.222	188.4875
133.56755	201.1875
137.90993	218.1875
142.24913	238.5875
146.58517	262.7875
150.91804	299.4875
155.24774	360.1875
159.57429	445.4875
163.89768	568.7875
168.21792	745.5875
172.53501	1016.6875
176.84895	1417.8875
181.15975	2008.4875
185.46741	2802.2875
189.77193	3875.4875
194.07331	5194.7875
198.37157	6696.7875
202.6667	8287.3875
206.9587	9837.9875
211.24758	11397.5875
215.53334	13005.5875
219.81599	14720.1875
224.09553	16564.8875
228.37195	18603.1875
232.64527	20843.2875
236.91549	23112.1875
241.18261	25355.2875
245.44663	27277.4875
249.70755	28975.6875
253.96539	30464.2875
258.22014	31749.8875
262.4718	32853.5875
266.72039	33571.1875
270.96589	33872.6875
275.20832	33827.8875
279.44768	33558.7875
283.68397	33155.6875
287.91719	32888.4875
292.14735	32754.0875
296.37445	32920.2875
300.59849	33386.2875
304.81948	33971.2875
309.03742	34466.5875
313.25231	34510.2875
317.46415	33972.9875
321.67296	33086.3875
325.87872	32291.3875
330.08145	31973.3875
334.28114	32054.0875
338.47781	32406.8875
342.67145	32964.5875
346.86207	33754.8875
351.04966	34673.3875
355.23424	35621.4875
359.4158	36304.7875
363.59435	36737.7875
367.76989	36959.8875
371.94243	36965.0875
376.11196	37043.9875
380.27849	37056.8875
384.44203	37030.3875
388.60257	37136.6875
392.76012	37437.7875
396.91468	37911.5875
401.06626	38516.4875
405.21485	38824.1875
409.36047	38490.2875
413.50311	37728.2875
417.64277	37057.8875
421.77947	36750.6875
425.9132	36747.1875
430.04396	36852.2875
434.17176	37057.0875
438.2966	37322.3875
442.41849	37805.7875
446.53742	38469.2875
450.6534	39067.0875
454.76644	39499.0875
458.87653	39689.6875
462.98368	39686.8875
467.08789	39507.7875
471.18916	39208.2875
475.2875	38739.6875
479.38291	38365.7875
483.4754	38111.0875
487.56496	37965.0875
491.6516	37933.5875
495.73531	37962.3875
499.81612	38085.0875
503.89401	38311.4875
507.96899	38469.1875
512.04106	38579.2875
516.11023	38670.0875
520.1765	38695.2875
524.23987	38697.4875
528.30034	38585.0875
532.35792	38398.7875
536.41261	38143.1875
540.46441	37817.4875
544.51333	37692.0875
548.55936	38004.5875
552.60252	38500.4875
556.64279	39036.9875
560.6802	39297.8875
564.71473	39611.9875
568.7464	40195.7875
572.7752	40466.4875
576.80114	40429.8875
580.82422	40589.8875
584.84444	40845.5875
588.86181	41247.0875
592.87633	41605.0875
596.888	41948.2875
600.89682	42583.0875
604.9028	44815.4875
608.90594	50324.8875
612.90624	55561.4875
616.90371	51701.5875
620.89834	43321.1875
624.89015	40045.3875
628.87913	39694.6875
632.86528	40178.4875
636.84862	40513.2875
640.82913	40062.5875
644.80683	39290.9875
648.78172	38745.5875
652.75379	38955.4875
656.72306	39653.0875
660.68952	40478.6875
664.65319	40155.6875
668.61405	39525.7875
672.57211	39575.6875
676.52738	39734.1875
680.47986	39477.6875
684.42955	39151.1875
688.37646	39085.4875
692.32058	39354.5875
696.26192	39887.8875
700.20048	40305.5875
704.13626	40526.8875
708.06928	40454.3875
711.99952	40235.6875
715.927	40141.8875
719.85171	40280.7875
723.77365	40221.1875
727.69284	39919.1875
731.60928	39603.1875
735.52295	39509.5875
739.43388	39628.5875
743.34206	39709.4875
747.24749	39792.0875
751.15017	39968.5875
755.05012	40444.4875
758.94733	41386.2875
762.8418	43661.2875
766.73354	47098.7875
770.62254	49909.9875
774.50882	50401.0875
778.39237	48686.3875
782.27321	45949.0875
786.15132	43294.5875
790.02671	41584.5875
793.89938	40694.1875
797.76935	40276.1875
801.6366	40028.3875
805.50115	39945.3875
809.36299	39854.1875
813.22213	39788.7875
817.07857	39711.0875
820.93231	39690.8875
824.78336	39684.2875
828.63172	39849.2875
832.47738	39799.7875
836.32036	39735.8875
840.16066	39696.8875
843.99827	39666.9875
847.8332	39702.1875
851.66546	39800.0875
855.49504	39839.3875
859.32195	39904.2875
863.1462	39877.4875
866.96777	39903.1875
870.78668	39942.9875
874.60293	40030.1875
878.41652	40193.7875
882.22745	40462.1875
886.03573	40520.8875
889.84136	40544.4875
893.64433	40391.1875
897.44466	40321.4875
901.24235	40227.8875
905.0374	40161.3875
908.8298	40028.5875
912.61957	39994.0875
916.40671	40079.6875
920.19121	40303.8875
923.97308	40580.1875
927.75233	40763.1875
931.52895	40740.2875
935.30295	40508.5875
939.07433	40000.6875
942.84309	39595.8875
946.60924	39465.8875
950.37278	39370.4875
954.13371	39338.5875
957.89203	39264.9875
961.64774	39283.6875
965.40086	39251.5875
969.15137	39262.3875
972.89929	39210.6875
976.64461	39170.1875
980.38733	39196.5875
984.12747	39273.2875
987.86502	39395.0875
991.59999	39549.2875
995.33237	39735.7875
999.06217	40009.6875
1002.78939	40355.5875
1006.51404	40841.1875
1010.23611	41384.9875
1013.95561	41602.9875
1017.67255	41595.0875
1021.38692	41392.9875
1025.09872	41112.0875
1028.80796	40798.5875
1032.51465	40716.6875
1036.21877	40782.9875
1039.92035	40871.7875
1043.61937	40935.6875
1047.31584	41066.5875
1051.00976	41168.2875
1054.70114	41223.9875
1058.38998	41355.1875
1062.07627	41637.3875
1065.76003	41974.1875
1069.44126	42351.3875
1073.11995	42985.9875
1076.79611	43638.0875
1080.46974	44091.9875
1084.14085	44424.3875
1087.80943	44806.4875
1091.47549	44931.4875
1095.13903	44734.5875
1098.80005	44281.2875
1102.45857	43830.5875
1106.11456	43431.7875
1109.76805	43156.1875
1113.41903	43060.3875
1117.06751	43338.8875
1120.71348	43892.3875
1124.35696	44489.3875
1127.99793	45066.7875
1131.63641	44786.4875
1135.2724	44061.2875
1138.90589	43516.1875
1142.5369	43170.4875
1146.16542	43030.8875
1149.79145	42960.3875
1153.415	42686.4875
1157.03607	42752.4875
1160.65467	43130.0875
1164.27079	43845.9875
1167.88443	45027.0875
1171.49561	46639.8875
1175.10432	49023.9875
1178.71056	52080.9875
1182.31434	54431.3875
1185.91565	55079.1875
1189.51451	54617.5875
1193.11091	53555.9875
1196.70485	52278.5875
1200.29634	51098.8875
1203.88538	50008.7875
1207.47197	48667.0875
1211.05612	47610.5875
1214.63782	46721.2875
1218.21708	45948.1875
1221.79391	45438.5875
1225.36829	45180.5875
1228.94024	44982.0875
1232.50976	44917.4875
1236.07685	44891.9875
1239.6415	44918.1875
1243.20374	45006.8875
1246.76355	45250.3875
1250.32093	45577.3875
1253.8759	45995.2875
1257.42845	46869.2875
1260.97859	47804.8875
1264.52631	48740.4875
1268.07163	49583.7875
1271.61453	50235.6875
1275.15503	50639.6875
1278.69312	50862.3875
1282.22882	51228.8875
1285.76211	51847.2875
1289.29301	52758.9875
1292.82151	53699.2875
1296.34761	54712.2875
1299.87133	56334.4875
1303.39266	58553.6875
1306.9116	61751.3875
1310.42815	64990.0875
1313.94233	66384.1875
1317.45412	64950.7875
1320.96354	62511.8875
1324.47058	60313.3875
1327.97525	58583.0875
1331.47754	57573.4875
1334.97747	57290.7875
1338.47502	57528.9875
1341.97022	58288.9875
1345.46305	59892.1875
1348.95352	62119.3875
1352.44163	64289.6875
1355.92738	66625.9875
1359.41078	70259.3875
1362.89183	73480.4875
1366.37053	71598.2875
1369.84688	64785.7875
1373.32088	58079.0875
1376.79254	53904.0875
1380.26186	51839.1875
1383.72883	50819.3875
1387.19347	50099.4875
1390.65578	49073.2875
1394.11575	48080.5875
1397.57339	47315.9875
1401.0287	46974.4875
1404.48168	46822.1875
1407.93234	46814.2875
1411.38068	46841.3875
1414.82669	46787.8875
1418.27039	46516.0875
1421.71177	46155.0875
1425.15083	45719.7875
1428.58758	45524.7875
1432.02203	45766.8875
1435.45416	46242.2875
1438.88399	46567.5875
1442.31151	46673.6875
1445.73673	46838.9875
1449.15965	46923.3875
1452.58027	46900.7875
1455.9986	46744.4875
1459.41463	46734.5875
1462.82837	47101.2875
1466.23982	47721.4875
1469.64898	48350.4875
1473.05586	48915.5875
1476.46045	49284.1875
1479.86276	49647.0875
1483.26279	50192.7875
1486.66054	50913.0875
1490.05602	51987.3875
1493.44922	53459.1875
1496.84016	55562.4875
1500.22882	58849.5875
1503.61521	62922.5875
1506.99934	67115.5875
1510.38121	70086.1875
1513.76081	69890.6875
1517.13816	66088.9875
1520.51324	60754.5875
1523.88607	56450.9875
1527.25665	53886.0875
1530.62498	52489.2875
1533.99105	51746.0875
1537.35488	51032.8875
1540.71647	50336.8875
1544.07581	49746.6875
1547.4329	49332.1875
1550.78776	48923.9875
1554.14038	48750.1875
1557.49077	48831.0875
1560.83892	49240.2875
1564.18484	49954.7875
1567.52853	50846.5875
1570.86999	51589.4875
1574.20922	51991.5875
1577.54624	51784.6875
1580.88103	50444.2875
1584.2136	48868.8875
1587.54395	48219.3875
1590.87208	48627.9875
1594.19801	49908.7875
1597.52172	51477.0875
1600.84321	52019.0875
1604.16251	51284.8875
1607.47959	50062.0875
1610.79447	48509.9875
1614.10715	46518.8875
1617.41763	44750.3875
1620.7259	43469.5875
1624.03199	42762.0875
1627.33587	42619.7875
1630.63757	42990.1875
1633.93707	44051.2875
1637.23439	46062.7875
1640.52951	49245.3875
1643.82246	53684.5875
1647.11321	58150.1875
1650.40179	60302.0875
1653.68819	58407.8875
1656.97241	53340.2875
1660.25446	47982.4875
1663.53433	44175.4875
1666.81203	41761.9875
1670.08756	40366.3875
1673.36092	39485.0875
1676.63211	38832.8875
1679.90115	38470.2875
1683.16801	38124.3875
1686.43272	37821.2875
1689.69527	37696.0875
1692.95567	37512.3875
1696.2139	37417.8875
1699.46999	37431.3875
1702.72392	37365.1875
1705.97571	37350.5875
1709.22535	37289.4875
1712.47284	37322.9875
1715.71819	37320.8875
1718.96139	37312.7875
1722.20246	37230.4875
1725.44139	37132.4875
1728.67818	37034.8875
1731.91284	36895.8875
1735.14537	36716.0875
1738.37576	36615.1875
1741.60403	36499.5875
1744.83017	36465.0875
1748.05418	36378.3875
1751.27607	36337.3875
1754.49584	36321.9875
1757.71349	36259.1875
1760.92903	36211.1875
1764.14244	36119.5875
1767.35375	36135.1875
1770.56294	36087.3875
1773.77002	36089.0875
1776.97499	35997.4875
1780.17785	35951.0875
1783.37861	35877.9875
1786.57727	35843.2875
1789.77382	35798.7875
1792.96828	35777.8875
1796.16064	35733.7875
1799.3509	35640.1875
1802.53907	35620.2875
1805.72514	35555.1875
1808.90913	35467.2875
1812.09102	35432.8875
1815.27083	35318.0875
1818.44856	35250.1875
1821.6242	35226.0875
1824.79776	35189.4875
1827.96924	35170.0875
1831.13864	35088.5875
1834.30597	35064.7875
1837.47122	35081.1875
1840.6344	34964.7875
1843.7955	34995.7875
1846.95454	34932.7875
1850.11151	34907.7875
1853.26642	34878.8875
1856.41926	34863.1875
1859.57004	34885.6875
1862.71876	34830.5875
1865.86542	34818.1875
1869.01003	34774.5875
1872.15258	34746.1875
1875.29308	34712.7875
1878.43152	34712.7875
1881.56792	34679.0875
1884.70227	34616.4875
1887.83457	34526.0875
1890.96482	34513.7875
1894.09304	34420.5875
1897.21921	34455.9875
1900.34335	34462.2875
1903.46544	34437.1875
1906.58551	34369.5875
1909.70353	34334.2875
1912.81953	34255.6875
1915.93349	34263.4875
1919.04543	34228.4875
1922.15534	34131.3875
1925.26322	34054.9875
1928.36908	34040.7875
1931.47292	33991.7875
1934.57473	33952.2875
1937.67453	33907.0875
1940.77232	33779.3875
1943.86808	33693.2875
1946.96184	33630.8875
1950.05358	33515.3875
1953.14331	33446.3875
1956.23103	33303.8875
1959.31675	33293.7875
1962.40046	33223.0875
1965.48217	33140.6875
1968.56188	33025.4875
1971.63959	32953.2875
1974.7153	32834.8875
1977.78901	32770.0875
1980.86073	32648.7875
1983.93046	32557.3875
1986.99819	32431.4875
1990.06394	32374.8875
1993.1277	32266.3875
1996.18947	32157.3875
1999.24925	32145.0875
2002.30706	32084.5875
2005.36288	31970.5875
2008.41672	31874.5875
2011.46859	31786.2875
2014.51848	31669.1875
2017.56639	31622.7875
2020.61233	31516.4875
2023.6563	31468.1875
2026.6983	31407.8875
2029.73833	31278.3875
2032.7764	31193.9875
2035.8125	31154.7875
2038.84664	31102.3875
2041.87881	31030.8875
2044.90903	30968.0875
2047.93729	30936.2875
2050.96359	30958.2875
2053.98794	30897.7875
2057.01034	30892.6875
2060.03078	30855.0875
2063.04927	30772.8875
2066.06582	30771.7875
2069.08042	30735.9875
2072.09307	30777.7875
2075.10378	30707.6875
2078.11255	30700.1875
2081.11938	30725.3875
2084.12426	30635.5875
2087.12722	30644.7875
2090.12824	30576.5875
2093.12732	30600.7875
2096.12447	30666.3875
2099.11969	30652.4875
2102.11299	30659.8875
2105.10435	30699.7875
2108.09379	30738.9875
2111.08131	30720.5875
2114.0669	30752.6875
2117.05057	30777.9875
2120.03233	30810.6875
2123.01216	30825.2875
2125.99008	30830.7875
2128.96609	30883.2875
2131.94018	30893.9875
2134.91236	30945.3875
2137.88263	30955.1875
2140.851	31032.8875
2143.81746	31030.3875
2146.78201	31051.0875
2149.74466	31056.6875
2152.7054	31074.5875
2155.66425	31016.8875
2158.6212	30971.7875
2161.57625	30995.9875
2164.52941	31012.5875
2167.48067	31014.4875
2170.43004	30999.6875
2173.37752	30975.7875
2176.32311	30963.4875
2179.26681	30941.2875
2182.20863	30926.4875
2185.14856	30992.2875
2188.08661	30972.5875
2191.02278	30953.5875
2193.95707	30911.1875
2196.88948	30938.9875
2199.82001	30876.9875
2202.74867	30867.2875
2205.67545	30836.6875
2208.60037	30776.2875
2211.52341	30762.0875
2214.44458	30744.5875
2217.36388	30640.7875
2220.28132	30588.8875
2223.1969	30493.7875
2226.11061	30456.2875
2229.02246	30391.0875
2231.93245	30344.5875
2234.84058	30324.2875
2237.74686	30316.5875
2240.65128	30271.8875
2243.55385	30248.4875
2246.45456	30295.1875
2249.35343	30191.3875
2252.25044	30244.5875
2255.14561	30202.7875
2258.03893	30197.5875
2260.93041	30121.9875
2263.82004	30014.1875
2266.70783	29984.1875
2269.59378	29861.0875
2272.4779	29806.9875
2275.36017	29757.6875
2278.24061	29702.7875
2281.11922	29648.3875
2283.996	29600.8875
2286.87094	29573.4875
2289.74405	29504.3875
2292.61534	29508.3875
2295.4848	29470.5875
2298.35243	29470.2875
2301.21824	29407.7875
2304.08223	29382.3875
2306.94439	29357.6875
2309.80474	29364.9875
2312.66327	29379.6875
2315.51999	29316.6875
2318.37489	29298.7875
2321.22797	29262.7875
2324.07925	29192.5875
2326.92871	29138.6875
2329.77637	29162.6875
2332.62222	29093.9875
2335.46626	29017.3875
2338.3085	29007.3875
2341.14893	28981.5875
2343.98756	28927.0875
2346.8244	28916.2875
2349.65943	28904.6875
2352.49267	28861.4875
2355.32411	28910.0875
2358.15376	28952.5875
2360.98161	28902.3875
2363.80768	28885.1875
2366.63195	28876.6875
2369.45444	28880.3875
2372.27514	28859.8875
2375.09405	28813.2875
2377.91118	28781.5875
2380.72652	28770.2875
2383.54009	28651.6875
2386.35187	28576.2875
2389.16188	28496.1875
2391.97011	28452.4875
2394.77657	28356.7875
2397.58125	28338.9875
2400.38416	28335.3875
2403.18529	28236.4875
2405.98466	28222.8875
2408.78226	28142.2875
2411.57809	28129.5875
2414.37216	28128.2875
2417.16446	28109.3875
2419.955	28039.8875
2422.74378	28086.5875
2425.5308	28060.3875
2428.31606	28050.9875
2431.09956	28031.7875
2433.88131	27940.6875
2436.6613	27966.6875
2439.43954	27995.5875
2442.21603	27923.7875
2444.99077	27899.2875
2447.76377	27950.5875
2450.53501	27880.2875
2453.30451	27892.9875
2456.07226	27896.0875
2458.83827	27809.5875
2461.60254	27802.2875
2464.36507	27738.1875
2467.12586	27666.2875
2469.88492	27659.5875
2472.64224	27662.4875
2475.39782	27670.0875
2478.15167	27729.8875
2480.90379	27695.8875
2483.65417	27769.7875
2486.40283	27741.0875
2489.14976	27753.1875
2491.89497	27675.2875
2494.63845	27679.8875
2497.3802	27692.0875
2500.12024	27689.7875
2502.85855	27635.0875
2505.59514	27559.7875
2508.33002	27571.1875
2511.06318	27552.4875
2513.79462	27404.1875
2516.52435	27329.9875
2519.25237	27363.2875
2521.97867	27276.4875
2524.70327	27305.1875
2527.42616	27206.8875
2530.14734	27213.7875
2532.86681	27172.2875
2535.58458	27181.5875
2538.30065	27096.2875
2541.01501	27108.6875
2543.72768	27037.1875
2546.43864	27055.6875
2549.14791	26996.7875
2551.85548	27001.1875
2554.56136	26931.0875
2557.26554	26888.3875
2559.96803	26857.3875
2562.66883	26815.4875
2565.36794	26754.2875
2568.06536	26720.5875
2570.7611	26641.7875
2573.45514	26618.7875
2576.14751	26609.8875
2578.83819	26533.1875
2581.52719	26528.8875
2584.21451	26449.2875
2586.90015	26419.7875
2589.58411	26373.5875
2592.2664	26375.2875
2594.94701	26254.7875
2597.62594	26300.5875
2600.30321	26205.1875
2602.9788	26184.8875
2605.65273	26184.0875
2608.32498	26078.4875
2610.99557	26039.2875
2613.66449	26070.7875
2616.33175	26074.7875
2618.99734	26072.0875
2621.66128	26028.2875
2624.32355	25967.3875
2626.98416	25902.3875
2629.64311	25872.8875
2632.30041	25842.4875
2634.95605	25783.7875
2637.61004	25753.2875
2640.26238	25705.6875
2642.91306	25655.6875
2645.56209	25677.9875
2648.20948	25650.4875
2650.85521	25605.6875
2653.4993	25659.3875
2656.14175	25665.0875
2658.78255	25660.9875
2661.42171	25667.3875
2664.05923	25662.3875
2666.6951	25653.0875
2669.32934	25655.2875
2671.96194	25637.8875
2674.59291	25650.6875
2677.22224	25638.9875
2679.84993	25680.8875
2682.476	25664.3875
2685.10043	25690.7875
2687.72324	25670.8875
2690.34441	25664.8875
2692.96396	25641.7875
2695.58188	25652.8875
2698.19818	25629.3875
2700.81285	25671.0875
2703.4259	25605.4875
2706.03733	25673.9875
2708.64714	25648.7875
2711.25533	25689.3875
2713.86191	25666.2875
2716.46687	25691.6875
2719.07021	25709.8875
2721.67194	25670.0875
2724.27206	25628.9875
2726.87057	25662.4875
2729.46747	25702.0875
2732.06276	25707.6875
2734.65644	25717.2875
2737.24852	25701.6875
2739.83899	25626.9875
2742.42786	25617.5875
2745.01513	25562.5875
2747.60079	25443.3875
2750.18486	25439.8875
2752.76733	25443.5875
2755.3482	25403.0875
2757.92747	25402.0875
2760.50515	25334.5875
2763.08123	25330.8875
2765.65573	25298.3875
2768.22863	25293.3875
2770.79994	25239.5875
2773.36967	25177.6875
2775.9378	25212.8875
2778.50435	25187.2875
2781.06932	25107.2875
2783.6327	25085.8875
2786.1945	25031.3875
2788.75471	25060.0875
2791.31335	24963.0875
2793.87041	24944.6875
2796.42589	24910.4875
2798.97979	24925.2875
2801.53212	24842.9875
2804.08288	24803.3875
2806.63206	24735.5875
2809.17967	24682.0875
2811.72571	24642.1875
2814.27018	24606.6875
2816.81308	24569.2875
2819.35442	24536.0875
2821.89419	24439.9875
2824.43239	24408.9875
2826.96904	24375.2875
2829.50412	24342.5875
2832.03763	24292.5875
2834.56959	24309.1875
2837.1	24270.8875
2839.62884	24263.5875
2842.15613	24252.2875
2844.68186	24244.5875
2847.20604	24203.5875
2849.72867	24186.8875
2852.24974	24150.1875
2854.76927	24109.6875
2857.28724	24129.1875
2859.80367	24086.0875
2862.31855	24039.2875
2864.83189	23998.4875
2867.34368	23982.0875
2869.85393	23966.0875
2872.36264	23923.8875
2874.8698	23869.6875
2877.37543	23876.7875
2879.87952	23846.9875
2882.38207	23788.6875
2884.88308	23768.2875
2887.38256	23832.6875
2889.88051	23781.8875
2892.37692	23800.5875
2894.8718	23806.2875
2897.36515	23840.8875
2899.85698	23799.3875
2902.34727	23853.1875
2904.83604	23802.5875
2907.32328	23919.4875
2909.809	23899.8875
2912.29319	23878.5875
2914.77587	23861.6875
2917.25702	23896.3875
2919.73665	23855.0875
2922.21476	23866.3875
2924.69136	23771.4875
2927.16644	23764.6875
2929.64	23734.9875
2932.11205	23755.7875
2934.58258	23668.9875
2937.05161	23669.8875
2939.51912	23683.2875
2941.98513	23710.3875
2944.44962	23671.0875
2946.91261	23600.7875
2949.37409	23620.5875
2951.83407	23567.5875
2954.29254	23615.6875
2956.74951	23611.7875
2959.20498	23653.4875
2961.65895	23607.0875
2964.11142	23607.3875
2966.56239	23589.8875
2969.01186	23603.3875
2971.45984	23546.5875
2973.90632	23514.3875
2976.35131	23494.8875
2978.7948	23495.7875
2981.23681	23453.4875
2983.67732	23460.1875
2986.11635	23379.4875
2988.55388	23324.8875
2990.98993	23324.3875
2993.4245	23240.4875
2995.85758	23205.2875
2998.28917	23120.9875
3000.71928	23111.1875
3003.14791	23051.3875
3005.57506	23057.0875
3008.00073	22955.3875
3010.42493	22967.9875
3012.84764	22896.3875
3015.26888	22880.5875
3017.68865	22833.2875
3020.10694	22786.9875
3022.52376	22755.0875
3024.9391	22768.4875
3027.35298	22707.6875
3029.76539	22704.1875
3032.17632	22662.5875
3034.5858	22610.5875
3036.9938	22598.3875
3039.40034	22579.2875
3041.80542	22541.9875
3044.20903	22479.4875
3046.61118	22464.5875
3049.01187	22396.4875
3051.4111	22392.1875
3053.80888	22331.6875
3056.20519	22301.5875
3058.60005	22277.2875
3060.99345	22243.3875
3063.3854	22173.2875
3065.7759	22158.4875
3068.16494	22117.3875
3070.55254	22019.2875
3072.93868	21987.5875
3075.32338	21929.2875
3077.70662	21903.1875
3080.08842	21853.6875
3082.46878	21833.2875
3084.84769	21818.4875
3087.22515	21808.0875
3089.60118	21796.3875
3091.97576	21774.1875
3094.3489	21704.3875
3096.72061	21724.8875
3099.09087	21704.6875
3101.4597	21718.3875
3103.82709	21692.0875
3106.19305	21653.3875
3108.55757	21659.4875
3110.92066	21625.0875
3113.28232	21615.8875
3115.64255	21532.6875
3118.00134	21527.3875
3120.35871	21443.5875
3122.71466	21418.9875
3125.06917	21415.1875
3127.42226	21355.5875
3129.77393	21389.8875
3132.12417	21332.0875
3134.47299	21253.8875
3136.82039	21292.5875
3139.16636	21248.6875
3141.51092	21216.8875
3143.85406	21226.5875
3146.19579	21199.9875
3148.53609	21225.8875
3150.87499	21262.7875
3153.21246	21218.3875
3155.54853	21291.4875
3157.88318	21211.7875
3160.21642	21272.3875
3162.54826	21245.9875
3164.87868	21205.4875
3167.2077	21188.3875
3169.5353	21164.0875
3171.86151	21184.6875
3174.18631	21150.3875
3176.5097	21103.7875
3178.83169	21058.5875
3181.15228	21036.6875
3183.47147	20995.2875
3185.78926	20994.3875
3188.10565	20945.7875
3190.42065	20894.4875
3192.73424	20910.7875
3195.04645	20845.4875
3197.35725	20803.8875
3199.66667	20792.1875
3201.97469	20797.7875
3204.28132	20769.9875
3206.58656	20825.3875
3208.8904	20830.5875
3211.19287	20831.7875
3213.49394	20804.2875
3215.79363	20766.1875
3218.09193	20791.6875
3220.38884	20764.4875
3222.68438	20858.2875
3224.97853	20787.7875
3227.2713	20813.8875
3229.56269	20781.4875
3231.8527	20756.1875
3234.14133	20690.4875
3236.42858	20669.1875
3238.71446	20639.9875
3240.99896	20569.3875
3243.28209	20542.3875
3245.56384	20520.6875
3247.84423	20526.6875
3250.12324	20494.6875
3252.40088	20469.3875
3254.67715	20453.5875
3256.95205	20393.4875
3259.22558	20428.9875
3261.49775	20428.8875
3263.76855	20419.6875
3266.03799	20436.9875
3268.30606	20423.1875
3270.57277	20353.0875
3272.83812	20314.6875
3275.10211	20288.3875
3277.36474	20207.1875
3279.62601	20203.2875
3281.88593	20105.0875
3284.14448	20136.5875
3286.40168	20149.8875
3288.65753	20145.2875
3290.91202	20114.5875
3293.16516	20072.7875
3295.41695	20054.2875
3297.66738	19912.4875
3299.91647	19842.5875
3302.16421	19722.6875
3304.4106	19608.2875
3306.65564	19481.5875
3308.89933	19324.4875
3311.14169	19226.9875
3313.38269	19082.4875
3315.62236	18980.5875
3317.86068	18830.6875
3320.09766	18710.9875
3322.3333	18617.8875
3324.5676	18537.1875
3326.80056	18255.8875
3329.03219	18135.6875
3331.26248	2.6875
3333.49143	0.4875
3335.71905	0.1875
