EXPLAIN
TAG	CHRONOA
TITLE	LABEL	Chronoamperometry Scan	Test Identifier
DATE	LABEL	15/12/2021	Date
TIME	LABEL	19:22:06	Time
NOTES	NOTES	1	Notes...
	
PSTAT	PSTAT	IFC1010-21051	Potentiostat
VPRESTEP	POTEN	1.00000E-001	F	Pre-step Voltage (V)
TPRESTEP	QUANT	5.00000E-001	Pre-step Delay Time (s)
VSTEP1	POTEN	2.00000E-001	F	Step 1 Voltage (V)
TSTEP1	QUANT	3.60000E+002	Step 1 Time (s)
VSTEP2	POTEN	3.00000E-001	F	Step 2 Voltage (V)
TSTEP2	QUANT	1.00000E+000	Step 2 Time (s)
SAMPLETIME	QUANT	1.00000E-001	Sample Period (s)
DECIMATE	TOGGLE	T	Decimate
ILIMIT	QUANT	1.00000E+000	Limit I (mA/cm^2)
IMODE	SELECTOR	1	I/E Range Mode
IRANGE	QUANT	3.00000E-001	Max Current (mA)
EQDELAY	QUANT	5.00000E+000	Equil. Time (s)
SAMPLINGMODE	SELECTOR	1	Sampling Mode
AREA	QUANT	1.00000E+000	Sample Area (cm^2)
IRCOMP	SELECTOR	0	IRComp
PFCOR	QUANT	5.00000E+001	PF Corr. (ohm)
SEQUENCER	TOGGLE	TRUE	Run as Sequence
PSTATMODEL	IQUANT	64	Pstat Model
PSTATSECTION	LABEL	IFC1010-21051	Pstat Section
PSTATSERIALNO	LABEL	21051	Pstat Serial Number
CTRLMODE	IQUANT	1	Control Mode
ELECTROMETER	IQUANT	0	RE=0 or CS=1
IESTAB	IQUANT	0	I/E Stability
CASPEED	IQUANT	4	Control Amp Speed
CONVENTION	IQUANT	1	Current Convention
ICHRANGE	IQUANT	2	Ich Range
ICHRANGEMODE	TOGGLE	T	Ich Auto Range
ICHOFFSETENABLE	TOGGLE	F	Ich Offset Enable
ICHOFFSET	QUANT	0	Ich Offset (V)
ICHFILTER	IQUANT	3	Ich Filter
VCHRANGE	IQUANT	3	Vch Range
VCHRANGEMODE	TOGGLE	T	Vch Auto Range
VCHOFFSETENABLE	TOGGLE	F	Vch Offset Enable
VCHOFFSET	QUANT	0	Vch Offset (V)
VCHFILTER	IQUANT	3	Vch Filter
IERANGELOWERLIMIT	IQUANT	4	I/E Range Lower Limit
IERANGEMODE	TOGGLE	F	I/E AutoRange
IERANGE	IQUANT	9	I/E Range
ACHSELECT	IQUANT	0	Ach Select
ACHRANGE	IQUANT	2	Ach Range
ACHOFFSETENABLE	TOGGLE	F	Ach Offset Enable
ACHOFFSET	QUANT	0	Ach Offset (V)
ACHFILTER	IQUANT	1	Ach Filter
SENSECABLEID	IQUANT	14	Sense Cable ID
PWRCABLEID	IQUANT	14	Power Cable ID
DCCALDATE	LABEL	10/1/2020	DC Calibration Date
ACCALDATE	LABEL	4/2/2018	AC Calibration Date
FRAMEWORKVERSION	QUANT	7.06	Framework Version
INSTRUMENTVERSION	LABEL	4.30	Instrument Version
CURVE	TABLE	99
	Pt	T	Vf	Im	Vu	Sig	Ach	IERange	Over	Temp
	#	s	V vs. Ref.	A	V	V	V	#	bits	deg C
	0	-0.4	9.98470E-002	2.65153E-006	0.00000E+000	1.00006E-001	0.00000E+000	9	...........	1426.04
	1	-0.3	1.00142E-001	2.57092E-006	0.00000E+000	1.00006E-001	0.00000E+000	9	...........	1426.04
	2	-0.2	1.00220E-001	2.49534E-006	0.00000E+000	1.00006E-001	0.00000E+000	9	...........	1426.04
	3	-0.1	1.00220E-001	2.43458E-006	0.00000E+000	1.00006E-001	0.00000E+000	9	...........	1426.04
	4	0	1.00220E-001	2.35616E-006	0.00000E+000	1.00006E-001	0.00000E+000	9	...........	1426.04
	5	0.1	2.00221E-001	1.42205E-004	0.00000E+000	2.00005E-001	0.00000E+000	9	...........	1426.04
	6	0.2	2.00220E-001	7.12153E-005	0.00000E+000	2.00005E-001	0.00000E+000	9	...........	1426.04
	7	0.3	2.00219E-001	5.13681E-005	0.00000E+000	2.00005E-001	0.00000E+000	9	...........	1426.04
	8	0.4	2.00218E-001	4.15816E-005	0.00000E+000	2.00005E-001	0.00000E+000	9	...........	1426.04
	9	0.5	2.00219E-001	3.53662E-005	0.00000E+000	2.00005E-001	0.00000E+000	9	...........	1426.04
	10	0.6	2.00218E-001	3.09552E-005	0.00000E+000	2.00005E-001	0.00000E+000	9	...........	1426.04
	11	0.7	2.00218E-001	2.75583E-005	0.00000E+000	2.00005E-001	0.00000E+000	9	...........	1426.04
	12	0.8	2.00218E-001	2.48732E-005	0.00000E+000	2.00005E-001	0.00000E+000	9	...........	1426.04
	13	0.9	2.00217E-001	2.27046E-005	0.00000E+000	2.00005E-001	0.00000E+000	9	...........	1426.13
	14	1	2.00218E-001	2.08873E-005	0.00000E+000	2.00005E-001	0.00000E+000	9	...........	1426.13
	15	1.1	2.00219E-001	1.93452E-005	0.00000E+000	2.00005E-001	0.00000E+000	9	...........	1426.13
	16	1.2	2.00216E-001	1.80469E-005	0.00000E+000	2.00005E-001	0.00000E+000	9	...........	1426.13
	17	1.3	2.00216E-001	1.69130E-005	0.00000E+000	2.00005E-001	0.00000E+000	9	...........	1426.13
	18	1.4	2.00217E-001	1.58985E-005	0.00000E+000	2.00005E-001	0.00000E+000	9	...........	1426.13
	19	1.5	2.00219E-001	1.50243E-005	0.00000E+000	2.00005E-001	0.00000E+000	9	...........	1426.13
	20	1.6	2.00218E-001	1.42250E-005	0.00000E+000	2.00005E-001	0.00000E+000	9	...........	1426.13
	21	1.7	2.00217E-001	1.35185E-005	0.00000E+000	2.00005E-001	0.00000E+000	9	...........	1426.13
	22	1.8	2.00219E-001	1.28691E-005	0.00000E+000	2.00005E-001	0.00000E+000	9	...........	1426.13
	23	1.9	2.00217E-001	1.22721E-005	0.00000E+000	2.00005E-001	0.00000E+000	9	...........	1426.22
	24	2	2.00216E-001	1.17497E-005	0.00000E+000	2.00005E-001	0.00000E+000	9	...........	1426.22
	25	2.1	2.00218E-001	1.12668E-005	0.00000E+000	2.00005E-001	0.00000E+000	9	...........	1426.22
	26	2.2	2.00218E-001	1.08161E-005	0.00000E+000	2.00005E-001	0.00000E+000	9	...........	1426.22
	27	2.3	2.00218E-001	1.04060E-005	0.00000E+000	2.00005E-001	0.00000E+000	9	...........	1426.22
	28	2.4	2.00216E-001	1.00230E-005	0.00000E+000	2.00005E-001	0.00000E+000	9	...........	1426.22
	29	2.5	2.00219E-001	9.66670E-006	0.00000E+000	2.00005E-001	0.00000E+000	9	...........	1426.22
	30	2.6	2.00218E-001	9.32762E-006	0.00000E+000	2.00005E-001	0.00000E+000	9	...........	1426.22
	31	2.7	2.00217E-001	9.03288E-006	0.00000E+000	2.00005E-001	0.00000E+000	9	...........	1426.22
	32	2.8	2.00217E-001	8.74615E-006	0.00000E+000	2.00005E-001	0.00000E+000	9	...........	1426.22
	33	2.9	2.00216E-001	8.47197E-006	0.00000E+000	2.00005E-001	0.00000E+000	9	...........	1426.22
	34	3	2.00216E-001	8.22452E-006	0.00000E+000	2.00005E-001	0.00000E+000	9	...........	1426.22
	35	3.1	2.00216E-001	7.98220E-006	0.00000E+000	2.00005E-001	0.00000E+000	9	...........	1426.22
	36	3.2	2.00217E-001	7.72740E-006	0.00000E+000	2.00005E-001	0.00000E+000	9	...........	1426.22
	37	3.3	2.00215E-001	7.50531E-006	0.00000E+000	2.00005E-001	0.00000E+000	9	...........	1426.22
	38	3.4	2.00215E-001	7.26820E-006	0.00000E+000	2.00005E-001	0.00000E+000	9	...........	1426.22
	39	3.5	2.00217E-001	7.03509E-006	0.00000E+000	2.00005E-001	0.00000E+000	9	...........	1426.22
	40	3.6	2.00217E-001	6.84856E-006	0.00000E+000	2.00005E-001	0.00000E+000	9	...........	1426.22
	41	3.7	2.00217E-001	6.63861E-006	0.00000E+000	2.00005E-001	0.00000E+000	9	...........	1426.22
	42	3.8	2.00216E-001	6.45265E-006	0.00000E+000	2.00005E-001	0.00000E+000	9	...........	1426.22
	43	3.9	2.00218E-001	6.26983E-006	0.00000E+000	2.00005E-001	0.00000E+000	9	...........	1426.13
	44	4	2.00216E-001	6.11317E-006	0.00000E+000	2.00005E-001	0.00000E+000	9	...........	1426.13
	45	4.1	2.00218E-001	5.96479E-006	0.00000E+000	2.00005E-001	0.00000E+000	9	...........	1426.13
	46	4.2	2.00218E-001	5.80852E-006	0.00000E+000	2.00005E-001	0.00000E+000	9	...........	1426.13
	47	4.3	2.00216E-001	5.64696E-006	0.00000E+000	2.00005E-001	0.00000E+000	9	...........	1426.13
	48	4.4	2.00217E-001	5.50171E-006	0.00000E+000	2.00005E-001	0.00000E+000	9	...........	1426.13
	49	4.5	2.00218E-001	5.35172E-006	0.00000E+000	2.00005E-001	0.00000E+000	9	...........	1426.13
	50	4.6	2.00215E-001	5.20447E-006	0.00000E+000	2.00005E-001	0.00000E+000	9	...........	1426.13
	51	4.7	2.00216E-001	5.08388E-006	0.00000E+000	2.00005E-001	0.00000E+000	9	...........	1426.13
	52	4.8	2.00217E-001	4.95771E-006	0.00000E+000	2.00005E-001	0.00000E+000	9	...........	1426.13
	53	4.9	2.00217E-001	4.80742E-006	0.00000E+000	2.00005E-001	0.00000E+000	9	...........	1426.13
	54	5	2.00218E-001	4.69644E-006	0.00000E+000	2.00005E-001	0.00000E+000	9	...........	1426.13
	55	5.1	2.00216E-001	4.56558E-006	0.00000E+000	2.00005E-001	0.00000E+000	9	...........	1426.13
	56	5.2	2.00217E-001	4.46751E-006	0.00000E+000	2.00005E-001	0.00000E+000	9	...........	1426.13
	57	5.3	2.00217E-001	4.36747E-006	0.00000E+000	2.00005E-001	0.00000E+000	9	...........	1426.13
	58	5.4	2.00215E-001	4.25399E-006	0.00000E+000	2.00005E-001	0.00000E+000	9	...........	1426.13
	59	5.5	2.00219E-001	4.17110E-006	0.00000E+000	2.00005E-001	0.00000E+000	9	...........	1426.13
	60	5.6	2.00217E-001	4.07971E-006	0.00000E+000	2.00005E-001	0.00000E+000	9	...........	1426.13
	61	5.7	2.00216E-001	4.01054E-006	0.00000E+000	2.00005E-001	0.00000E+000	9	...........	1426.13
	62	5.8	2.00216E-001	3.94407E-006	0.00000E+000	2.00005E-001	0.00000E+000	9	...........	1426.13
	63	5.9	2.00216E-001	3.86342E-006	0.00000E+000	2.00005E-001	0.00000E+000	9	...........	1426.13
	64	6	2.00217E-001	3.78787E-006	0.00000E+000	2.00005E-001	0.00000E+000	9	...........	1426.13
	65	6.1	2.00216E-001	3.73038E-006	0.00000E+000	2.00005E-001	0.00000E+000	9	...........	1426.13
	66	7.1	2.00219E-001	3.14808E-006	0.00000E+000	2.00005E-001	0.00000E+000	9	...........	1426.13
	67	8.1	2.00218E-001	2.54973E-006	0.00000E+000	2.00005E-001	0.00000E+000	9	...........	1426.22
	68	9.1	2.00219E-001	2.14998E-006	0.00000E+000	2.00005E-001	0.00000E+000	9	...........	1426.22
	69	10.1	2.00217E-001	2.03947E-006	0.00000E+000	2.00005E-001	0.00000E+000	9	...........	1426.22
	70	11.1	2.00217E-001	1.99325E-006	0.00000E+000	2.00005E-001	0.00000E+000	9	...........	1426.13
	71	12.1	2.00218E-001	1.85675E-006	0.00000E+000	2.00005E-001	0.00000E+000	9	...........	1426.22
	72	13.1	2.00216E-001	1.64453E-006	0.00000E+000	2.00005E-001	0.00000E+000	9	...........	1426.22
	73	14.1	2.00216E-001	1.60652E-006	0.00000E+000	2.00005E-001	0.00000E+000	9	...........	1426.22
	74	15.1	2.00216E-001	1.50201E-006	0.00000E+000	2.00005E-001	0.00000E+000	9	...........	1426.22
	75	16.1	2.00213E-001	1.15883E-006	0.00000E+000	2.00005E-001	0.00000E+000	9	...........	1426.22
	76	26.1	2.00217E-001	6.35854E-007	0.00000E+000	2.00005E-001	0.00000E+000	9	...........	1426.22
	77	36.1	2.00219E-001	2.23562E-007	0.00000E+000	2.00005E-001	0.00000E+000	9	...........	1426.22
	78	46.1	2.00216E-001	7.11712E-008	0.00000E+000	2.00005E-001	0.00000E+000	9	...........	1426.22
	79	56.1	2.00218E-001	-3.78726E-007	0.00000E+000	2.00005E-001	0.00000E+000	9	...........	1426.22
	80	66.1	2.00218E-001	7.04705E-008	0.00000E+000	2.00005E-001	0.00000E+000	9	...........	1426.22
	81	76.1	2.00217E-001	-9.05957E-008	0.00000E+000	2.00005E-001	0.00000E+000	9	...........	1426.13
	82	86.1	2.00216E-001	-1.81823E-007	0.00000E+000	2.00005E-001	0.00000E+000	9	...........	1426.22
	83	96.1	2.00217E-001	-1.27934E-007	0.00000E+000	2.00005E-001	0.00000E+000	9	...........	1426.22
	84	106.1	2.00218E-001	-1.69310E-007	0.00000E+000	2.00005E-001	0.00000E+000	9	...........	1426.22
	85	116.1	2.00218E-001	-2.98998E-008	0.00000E+000	2.00005E-001	0.00000E+000	9	...........	1426.22
	86	216.1	2.00218E-001	-2.16125E-007	0.00000E+000	2.00005E-001	0.00000E+000	9	...........	1426.13
	87	316.1	2.00217E-001	-2.93538E-007	0.00000E+000	2.00005E-001	0.00000E+000	9	...........	1426.22
	88	360	2.00218E-001	-6.12034E-007	0.00000E+000	2.00005E-001	0.00000E+000	9	...........	1426.22
	89	360.1	3.00236E-001	1.85777E-004	0.00000E+000	3.00005E-001	0.00000E+000	9	...........	1426.22
	90	360.2	3.00187E-001	1.18186E-004	0.00000E+000	3.00005E-001	0.00000E+000	9	...........	1426.22
	91	360.3	3.00188E-001	9.40418E-005	0.00000E+000	3.00005E-001	0.00000E+000	9	...........	1426.22
	92	360.4	3.00180E-001	8.05910E-005	0.00000E+000	3.00005E-001	0.00000E+000	9	...........	1426.22
	93	360.5	3.00188E-001	7.15575E-005	0.00000E+000	3.00005E-001	0.00000E+000	9	...........	1426.22
	94	360.6	3.00200E-001	6.49223E-005	0.00000E+000	3.00005E-001	0.00000E+000	9	...........	1426.22
	95	360.7	3.00198E-001	5.98124E-005	0.00000E+000	3.00005E-001	0.00000E+000	9	...........	1426.22
	96	360.8	3.00191E-001	5.56766E-005	0.00000E+000	3.00005E-001	0.00000E+000	9	...........	1426.22
	97	360.9	3.00195E-001	5.22312E-005	0.00000E+000	3.00005E-001	0.00000E+000	9	...........	1426.22
	98	361	3.00199E-001	4.93515E-005	0.00000E+000	3.00005E-001	0.00000E+000	9	...........	1426.22
