EXPLAIN
TAG	CHRONOA
TITLE	LABEL	Chronoamperometry Scan	Test Identifier
DATE	LABEL	15/12/2021	Date
TIME	LABEL	16:51:37	Time
NOTES	NOTES	1	Notes...
	
PSTAT	PSTAT	IFC1010-21051	Potentiostat
VPRESTEP	POTEN	-7.00000E-001	F	Pre-step Voltage (V)
TPRESTEP	QUANT	5.00000E-001	Pre-step Delay Time (s)
VSTEP1	POTEN	-8.00000E-001	F	Step 1 Voltage (V)
TSTEP1	QUANT	3.60000E+002	Step 1 Time (s)
VSTEP2	POTEN	-7.00000E-001	F	Step 2 Voltage (V)
TSTEP2	QUANT	1.00000E+000	Step 2 Time (s)
SAMPLETIME	QUANT	1.00000E-001	Sample Period (s)
DECIMATE	TOGGLE	T	Decimate
ILIMIT	QUANT	1.00000E+000	Limit I (mA/cm^2)
IMODE	SELECTOR	1	I/E Range Mode
IRANGE	QUANT	3.00000E-001	Max Current (mA)
EQDELAY	QUANT	5.00000E+000	Equil. Time (s)
SAMPLINGMODE	SELECTOR	1	Sampling Mode
AREA	QUANT	1.00000E+000	Sample Area (cm^2)
IRCOMP	SELECTOR	0	IRComp
PFCOR	QUANT	5.00000E+001	PF Corr. (ohm)
SEQUENCER	TOGGLE	TRUE	Run as Sequence
PSTATMODEL	IQUANT	64	Pstat Model
PSTATSECTION	LABEL	IFC1010-21051	Pstat Section
PSTATSERIALNO	LABEL	21051	Pstat Serial Number
CTRLMODE	IQUANT	1	Control Mode
ELECTROMETER	IQUANT	0	RE=0 or CS=1
IESTAB	IQUANT	0	I/E Stability
CASPEED	IQUANT	4	Control Amp Speed
CONVENTION	IQUANT	1	Current Convention
ICHRANGE	IQUANT	2	Ich Range
ICHRANGEMODE	TOGGLE	T	Ich Auto Range
ICHOFFSETENABLE	TOGGLE	F	Ich Offset Enable
ICHOFFSET	QUANT	0	Ich Offset (V)
ICHFILTER	IQUANT	3	Ich Filter
VCHRANGE	IQUANT	3	Vch Range
VCHRANGEMODE	TOGGLE	T	Vch Auto Range
VCHOFFSETENABLE	TOGGLE	F	Vch Offset Enable
VCHOFFSET	QUANT	0	Vch Offset (V)
VCHFILTER	IQUANT	3	Vch Filter
IERANGELOWERLIMIT	IQUANT	4	I/E Range Lower Limit
IERANGEMODE	TOGGLE	F	I/E AutoRange
IERANGE	IQUANT	9	I/E Range
ACHSELECT	IQUANT	0	Ach Select
ACHRANGE	IQUANT	2	Ach Range
ACHOFFSETENABLE	TOGGLE	F	Ach Offset Enable
ACHOFFSET	QUANT	0	Ach Offset (V)
ACHFILTER	IQUANT	1	Ach Filter
SENSECABLEID	IQUANT	14	Sense Cable ID
PWRCABLEID	IQUANT	14	Power Cable ID
DCCALDATE	LABEL	10/1/2020	DC Calibration Date
ACCALDATE	LABEL	4/2/2018	AC Calibration Date
FRAMEWORKVERSION	QUANT	7.06	Framework Version
INSTRUMENTVERSION	LABEL	4.30	Instrument Version
CURVE	TABLE	99
	Pt	T	Vf	Im	Vu	Sig	Ach	IERange	Over	Temp
	#	s	V vs. Ref.	A	V	V	V	#	bits	deg C
	0	-0.4	-7.01224E-001	-1.70806E-004	0.00000E+000	-7.00083E-001	0.00000E+000	9	...........	1426.04
	1	-0.3	-7.01113E-001	-1.70725E-004	0.00000E+000	-7.00083E-001	0.00000E+000	9	...........	1426.04
	2	-0.2	-7.01116E-001	-1.70688E-004	0.00000E+000	-7.00083E-001	0.00000E+000	9	...........	1426.04
	3	-0.1	-7.01122E-001	-1.70518E-004	0.00000E+000	-7.00083E-001	0.00000E+000	9	...........	1426.04
	4	0	-7.01126E-001	-1.70451E-004	0.00000E+000	-7.00083E-001	0.00000E+000	9	...........	1426.04
	5	0.1	-8.01145E-001	-6.50561E-004	0.00000E+000	-8.00083E-001	0.00000E+000	9	...........	1426.04
	6	0.2	-8.01149E-001	-4.98610E-004	0.00000E+000	-8.00083E-001	0.00000E+000	9	...........	1426.04
	7	0.3	-8.01150E-001	-4.23755E-004	0.00000E+000	-8.00083E-001	0.00000E+000	9	...........	1426.04
	8	0.4	-8.01141E-001	-3.77061E-004	0.00000E+000	-8.00083E-001	0.00000E+000	9	...........	1426.04
	9	0.5	-8.01143E-001	-3.44566E-004	0.00000E+000	-8.00083E-001	0.00000E+000	9	...........	1426.04
	10	0.6	-8.01148E-001	-3.20429E-004	0.00000E+000	-8.00083E-001	0.00000E+000	9	...........	1426.04
	11	0.7	-8.01144E-001	-3.01862E-004	0.00000E+000	-8.00083E-001	0.00000E+000	9	...........	1426.04
	12	0.8	-8.01145E-001	-2.87092E-004	0.00000E+000	-8.00083E-001	0.00000E+000	9	...........	1426.04
	13	0.9	-8.01146E-001	-2.75229E-004	0.00000E+000	-8.00083E-001	0.00000E+000	9	...........	1426.04
	14	1	-8.01140E-001	-2.65471E-004	0.00000E+000	-8.00083E-001	0.00000E+000	9	...........	1425.89
	15	1.1	-8.01138E-001	-2.57635E-004	0.00000E+000	-8.00083E-001	0.00000E+000	9	...........	1425.87
	16	1.2	-8.01136E-001	-2.50890E-004	0.00000E+000	-8.00083E-001	0.00000E+000	9	...........	1425.87
	17	1.3	-8.01138E-001	-2.45529E-004	0.00000E+000	-8.00083E-001	0.00000E+000	9	...........	1425.87
	18	1.4	-8.01138E-001	-2.40799E-004	0.00000E+000	-8.00083E-001	0.00000E+000	9	...........	1425.87
	19	1.5	-8.01147E-001	-2.36892E-004	0.00000E+000	-8.00083E-001	0.00000E+000	9	...........	1425.87
	20	1.6	-8.01137E-001	-2.33495E-004	0.00000E+000	-8.00083E-001	0.00000E+000	9	...........	1425.87
	21	1.7	-8.01134E-001	-2.30545E-004	0.00000E+000	-8.00083E-001	0.00000E+000	9	...........	1425.87
	22	1.8	-8.01130E-001	-2.27868E-004	0.00000E+000	-8.00083E-001	0.00000E+000	9	...........	1425.87
	23	1.9	-8.01125E-001	-2.25549E-004	0.00000E+000	-8.00083E-001	0.00000E+000	9	...........	1425.87
	24	2	-8.01128E-001	-2.23686E-004	0.00000E+000	-8.00083E-001	0.00000E+000	9	...........	1425.87
	25	2.1	-8.01129E-001	-2.21880E-004	0.00000E+000	-8.00083E-001	0.00000E+000	9	...........	1425.87
	26	2.2	-8.01135E-001	-2.20331E-004	0.00000E+000	-8.00083E-001	0.00000E+000	9	...........	1425.87
	27	2.3	-8.01138E-001	-2.18839E-004	0.00000E+000	-8.00083E-001	0.00000E+000	9	...........	1425.87
	28	2.4	-8.01146E-001	-2.17514E-004	0.00000E+000	-8.00083E-001	0.00000E+000	9	...........	1425.87
	29	2.5	-8.01141E-001	-2.16364E-004	0.00000E+000	-8.00083E-001	0.00000E+000	9	...........	1425.87
	30	2.6	-8.01142E-001	-2.15363E-004	0.00000E+000	-8.00083E-001	0.00000E+000	9	...........	1425.87
	31	2.7	-8.01138E-001	-2.14199E-004	0.00000E+000	-8.00083E-001	0.00000E+000	9	...........	1425.87
	32	2.8	-8.01144E-001	-2.13489E-004	0.00000E+000	-8.00083E-001	0.00000E+000	9	...........	1425.87
	33	2.9	-8.01142E-001	-2.12542E-004	0.00000E+000	-8.00083E-001	0.00000E+000	9	...........	1425.87
	34	3	-8.01142E-001	-2.11835E-004	0.00000E+000	-8.00083E-001	0.00000E+000	9	...........	1425.87
	35	3.1	-8.01144E-001	-2.11031E-004	0.00000E+000	-8.00083E-001	0.00000E+000	9	...........	1425.87
	36	3.2	-8.01145E-001	-2.10371E-004	0.00000E+000	-8.00083E-001	0.00000E+000	9	...........	1425.87
	37	3.3	-8.01133E-001	-2.09702E-004	0.00000E+000	-8.00083E-001	0.00000E+000	9	...........	1425.87
	38	3.4	-8.01142E-001	-2.09210E-004	0.00000E+000	-8.00083E-001	0.00000E+000	9	...........	1425.87
	39	3.5	-8.01137E-001	-2.08644E-004	0.00000E+000	-8.00083E-001	0.00000E+000	9	...........	1425.87
	40	3.6	-8.01137E-001	-2.08103E-004	0.00000E+000	-8.00083E-001	0.00000E+000	9	...........	1425.87
	41	3.7	-8.01149E-001	-2.07632E-004	0.00000E+000	-8.00083E-001	0.00000E+000	9	...........	1425.87
	42	3.8	-8.01145E-001	-2.07176E-004	0.00000E+000	-8.00083E-001	0.00000E+000	9	...........	1425.87
	43	3.9	-8.01135E-001	-2.06747E-004	0.00000E+000	-8.00083E-001	0.00000E+000	9	...........	1425.87
	44	4	-8.01143E-001	-2.06335E-004	0.00000E+000	-8.00083E-001	0.00000E+000	9	...........	1425.87
	45	4.1	-8.01138E-001	-2.05930E-004	0.00000E+000	-8.00083E-001	0.00000E+000	9	...........	1425.87
	46	4.2	-8.01144E-001	-2.05603E-004	0.00000E+000	-8.00083E-001	0.00000E+000	9	...........	1425.87
	47	4.3	-8.01135E-001	-2.05192E-004	0.00000E+000	-8.00083E-001	0.00000E+000	9	...........	1425.87
	48	4.4	-8.01144E-001	-2.04871E-004	0.00000E+000	-8.00083E-001	0.00000E+000	9	...........	1425.87
	49	4.5	-8.01142E-001	-2.04643E-004	0.00000E+000	-8.00083E-001	0.00000E+000	9	...........	1425.87
	50	4.6	-8.01132E-001	-2.04226E-004	0.00000E+000	-8.00083E-001	0.00000E+000	9	...........	1425.87
	51	4.7	-8.01135E-001	-2.03983E-004	0.00000E+000	-8.00083E-001	0.00000E+000	9	...........	1425.87
	52	4.8	-8.01139E-001	-2.03750E-004	0.00000E+000	-8.00083E-001	0.00000E+000	9	...........	1425.87
	53	4.9	-8.01147E-001	-2.03521E-004	0.00000E+000	-8.00083E-001	0.00000E+000	9	...........	1425.87
	54	5	-8.01143E-001	-2.03220E-004	0.00000E+000	-8.00083E-001	0.00000E+000	9	...........	1425.87
	55	5.1	-8.01139E-001	-2.02913E-004	0.00000E+000	-8.00083E-001	0.00000E+000	9	...........	1425.87
	56	5.2	-8.01144E-001	-2.02779E-004	0.00000E+000	-8.00083E-001	0.00000E+000	9	...........	1425.87
	57	5.3	-8.01149E-001	-2.02556E-004	0.00000E+000	-8.00083E-001	0.00000E+000	9	...........	1425.87
	58	5.4	-8.01134E-001	-2.02305E-004	0.00000E+000	-8.00083E-001	0.00000E+000	9	...........	1425.87
	59	5.5	-8.01144E-001	-2.02140E-004	0.00000E+000	-8.00083E-001	0.00000E+000	9	...........	1425.87
	60	5.6	-8.01143E-001	-2.01878E-004	0.00000E+000	-8.00083E-001	0.00000E+000	9	...........	1425.87
	61	5.7	-8.01136E-001	-2.01745E-004	0.00000E+000	-8.00083E-001	0.00000E+000	9	...........	1425.87
	62	5.8	-8.01147E-001	-2.01578E-004	0.00000E+000	-8.00083E-001	0.00000E+000	9	...........	1425.87
	63	5.9	-8.01147E-001	-2.01350E-004	0.00000E+000	-8.00083E-001	0.00000E+000	9	...........	1425.87
	64	6	-8.01137E-001	-2.01092E-004	0.00000E+000	-8.00083E-001	0.00000E+000	9	...........	1425.87
	65	6.1	-8.01149E-001	-2.01143E-004	0.00000E+000	-8.00083E-001	0.00000E+000	9	...........	1425.87
	66	7.1	-8.01133E-001	-1.99641E-004	0.00000E+000	-8.00083E-001	0.00000E+000	9	...........	1425.87
	67	8.1	-8.01152E-001	-1.98650E-004	0.00000E+000	-8.00083E-001	0.00000E+000	9	...........	1425.95
	68	9.1	-8.01142E-001	-1.97905E-004	0.00000E+000	-8.00083E-001	0.00000E+000	9	...........	1425.95
	69	10.1	-8.01143E-001	-1.97380E-004	0.00000E+000	-8.00083E-001	0.00000E+000	9	...........	1425.95
	70	11.1	-8.01137E-001	-1.96960E-004	0.00000E+000	-8.00083E-001	0.00000E+000	9	...........	1425.95
	71	12.1	-8.01133E-001	-1.96541E-004	0.00000E+000	-8.00083E-001	0.00000E+000	9	...........	1425.95
	72	13.1	-8.01138E-001	-1.96165E-004	0.00000E+000	-8.00083E-001	0.00000E+000	9	...........	1425.95
	73	14.1	-8.01142E-001	-1.95869E-004	0.00000E+000	-8.00083E-001	0.00000E+000	9	...........	1425.95
	74	15.1	-8.01139E-001	-1.95639E-004	0.00000E+000	-8.00083E-001	0.00000E+000	9	...........	1425.95
	75	16.1	-8.01139E-001	-1.95476E-004	0.00000E+000	-8.00083E-001	0.00000E+000	9	...........	1425.95
	76	26.1	-8.01140E-001	-1.94605E-004	0.00000E+000	-8.00083E-001	0.00000E+000	9	...........	1425.95
	77	36.1	-8.01130E-001	-1.93599E-004	0.00000E+000	-8.00083E-001	0.00000E+000	9	...........	1425.95
	78	46.1	-8.01138E-001	-1.93588E-004	0.00000E+000	-8.00083E-001	0.00000E+000	9	...........	1425.95
	79	56.1	-8.01140E-001	-1.93532E-004	0.00000E+000	-8.00083E-001	0.00000E+000	9	...........	1425.95
	80	66.1	-8.01136E-001	-1.92852E-004	0.00000E+000	-8.00083E-001	0.00000E+000	9	...........	1425.95
	81	76.1	-8.01134E-001	-1.92755E-004	0.00000E+000	-8.00083E-001	0.00000E+000	9	...........	1425.87
	82	86.1	-8.01142E-001	-1.93079E-004	0.00000E+000	-8.00083E-001	0.00000E+000	9	...........	1426.04
	83	96.1	-8.01132E-001	-1.93115E-004	0.00000E+000	-8.00083E-001	0.00000E+000	9	...........	1425.95
	84	106.1	-8.01160E-001	-1.93326E-004	0.00000E+000	-8.00083E-001	0.00000E+000	9	...........	1425.95
	85	116.1	-8.01142E-001	-1.93684E-004	0.00000E+000	-8.00083E-001	0.00000E+000	9	...........	1425.95
	86	216.1	-8.01149E-001	-1.95168E-004	0.00000E+000	-8.00083E-001	0.00000E+000	9	...........	1425.95
	87	316.1	-8.01139E-001	-1.98593E-004	0.00000E+000	-8.00083E-001	0.00000E+000	9	...........	1425.95
	88	360	-8.01128E-001	-1.98465E-004	0.00000E+000	-8.00083E-001	0.00000E+000	9	...........	1425.95
	89	360.1	-7.01116E-001	1.43371E-004	0.00000E+000	-7.00083E-001	0.00000E+000	9	...........	1425.95
	90	360.2	-7.01100E-001	-1.15044E-005	0.00000E+000	-7.00083E-001	0.00000E+000	9	...........	1425.95
	91	360.3	-7.01113E-001	-7.26162E-005	0.00000E+000	-7.00083E-001	0.00000E+000	9	...........	1425.95
	92	360.4	-7.01115E-001	-1.03996E-004	0.00000E+000	-7.00083E-001	0.00000E+000	9	...........	1425.95
	93	360.5	-7.01120E-001	-1.21910E-004	0.00000E+000	-7.00083E-001	0.00000E+000	9	...........	1425.95
	94	360.6	-7.01114E-001	-1.33018E-004	0.00000E+000	-7.00083E-001	0.00000E+000	9	...........	1425.95
	95	360.7	-7.01123E-001	-1.40300E-004	0.00000E+000	-7.00083E-001	0.00000E+000	9	...........	1425.95
	96	360.8	-7.01106E-001	-1.45177E-004	0.00000E+000	-7.00083E-001	0.00000E+000	9	...........	1425.95
	97	360.9	-7.01125E-001	-1.48913E-004	0.00000E+000	-7.00083E-001	0.00000E+000	9	...........	1425.95
	98	361	-7.01113E-001	-1.51648E-004	0.00000E+000	-7.00083E-001	0.00000E+000	9	...........	1425.95
