EXPLAIN
TAG	CHRONOA
TITLE	LABEL	Chronoamperometry Scan	Test Identifier
DATE	LABEL	15/12/2021	Date
TIME	LABEL	16:33:10	Time
NOTES	NOTES	1	Notes...
	
PSTAT	PSTAT	IFC1010-21051	Potentiostat
VPRESTEP	POTEN	-8.00000E-001	F	Pre-step Voltage (V)
TPRESTEP	QUANT	5.00000E-001	Pre-step Delay Time (s)
VSTEP1	POTEN	0.00000E+000	F	Step 1 Voltage (V)
TSTEP1	QUANT	6.00000E+001	Step 1 Time (s)
VSTEP2	POTEN	1.00000E-001	F	Step 2 Voltage (V)
TSTEP2	QUANT	1.00000E+000	Step 2 Time (s)
SAMPLETIME	QUANT	1.00000E-002	Sample Period (s)
DECIMATE	TOGGLE	T	Decimate
ILIMIT	QUANT	1.00000E+000	Limit I (mA/cm^2)
IMODE	SELECTOR	1	I/E Range Mode
IRANGE	QUANT	3.00000E-001	Max Current (mA)
EQDELAY	QUANT	5.00000E+000	Equil. Time (s)
SAMPLINGMODE	SELECTOR	1	Sampling Mode
AREA	QUANT	1.00000E+000	Sample Area (cm^2)
IRCOMP	SELECTOR	0	IRComp
PFCOR	QUANT	5.00000E+001	PF Corr. (ohm)
SEQUENCER	TOGGLE	TRUE	Run as Sequence
PSTATMODEL	IQUANT	64	Pstat Model
PSTATSECTION	LABEL	IFC1010-21051	Pstat Section
PSTATSERIALNO	LABEL	21051	Pstat Serial Number
CTRLMODE	IQUANT	1	Control Mode
ELECTROMETER	IQUANT	0	RE=0 or CS=1
IESTAB	IQUANT	0	I/E Stability
CASPEED	IQUANT	4	Control Amp Speed
CONVENTION	IQUANT	1	Current Convention
ICHRANGE	IQUANT	2	Ich Range
ICHRANGEMODE	TOGGLE	T	Ich Auto Range
ICHOFFSETENABLE	TOGGLE	F	Ich Offset Enable
ICHOFFSET	QUANT	0	Ich Offset (V)
ICHFILTER	IQUANT	3	Ich Filter
VCHRANGE	IQUANT	3	Vch Range
VCHRANGEMODE	TOGGLE	T	Vch Auto Range
VCHOFFSETENABLE	TOGGLE	F	Vch Offset Enable
VCHOFFSET	QUANT	0	Vch Offset (V)
VCHFILTER	IQUANT	3	Vch Filter
IERANGELOWERLIMIT	IQUANT	4	I/E Range Lower Limit
IERANGEMODE	TOGGLE	F	I/E AutoRange
IERANGE	IQUANT	9	I/E Range
ACHSELECT	IQUANT	0	Ach Select
ACHRANGE	IQUANT	2	Ach Range
ACHOFFSETENABLE	TOGGLE	F	Ach Offset Enable
ACHOFFSET	QUANT	0	Ach Offset (V)
ACHFILTER	IQUANT	1	Ach Filter
SENSECABLEID	IQUANT	14	Sense Cable ID
PWRCABLEID	IQUANT	14	Power Cable ID
DCCALDATE	LABEL	10/1/2020	DC Calibration Date
ACCALDATE	LABEL	4/2/2018	AC Calibration Date
FRAMEWORKVERSION	QUANT	7.06	Framework Version
INSTRUMENTVERSION	LABEL	4.30	Instrument Version
CURVE	TABLE	118
	Pt	T	Vf	Im	Vu	Sig	Ach	IERange	Over	Temp
	#	s	V vs. Ref.	A	V	V	V	#	bits	deg C
	0	-0.49	-8.00722E-001	-7.34304E-004	0.00000E+000	-8.00090E-001	0.00000E+000	9	...........	1425.87
	1	-0.48	-8.00601E-001	-7.35399E-004	0.00000E+000	-8.00090E-001	0.00000E+000	9	...........	1425.87
	2	-0.47	-8.00598E-001	-7.32618E-004	0.00000E+000	-8.00090E-001	0.00000E+000	9	...........	1425.87
	3	-0.46	-8.00601E-001	-7.33733E-004	0.00000E+000	-8.00090E-001	0.00000E+000	9	...........	1425.87
	4	-0.45	-8.00595E-001	-7.30975E-004	0.00000E+000	-8.00090E-001	0.00000E+000	9	...........	1425.87
	5	-0.44	-8.00602E-001	-7.32126E-004	0.00000E+000	-8.00090E-001	0.00000E+000	9	...........	1425.87
	6	-0.43	-8.00616E-001	-7.29356E-004	0.00000E+000	-8.00090E-001	0.00000E+000	9	...........	1425.87
	7	-0.42	-8.00624E-001	-7.30628E-004	0.00000E+000	-8.00090E-001	0.00000E+000	9	...........	1425.87
	8	-0.41	-8.00615E-001	-7.27923E-004	0.00000E+000	-8.00090E-001	0.00000E+000	9	...........	1425.87
	9	-0.4	-8.00631E-001	-7.29118E-004	0.00000E+000	-8.00090E-001	0.00000E+000	9	...........	1425.87
	10	-0.39	-8.00615E-001	-7.26366E-004	0.00000E+000	-8.00090E-001	0.00000E+000	9	...........	1425.95
	11	-0.38	-8.00592E-001	-7.27521E-004	0.00000E+000	-8.00090E-001	0.00000E+000	9	...........	1425.95
	12	-0.37	-8.00592E-001	-7.24710E-004	0.00000E+000	-8.00090E-001	0.00000E+000	9	...........	1425.95
	13	-0.36	-8.00616E-001	-7.25940E-004	0.00000E+000	-8.00090E-001	0.00000E+000	9	...........	1425.95
	14	-0.35	-8.00610E-001	-7.23141E-004	0.00000E+000	-8.00090E-001	0.00000E+000	9	...........	1425.95
	15	-0.34	-8.00615E-001	-7.24403E-004	0.00000E+000	-8.00090E-001	0.00000E+000	9	...........	1425.95
	16	-0.33	-8.00612E-001	-7.21626E-004	0.00000E+000	-8.00090E-001	0.00000E+000	9	...........	1425.95
	17	-0.32	-8.00610E-001	-7.22926E-004	0.00000E+000	-8.00090E-001	0.00000E+000	9	...........	1425.95
	18	-0.31	-8.00590E-001	-7.20076E-004	0.00000E+000	-8.00090E-001	0.00000E+000	9	...........	1425.95
	19	-0.3	-8.00615E-001	-7.21353E-004	0.00000E+000	-8.00090E-001	0.00000E+000	9	...........	1425.95
	20	-0.29	-8.00615E-001	-7.18599E-004	0.00000E+000	-8.00090E-001	0.00000E+000	9	...........	1425.95
	21	-0.28	-8.00617E-001	-7.19979E-004	0.00000E+000	-8.00090E-001	0.00000E+000	9	...........	1425.95
	22	-0.27	-8.00622E-001	-7.17154E-004	0.00000E+000	-8.00090E-001	0.00000E+000	9	...........	1425.95
	23	-0.26	-8.00616E-001	-7.18530E-004	0.00000E+000	-8.00090E-001	0.00000E+000	9	...........	1425.95
	24	-0.25	-8.00610E-001	-7.15670E-004	0.00000E+000	-8.00090E-001	0.00000E+000	9	...........	1425.95
	25	-0.24	-8.00615E-001	-7.17099E-004	0.00000E+000	-8.00090E-001	0.00000E+000	9	...........	1425.95
	26	-0.23	-8.00625E-001	-7.14144E-004	0.00000E+000	-8.00090E-001	0.00000E+000	9	...........	1425.95
	27	-0.22	-8.00612E-001	-7.15588E-004	0.00000E+000	-8.00090E-001	0.00000E+000	9	...........	1425.95
	28	-0.21	-8.00612E-001	-7.12547E-004	0.00000E+000	-8.00090E-001	0.00000E+000	9	...........	1425.95
	29	-0.2	-8.00606E-001	-7.14026E-004	0.00000E+000	-8.00090E-001	0.00000E+000	9	...........	1425.95
	30	-0.19	-8.00595E-001	-7.10991E-004	0.00000E+000	-8.00090E-001	0.00000E+000	9	...........	1425.95
	31	-0.18	-8.00604E-001	-7.12584E-004	0.00000E+000	-8.00090E-001	0.00000E+000	9	...........	1425.95
	32	-0.17	-8.00610E-001	-7.09511E-004	0.00000E+000	-8.00090E-001	0.00000E+000	9	...........	1425.95
	33	-0.16	-8.00613E-001	-7.11161E-004	0.00000E+000	-8.00090E-001	0.00000E+000	9	...........	1425.95
	34	-0.15	-8.00611E-001	-7.08056E-004	0.00000E+000	-8.00090E-001	0.00000E+000	9	...........	1425.95
	35	-0.14	-8.00609E-001	-7.09757E-004	0.00000E+000	-8.00090E-001	0.00000E+000	9	...........	1425.95
	36	-0.13	-8.00610E-001	-7.06608E-004	0.00000E+000	-8.00090E-001	0.00000E+000	9	...........	1425.95
	37	-0.12	-8.00611E-001	-7.08393E-004	0.00000E+000	-8.00090E-001	0.00000E+000	9	...........	1425.95
	38	-0.11	-8.00625E-001	-7.05182E-004	0.00000E+000	-8.00090E-001	0.00000E+000	9	...........	1425.95
	39	-0.1	-8.00610E-001	-7.07032E-004	0.00000E+000	-8.00090E-001	0.00000E+000	9	...........	1425.95
	40	-0.09	-8.00615E-001	-7.03671E-004	0.00000E+000	-8.00090E-001	0.00000E+000	9	...........	1425.95
	41	-0.08	-8.00609E-001	-7.05630E-004	0.00000E+000	-8.00090E-001	0.00000E+000	9	...........	1425.95
	42	-0.07	-8.00601E-001	-7.02266E-004	0.00000E+000	-8.00090E-001	0.00000E+000	9	...........	1425.95
	43	-0.06	-8.00602E-001	-7.04242E-004	0.00000E+000	-8.00090E-001	0.00000E+000	9	...........	1425.95
	44	-0.05	-8.00615E-001	-7.00852E-004	0.00000E+000	-8.00090E-001	0.00000E+000	9	...........	1425.95
	45	-0.04	-8.00620E-001	-7.02936E-004	0.00000E+000	-8.00090E-001	0.00000E+000	9	...........	1425.95
	46	-0.03	-8.00613E-001	-6.99474E-004	0.00000E+000	-8.00090E-001	0.00000E+000	9	...........	1425.95
	47	-0.02	-8.00609E-001	-7.01584E-004	0.00000E+000	-8.00090E-001	0.00000E+000	9	...........	1425.95
	48	-0.01	-8.00604E-001	-6.98001E-004	0.00000E+000	-8.00090E-001	0.00000E+000	9	...........	1425.95
	49	0	-8.00606E-001	-7.00207E-004	0.00000E+000	-8.00090E-001	0.00000E+000	9	...........	1425.95
	50	0.01	-5.93479E-004	1.09303E-003	0.00000E+000	-6.94990E-005	0.00000E+000	9	....ih..i..	1425.95
	51	0.02	-4.33325E-004	1.09303E-003	0.00000E+000	-6.94990E-005	0.00000E+000	9	....ih..i..	1425.95
	52	0.03	-4.19362E-004	1.09303E-003	0.00000E+000	-6.94990E-005	0.00000E+000	9	....ih..i..	1425.95
	53	0.04	3.27136E-002	1.09303E-003	0.00000E+000	9.99455E-002	0.00000E+000	9	....ih..iv.	1425.95
	54	0.05	9.84499E-002	1.09303E-003	0.00000E+000	9.99455E-002	0.00000E+000	9	....ih..i..	1425.95
	55	0.06	9.94113E-002	1.09303E-003	0.00000E+000	9.99455E-002	0.00000E+000	9	....ih..i..	1425.95
	56	0.07	9.95645E-002	1.09303E-003	0.00000E+000	9.99455E-002	0.00000E+000	9	....ih..i..	1425.95
	57	0.08	9.95939E-002	1.09303E-003	0.00000E+000	9.99455E-002	0.00000E+000	9	....ih..i..	1425.95
	58	0.09	9.95983E-002	1.09303E-003	0.00000E+000	9.99455E-002	0.00000E+000	9	....ih..i..	1425.95
	59	0.1	9.95982E-002	1.09303E-003	0.00000E+000	9.99455E-002	0.00000E+000	9	....ih..i..	1425.95
	60	0.11	9.95944E-002	1.09303E-003	0.00000E+000	9.99455E-002	0.00000E+000	9	....ih..i..	1425.95
	61	0.12	9.95984E-002	1.09303E-003	0.00000E+000	9.99455E-002	0.00000E+000	9	....ih..i..	1425.95
	62	0.13	9.95928E-002	1.09303E-003	0.00000E+000	9.99455E-002	0.00000E+000	9	....ih..i..	1425.95
	63	0.14	9.95943E-002	1.09303E-003	0.00000E+000	9.99455E-002	0.00000E+000	9	....ih..i..	1425.95
	64	0.15	9.95966E-002	1.09303E-003	0.00000E+000	9.99455E-002	0.00000E+000	9	....ih..i..	1425.95
	65	0.16	9.95946E-002	1.09303E-003	0.00000E+000	9.99455E-002	0.00000E+000	9	....ih..i..	1425.95
	66	0.17	9.95901E-002	1.09303E-003	0.00000E+000	9.99455E-002	0.00000E+000	9	....ih..i..	1425.95
	67	0.18	9.95927E-002	1.09303E-003	0.00000E+000	9.99455E-002	0.00000E+000	9	....ih..i..	1425.95
	68	0.19	9.95918E-002	1.09303E-003	0.00000E+000	9.99455E-002	0.00000E+000	9	....ih..i..	1425.95
	69	0.2	9.95936E-002	1.09303E-003	0.00000E+000	9.99455E-002	0.00000E+000	9	....ih..i..	1425.95
	70	0.21	9.95916E-002	1.09303E-003	0.00000E+000	9.99455E-002	0.00000E+000	9	....ih..i..	1425.95
	71	0.22	9.95972E-002	1.09303E-003	0.00000E+000	9.99455E-002	0.00000E+000	9	....ih..i..	1425.95
	72	0.23	9.95923E-002	1.09303E-003	0.00000E+000	9.99455E-002	0.00000E+000	9	....ih..i..	1425.95
	73	0.24	9.95953E-002	1.09303E-003	0.00000E+000	9.99455E-002	0.00000E+000	9	....ih..i..	1425.95
	74	0.25	9.95929E-002	1.09303E-003	0.00000E+000	9.99455E-002	0.00000E+000	9	....ih..i..	1425.95
	75	0.26	9.95951E-002	1.09303E-003	0.00000E+000	9.99455E-002	0.00000E+000	9	....ih..i..	1425.95
	76	0.27	9.95946E-002	1.09303E-003	0.00000E+000	9.99455E-002	0.00000E+000	9	....ih..i..	1425.95
	77	0.28	9.95953E-002	1.09303E-003	0.00000E+000	9.99455E-002	0.00000E+000	9	....ih..i..	1425.95
	78	0.29	9.95938E-002	1.09303E-003	0.00000E+000	9.99455E-002	0.00000E+000	9	....ih..i..	1425.95
	79	0.3	9.95958E-002	1.09303E-003	0.00000E+000	9.99455E-002	0.00000E+000	9	....ih..i..	1425.95
	80	0.31	9.95910E-002	1.09303E-003	0.00000E+000	9.99455E-002	0.00000E+000	9	....ih..i..	1425.95
	81	0.32	9.95884E-002	1.09199E-003	0.00000E+000	9.99455E-002	0.00000E+000	9	....ih..i..	1425.95
	82	0.33	9.95913E-002	1.04909E-003	0.00000E+000	9.99455E-002	0.00000E+000	9	....ih.....	1425.95
	83	0.34	9.95930E-002	1.00063E-003	0.00000E+000	9.99455E-002	0.00000E+000	9	...........	1425.95
	84	0.35	9.95955E-002	9.60885E-004	0.00000E+000	9.99455E-002	0.00000E+000	9	...........	1425.95
	85	0.36	9.95918E-002	9.17309E-004	0.00000E+000	9.99455E-002	0.00000E+000	9	...........	1425.95
	86	0.37	9.95953E-002	8.82045E-004	0.00000E+000	9.99455E-002	0.00000E+000	9	...........	1425.95
	87	0.38	9.95958E-002	8.42655E-004	0.00000E+000	9.99455E-002	0.00000E+000	9	...........	1425.95
	88	0.39	9.95923E-002	8.11233E-004	0.00000E+000	9.99455E-002	0.00000E+000	9	...........	1425.95
	89	0.4	9.95928E-002	7.75457E-004	0.00000E+000	9.99455E-002	0.00000E+000	9	...........	1425.95
	90	0.41	9.95909E-002	7.47448E-004	0.00000E+000	9.99455E-002	0.00000E+000	9	...........	1425.95
	91	0.42	9.95956E-002	7.14888E-004	0.00000E+000	9.99455E-002	0.00000E+000	9	...........	1425.95
	92	0.43	9.95907E-002	6.89848E-004	0.00000E+000	9.99455E-002	0.00000E+000	9	...........	1425.95
	93	0.44	9.95918E-002	6.60115E-004	0.00000E+000	9.99455E-002	0.00000E+000	9	...........	1425.95
	94	0.45	9.95950E-002	6.37780E-004	0.00000E+000	9.99455E-002	0.00000E+000	9	...........	1425.95
	95	0.46	9.95904E-002	6.10605E-004	0.00000E+000	9.99455E-002	0.00000E+000	9	...........	1425.95
	96	0.47	9.95908E-002	5.90656E-004	0.00000E+000	9.99455E-002	0.00000E+000	9	...........	1425.95
	97	0.48	9.95908E-002	5.65793E-004	0.00000E+000	9.99455E-002	0.00000E+000	9	...........	1425.95
	98	0.49	9.95929E-002	5.47977E-004	0.00000E+000	9.99455E-002	0.00000E+000	9	...........	1425.95
	99	0.5	9.95931E-002	5.25193E-004	0.00000E+000	9.99455E-002	0.00000E+000	9	...........	1425.95
	100	0.51	9.95918E-002	5.09311E-004	0.00000E+000	9.99455E-002	0.00000E+000	9	...........	1425.95
	101	0.52	9.95925E-002	4.88378E-004	0.00000E+000	9.99455E-002	0.00000E+000	9	...........	1425.95
	102	0.53	9.95932E-002	4.74228E-004	0.00000E+000	9.99455E-002	0.00000E+000	9	...........	1425.95
	103	0.54	9.95943E-002	4.54994E-004	0.00000E+000	9.99455E-002	0.00000E+000	9	...........	1425.95
	104	0.55	9.95930E-002	4.42382E-004	0.00000E+000	9.99455E-002	0.00000E+000	9	...........	1425.95
	105	0.56	9.95922E-002	4.24640E-004	0.00000E+000	9.99455E-002	0.00000E+000	9	...........	1425.95
	106	0.57	9.95917E-002	4.13412E-004	0.00000E+000	9.99455E-002	0.00000E+000	9	...........	1425.95
	107	0.58	9.95973E-002	3.97026E-004	0.00000E+000	9.99455E-002	0.00000E+000	9	...........	1425.95
	108	0.59	9.95934E-002	3.87066E-004	0.00000E+000	9.99455E-002	0.00000E+000	9	...........	1425.95
	109	0.6	9.95923E-002	3.71905E-004	0.00000E+000	9.99455E-002	0.00000E+000	9	...........	1425.95
	110	0.61	9.95944E-002	3.63054E-004	0.00000E+000	9.99455E-002	0.00000E+000	9	...........	1425.42
	111	0.62	9.95943E-002	3.48971E-004	0.00000E+000	9.99455E-002	0.00000E+000	9	...........	1425.42
	112	0.63	9.95938E-002	3.41130E-004	0.00000E+000	9.99455E-002	0.00000E+000	9	...........	1425.42
	113	0.64	9.95928E-002	3.28013E-004	0.00000E+000	9.99455E-002	0.00000E+000	9	...........	1425.42
	114	0.74	9.95942E-002	2.46807E-004	0.00000E+000	9.99455E-002	0.00000E+000	9	...........	1425.42
	115	0.84	9.95938E-002	1.92897E-004	0.00000E+000	9.99455E-002	0.00000E+000	9	...........	1425.42
	116	0.94	9.95921E-002	1.55755E-004	0.00000E+000	9.99455E-002	0.00000E+000	9	...........	1425.42
	117	1.03	9.95947E-002	1.34490E-004	0.00000E+000	9.99455E-002	0.00000E+000	9	...........	1425.42
