EXPLAIN
TAG	CHRONOA
TITLE	LABEL	Chronoamperometry Scan	Test Identifier
DATE	LABEL	15/12/2021	Date
TIME	LABEL	18:10:28	Time
NOTES	NOTES	1	Notes...
	
PSTAT	PSTAT	IFC1010-21051	Potentiostat
VPRESTEP	POTEN	-3.00000E-001	F	Pre-step Voltage (V)
TPRESTEP	QUANT	5.00000E-001	Pre-step Delay Time (s)
VSTEP1	POTEN	-4.00000E-001	F	Step 1 Voltage (V)
TSTEP1	QUANT	3.60000E+002	Step 1 Time (s)
VSTEP2	POTEN	-5.00000E-001	F	Step 2 Voltage (V)
TSTEP2	QUANT	1.00000E+000	Step 2 Time (s)
SAMPLETIME	QUANT	1.00000E-001	Sample Period (s)
DECIMATE	TOGGLE	T	Decimate
ILIMIT	QUANT	1.00000E+000	Limit I (mA/cm^2)
IMODE	SELECTOR	1	I/E Range Mode
IRANGE	QUANT	3.00000E-001	Max Current (mA)
EQDELAY	QUANT	5.00000E+000	Equil. Time (s)
SAMPLINGMODE	SELECTOR	1	Sampling Mode
AREA	QUANT	1.00000E+000	Sample Area (cm^2)
IRCOMP	SELECTOR	0	IRComp
PFCOR	QUANT	5.00000E+001	PF Corr. (ohm)
SEQUENCER	TOGGLE	TRUE	Run as Sequence
PSTATMODEL	IQUANT	64	Pstat Model
PSTATSECTION	LABEL	IFC1010-21051	Pstat Section
PSTATSERIALNO	LABEL	21051	Pstat Serial Number
CTRLMODE	IQUANT	1	Control Mode
ELECTROMETER	IQUANT	0	RE=0 or CS=1
IESTAB	IQUANT	0	I/E Stability
CASPEED	IQUANT	4	Control Amp Speed
CONVENTION	IQUANT	1	Current Convention
ICHRANGE	IQUANT	2	Ich Range
ICHRANGEMODE	TOGGLE	T	Ich Auto Range
ICHOFFSETENABLE	TOGGLE	F	Ich Offset Enable
ICHOFFSET	QUANT	0	Ich Offset (V)
ICHFILTER	IQUANT	3	Ich Filter
VCHRANGE	IQUANT	3	Vch Range
VCHRANGEMODE	TOGGLE	T	Vch Auto Range
VCHOFFSETENABLE	TOGGLE	F	Vch Offset Enable
VCHOFFSET	QUANT	0	Vch Offset (V)
VCHFILTER	IQUANT	3	Vch Filter
IERANGELOWERLIMIT	IQUANT	4	I/E Range Lower Limit
IERANGEMODE	TOGGLE	F	I/E AutoRange
IERANGE	IQUANT	9	I/E Range
ACHSELECT	IQUANT	0	Ach Select
ACHRANGE	IQUANT	2	Ach Range
ACHOFFSETENABLE	TOGGLE	F	Ach Offset Enable
ACHOFFSET	QUANT	0	Ach Offset (V)
ACHFILTER	IQUANT	1	Ach Filter
SENSECABLEID	IQUANT	14	Sense Cable ID
PWRCABLEID	IQUANT	14	Power Cable ID
DCCALDATE	LABEL	10/1/2020	DC Calibration Date
ACCALDATE	LABEL	4/2/2018	AC Calibration Date
FRAMEWORKVERSION	QUANT	7.06	Framework Version
INSTRUMENTVERSION	LABEL	4.30	Instrument Version
CURVE	TABLE	99
	Pt	T	Vf	Im	Vu	Sig	Ach	IERange	Over	Temp
	#	s	V vs. Ref.	A	V	V	V	#	bits	deg C
	0	-0.4	-3.00756E-001	-1.65799E-004	0.00000E+000	-3.00011E-001	0.00000E+000	9	...........	1426.04
	1	-0.3	-3.00552E-001	-1.65405E-004	0.00000E+000	-3.00011E-001	0.00000E+000	9	...........	1425.95
	2	-0.2	-3.00559E-001	-1.65075E-004	0.00000E+000	-3.00011E-001	0.00000E+000	9	...........	1425.95
	3	-0.1	-3.00559E-001	-1.64737E-004	0.00000E+000	-3.00011E-001	0.00000E+000	9	...........	1425.95
	4	0	-3.00550E-001	-1.64406E-004	0.00000E+000	-3.00011E-001	0.00000E+000	9	...........	1425.95
	5	0.1	-4.00581E-001	-5.51333E-004	0.00000E+000	-4.00011E-001	0.00000E+000	9	...........	1425.95
	6	0.2	-4.00596E-001	-4.92151E-004	0.00000E+000	-4.00011E-001	0.00000E+000	9	...........	1425.95
	7	0.3	-4.00595E-001	-4.71257E-004	0.00000E+000	-4.00011E-001	0.00000E+000	9	...........	1425.95
	8	0.4	-4.00592E-001	-4.58487E-004	0.00000E+000	-4.00011E-001	0.00000E+000	9	...........	1425.95
	9	0.5	-4.00598E-001	-4.48621E-004	0.00000E+000	-4.00011E-001	0.00000E+000	9	...........	1425.95
	10	0.6	-4.00601E-001	-4.40317E-004	0.00000E+000	-4.00011E-001	0.00000E+000	9	...........	1425.95
	11	0.7	-4.00599E-001	-4.32980E-004	0.00000E+000	-4.00011E-001	0.00000E+000	9	...........	1425.87
	12	0.8	-4.00592E-001	-4.26282E-004	0.00000E+000	-4.00011E-001	0.00000E+000	9	...........	1425.87
	13	0.9	-4.00601E-001	-4.20159E-004	0.00000E+000	-4.00011E-001	0.00000E+000	9	...........	1425.87
	14	1	-4.00604E-001	-4.14532E-004	0.00000E+000	-4.00011E-001	0.00000E+000	9	...........	1425.87
	15	1.1	-4.00606E-001	-4.09214E-004	0.00000E+000	-4.00011E-001	0.00000E+000	9	...........	1425.87
	16	1.2	-4.00603E-001	-4.04239E-004	0.00000E+000	-4.00011E-001	0.00000E+000	9	...........	1425.87
	17	1.3	-4.00603E-001	-3.99580E-004	0.00000E+000	-4.00011E-001	0.00000E+000	9	...........	1425.87
	18	1.4	-4.00601E-001	-3.95088E-004	0.00000E+000	-4.00011E-001	0.00000E+000	9	...........	1425.87
	19	1.5	-4.00595E-001	-3.90914E-004	0.00000E+000	-4.00011E-001	0.00000E+000	9	...........	1425.87
	20	1.6	-4.00598E-001	-3.86860E-004	0.00000E+000	-4.00011E-001	0.00000E+000	9	...........	1425.87
	21	1.7	-4.00602E-001	-3.83016E-004	0.00000E+000	-4.00011E-001	0.00000E+000	9	...........	1425.78
	22	1.8	-4.00590E-001	-3.79345E-004	0.00000E+000	-4.00011E-001	0.00000E+000	9	...........	1425.78
	23	1.9	-4.00603E-001	-3.75819E-004	0.00000E+000	-4.00011E-001	0.00000E+000	9	...........	1425.78
	24	2	-4.00598E-001	-3.72455E-004	0.00000E+000	-4.00011E-001	0.00000E+000	9	...........	1425.78
	25	2.1	-4.00591E-001	-3.69137E-004	0.00000E+000	-4.00011E-001	0.00000E+000	9	...........	1425.78
	26	2.2	-4.00596E-001	-3.66046E-004	0.00000E+000	-4.00011E-001	0.00000E+000	9	...........	1425.78
	27	2.3	-4.00589E-001	-3.63004E-004	0.00000E+000	-4.00011E-001	0.00000E+000	9	...........	1425.78
	28	2.4	-4.00604E-001	-3.60079E-004	0.00000E+000	-4.00011E-001	0.00000E+000	9	...........	1425.78
	29	2.5	-4.00601E-001	-3.57249E-004	0.00000E+000	-4.00011E-001	0.00000E+000	9	...........	1425.78
	30	2.6	-4.00607E-001	-3.54526E-004	0.00000E+000	-4.00011E-001	0.00000E+000	9	...........	1425.78
	31	2.7	-4.00599E-001	-3.51840E-004	0.00000E+000	-4.00011E-001	0.00000E+000	9	...........	1425.87
	32	2.8	-4.00594E-001	-3.49238E-004	0.00000E+000	-4.00011E-001	0.00000E+000	9	...........	1425.87
	33	2.9	-4.00612E-001	-3.46796E-004	0.00000E+000	-4.00011E-001	0.00000E+000	9	...........	1425.87
	34	3	-4.00599E-001	-3.44370E-004	0.00000E+000	-4.00011E-001	0.00000E+000	9	...........	1425.87
	35	3.1	-4.00599E-001	-3.42000E-004	0.00000E+000	-4.00011E-001	0.00000E+000	9	...........	1425.87
	36	3.2	-4.00597E-001	-3.39690E-004	0.00000E+000	-4.00011E-001	0.00000E+000	9	...........	1425.87
	37	3.3	-4.00599E-001	-3.37493E-004	0.00000E+000	-4.00011E-001	0.00000E+000	9	...........	1425.87
	38	3.4	-4.00602E-001	-3.35303E-004	0.00000E+000	-4.00011E-001	0.00000E+000	9	...........	1425.87
	39	3.5	-4.00605E-001	-3.33176E-004	0.00000E+000	-4.00011E-001	0.00000E+000	9	...........	1425.87
	40	3.6	-4.00593E-001	-3.31131E-004	0.00000E+000	-4.00011E-001	0.00000E+000	9	...........	1425.87
	41	3.7	-4.00593E-001	-3.29073E-004	0.00000E+000	-4.00011E-001	0.00000E+000	9	...........	1425.87
	42	3.8	-4.00602E-001	-3.27175E-004	0.00000E+000	-4.00011E-001	0.00000E+000	9	...........	1425.87
	43	3.9	-4.00596E-001	-3.25253E-004	0.00000E+000	-4.00011E-001	0.00000E+000	9	...........	1425.87
	44	4	-4.00596E-001	-3.23365E-004	0.00000E+000	-4.00011E-001	0.00000E+000	9	...........	1425.87
	45	4.1	-4.00602E-001	-3.21535E-004	0.00000E+000	-4.00011E-001	0.00000E+000	9	...........	1425.87
	46	4.2	-4.00589E-001	-3.19732E-004	0.00000E+000	-4.00011E-001	0.00000E+000	9	...........	1425.87
	47	4.3	-4.00591E-001	-3.17984E-004	0.00000E+000	-4.00011E-001	0.00000E+000	9	...........	1425.87
	48	4.4	-4.00602E-001	-3.16271E-004	0.00000E+000	-4.00011E-001	0.00000E+000	9	...........	1425.87
	49	4.5	-4.00603E-001	-3.14587E-004	0.00000E+000	-4.00011E-001	0.00000E+000	9	...........	1425.87
	50	4.6	-4.00606E-001	-3.12993E-004	0.00000E+000	-4.00011E-001	0.00000E+000	9	...........	1425.87
	51	4.7	-4.00602E-001	-3.11352E-004	0.00000E+000	-4.00011E-001	0.00000E+000	9	...........	1425.87
	52	4.8	-4.00590E-001	-3.09765E-004	0.00000E+000	-4.00011E-001	0.00000E+000	9	...........	1425.87
	53	4.9	-4.00611E-001	-3.08293E-004	0.00000E+000	-4.00011E-001	0.00000E+000	9	...........	1425.87
	54	5	-4.00603E-001	-3.06716E-004	0.00000E+000	-4.00011E-001	0.00000E+000	9	...........	1425.87
	55	5.1	-4.00600E-001	-3.05231E-004	0.00000E+000	-4.00011E-001	0.00000E+000	9	...........	1425.87
	56	5.2	-4.00594E-001	-3.03751E-004	0.00000E+000	-4.00011E-001	0.00000E+000	9	...........	1425.87
	57	5.3	-4.00602E-001	-3.02329E-004	0.00000E+000	-4.00011E-001	0.00000E+000	9	...........	1425.87
	58	5.4	-4.00593E-001	-3.00904E-004	0.00000E+000	-4.00011E-001	0.00000E+000	9	...........	1425.87
	59	5.5	-4.00594E-001	-2.99538E-004	0.00000E+000	-4.00011E-001	0.00000E+000	9	...........	1425.87
	60	5.6	-4.00599E-001	-2.98158E-004	0.00000E+000	-4.00011E-001	0.00000E+000	9	...........	1425.87
	61	5.7	-4.00596E-001	-2.96820E-004	0.00000E+000	-4.00011E-001	0.00000E+000	9	...........	1425.87
	62	5.8	-4.00602E-001	-2.95536E-004	0.00000E+000	-4.00011E-001	0.00000E+000	9	...........	1425.87
	63	5.9	-4.00597E-001	-2.94213E-004	0.00000E+000	-4.00011E-001	0.00000E+000	9	...........	1425.87
	64	6	-4.00606E-001	-2.92929E-004	0.00000E+000	-4.00011E-001	0.00000E+000	9	...........	1425.87
	65	6.1	-4.00603E-001	-2.91702E-004	0.00000E+000	-4.00011E-001	0.00000E+000	9	...........	1425.87
	66	7.1	-4.00596E-001	-2.80269E-004	0.00000E+000	-4.00011E-001	0.00000E+000	9	...........	1425.87
	67	8.1	-4.00589E-001	-2.70449E-004	0.00000E+000	-4.00011E-001	0.00000E+000	9	...........	1425.87
	68	9.1	-4.00605E-001	-2.61868E-004	0.00000E+000	-4.00011E-001	0.00000E+000	9	...........	1425.95
	69	10.1	-4.00602E-001	-2.54275E-004	0.00000E+000	-4.00011E-001	0.00000E+000	9	...........	1425.87
	70	11.1	-4.00601E-001	-2.47621E-004	0.00000E+000	-4.00011E-001	0.00000E+000	9	...........	1425.87
	71	12.1	-4.00597E-001	-2.41583E-004	0.00000E+000	-4.00011E-001	0.00000E+000	9	...........	1425.95
	72	13.1	-4.00595E-001	-2.36156E-004	0.00000E+000	-4.00011E-001	0.00000E+000	9	...........	1425.95
	73	14.1	-4.00604E-001	-2.31235E-004	0.00000E+000	-4.00011E-001	0.00000E+000	9	...........	1425.87
	74	15.1	-4.00593E-001	-2.26653E-004	0.00000E+000	-4.00011E-001	0.00000E+000	9	...........	1425.95
	75	16.1	-4.00604E-001	-2.22468E-004	0.00000E+000	-4.00011E-001	0.00000E+000	9	...........	1425.95
	76	26.1	-4.00601E-001	-1.92519E-004	0.00000E+000	-4.00011E-001	0.00000E+000	9	...........	1425.95
	77	36.1	-4.00603E-001	-1.75040E-004	0.00000E+000	-4.00011E-001	0.00000E+000	9	...........	1425.95
	78	46.1	-4.00598E-001	-1.63322E-004	0.00000E+000	-4.00011E-001	0.00000E+000	9	...........	1425.95
	79	56.1	-4.00600E-001	-1.55164E-004	0.00000E+000	-4.00011E-001	0.00000E+000	9	...........	1425.95
	80	66.1	-4.00602E-001	-1.48228E-004	0.00000E+000	-4.00011E-001	0.00000E+000	9	...........	1425.95
	81	76.1	-4.00609E-001	-1.43460E-004	0.00000E+000	-4.00011E-001	0.00000E+000	9	...........	1425.95
	82	86.1	-4.00598E-001	-1.39861E-004	0.00000E+000	-4.00011E-001	0.00000E+000	9	...........	1425.95
	83	96.1	-4.00607E-001	-1.36152E-004	0.00000E+000	-4.00011E-001	0.00000E+000	9	...........	1425.95
	84	106.1	-4.00601E-001	-1.34269E-004	0.00000E+000	-4.00011E-001	0.00000E+000	9	...........	1425.95
	85	116.1	-4.00605E-001	-1.31542E-004	0.00000E+000	-4.00011E-001	0.00000E+000	9	...........	1425.95
	86	216.1	-4.00597E-001	-1.22291E-004	0.00000E+000	-4.00011E-001	0.00000E+000	9	...........	1426.04
	87	316.1	-4.00595E-001	-1.17361E-004	0.00000E+000	-4.00011E-001	0.00000E+000	9	...........	1426.04
	88	360	-4.00599E-001	-1.14659E-004	0.00000E+000	-4.00011E-001	0.00000E+000	9	...........	1426.04
	89	360.1	-5.00617E-001	-4.06252E-004	0.00000E+000	-5.00010E-001	0.00000E+000	9	...........	1426.04
	90	360.2	-5.00597E-001	-3.00342E-004	0.00000E+000	-5.00010E-001	0.00000E+000	9	...........	1426.04
	91	360.3	-5.00603E-001	-2.63693E-004	0.00000E+000	-5.00010E-001	0.00000E+000	9	...........	1426.04
	92	360.4	-5.00621E-001	-2.44575E-004	0.00000E+000	-5.00010E-001	0.00000E+000	9	...........	1426.04
	93	360.5	-5.00593E-001	-2.32144E-004	0.00000E+000	-5.00010E-001	0.00000E+000	9	...........	1426.04
	94	360.6	-5.00601E-001	-2.23335E-004	0.00000E+000	-5.00010E-001	0.00000E+000	9	...........	1426.04
	95	360.7	-5.00604E-001	-2.16378E-004	0.00000E+000	-5.00010E-001	0.00000E+000	9	...........	1426.04
	96	360.8	-5.00606E-001	-2.10817E-004	0.00000E+000	-5.00010E-001	0.00000E+000	9	...........	1426.04
	97	360.9	-5.00600E-001	-2.06150E-004	0.00000E+000	-5.00010E-001	0.00000E+000	9	...........	1426.04
	98	361	-5.00611E-001	-2.02270E-004	0.00000E+000	-5.00010E-001	0.00000E+000	9	...........	1426.04
