EXPLAIN
TAG	CHRONOA
TITLE	LABEL	Chronoamperometry Scan	Test Identifier
DATE	LABEL	15/12/2021	Date
TIME	LABEL	12:34:35	Time
NOTES	NOTES	1	Notes...
	
PSTAT	PSTAT	IFC1010-21051	Potentiostat
VPRESTEP	POTEN	0.00000E+000	F	Pre-step Voltage (V)
TPRESTEP	QUANT	5.00000E-001	Pre-step Delay Time (s)
VSTEP1	POTEN	-2.00000E-001	F	Step 1 Voltage (V)
TSTEP1	QUANT	3.60000E+002	Step 1 Time (s)
VSTEP2	POTEN	-3.00000E-001	F	Step 2 Voltage (V)
TSTEP2	QUANT	1.00000E+000	Step 2 Time (s)
SAMPLETIME	QUANT	1.00000E-001	Sample Period (s)
DECIMATE	TOGGLE	T	Decimate
ILIMIT	QUANT	1.00000E+000	Limit I (mA/cm^2)
IMODE	SELECTOR	1	I/E Range Mode
IRANGE	QUANT	3.00000E-001	Max Current (mA)
EQDELAY	QUANT	5.00000E+000	Equil. Time (s)
SAMPLINGMODE	SELECTOR	1	Sampling Mode
AREA	QUANT	1.00000E+000	Sample Area (cm^2)
IRCOMP	SELECTOR	0	IRComp
PFCOR	QUANT	5.00000E+001	PF Corr. (ohm)
SEQUENCER	TOGGLE	TRUE	Run as Sequence
PSTATMODEL	IQUANT	64	Pstat Model
PSTATSECTION	LABEL	IFC1010-21051	Pstat Section
PSTATSERIALNO	LABEL	21051	Pstat Serial Number
CTRLMODE	IQUANT	1	Control Mode
ELECTROMETER	IQUANT	0	RE=0 or CS=1
IESTAB	IQUANT	0	I/E Stability
CASPEED	IQUANT	4	Control Amp Speed
CONVENTION	IQUANT	1	Current Convention
ICHRANGE	IQUANT	2	Ich Range
ICHRANGEMODE	TOGGLE	T	Ich Auto Range
ICHOFFSETENABLE	TOGGLE	F	Ich Offset Enable
ICHOFFSET	QUANT	0	Ich Offset (V)
ICHFILTER	IQUANT	3	Ich Filter
VCHRANGE	IQUANT	3	Vch Range
VCHRANGEMODE	TOGGLE	T	Vch Auto Range
VCHOFFSETENABLE	TOGGLE	F	Vch Offset Enable
VCHOFFSET	QUANT	0	Vch Offset (V)
VCHFILTER	IQUANT	3	Vch Filter
IERANGELOWERLIMIT	IQUANT	4	I/E Range Lower Limit
IERANGEMODE	TOGGLE	F	I/E AutoRange
IERANGE	IQUANT	9	I/E Range
ACHSELECT	IQUANT	0	Ach Select
ACHRANGE	IQUANT	2	Ach Range
ACHOFFSETENABLE	TOGGLE	F	Ach Offset Enable
ACHOFFSET	QUANT	0	Ach Offset (V)
ACHFILTER	IQUANT	1	Ach Filter
SENSECABLEID	IQUANT	14	Sense Cable ID
PWRCABLEID	IQUANT	14	Power Cable ID
DCCALDATE	LABEL	10/1/2020	DC Calibration Date
ACCALDATE	LABEL	4/2/2018	AC Calibration Date
FRAMEWORKVERSION	QUANT	7.06	Framework Version
INSTRUMENTVERSION	LABEL	4.30	Instrument Version
CURVE	TABLE	99
	Pt	T	Vf	Im	Vu	Sig	Ach	IERange	Over	Temp
	#	s	V vs. Ref.	A	V	V	V	#	bits	deg C
	0	-0.4	-4.69399E-004	-1.41773E-005	0.00000E+000	-6.72489E-005	0.00000E+000	9	...........	1425.34
	1	-0.3	-2.25862E-004	-1.44166E-005	0.00000E+000	-6.72489E-005	0.00000E+000	9	...........	1425.34
	2	-0.2	-1.78811E-004	-1.46439E-005	0.00000E+000	-6.72489E-005	0.00000E+000	9	...........	1425.34
	3	-0.1	-1.74520E-004	-1.48514E-005	0.00000E+000	-6.72489E-005	0.00000E+000	9	...........	1425.34
	4	0	-1.73864E-004	-1.50510E-005	0.00000E+000	-6.72489E-005	0.00000E+000	9	...........	1425.34
	5	0.1	-3.29021E-002	-7.81182E-004	0.00000E+000	-2.00066E-001	0.00000E+000	9	.........v.	1425.34
	6	0.2	-2.00200E-001	-5.50533E-004	0.00000E+000	-2.00066E-001	0.00000E+000	9	...........	1425.34
	7	0.3	-2.00203E-001	-4.16772E-004	0.00000E+000	-2.00066E-001	0.00000E+000	9	...........	1425.34
	8	0.4	-2.00203E-001	-3.29786E-004	0.00000E+000	-2.00066E-001	0.00000E+000	9	...........	1425.34
	9	0.5	-2.00205E-001	-2.69413E-004	0.00000E+000	-2.00066E-001	0.00000E+000	9	...........	1425.34
	10	0.6	-2.00206E-001	-2.25777E-004	0.00000E+000	-2.00066E-001	0.00000E+000	9	...........	1424.89
	11	0.7	-2.00205E-001	-1.93288E-004	0.00000E+000	-2.00066E-001	0.00000E+000	9	...........	1424.89
	12	0.8	-2.00205E-001	-1.68633E-004	0.00000E+000	-2.00066E-001	0.00000E+000	9	...........	1424.89
	13	0.9	-2.00207E-001	-1.49626E-004	0.00000E+000	-2.00066E-001	0.00000E+000	9	...........	1424.89
	14	1	-2.00206E-001	-1.34792E-004	0.00000E+000	-2.00066E-001	0.00000E+000	9	...........	1424.89
	15	1.1	-2.00207E-001	-1.23079E-004	0.00000E+000	-2.00066E-001	0.00000E+000	9	...........	1424.89
	16	1.2	-2.00207E-001	-1.13740E-004	0.00000E+000	-2.00066E-001	0.00000E+000	9	...........	1424.89
	17	1.3	-2.00208E-001	-1.06257E-004	0.00000E+000	-2.00066E-001	0.00000E+000	9	...........	1424.89
	18	1.4	-2.00207E-001	-1.00153E-004	0.00000E+000	-2.00066E-001	0.00000E+000	9	...........	1424.89
	19	1.5	-2.00208E-001	-9.51464E-005	0.00000E+000	-2.00066E-001	0.00000E+000	9	...........	1424.89
	20	1.6	-2.00208E-001	-9.10131E-005	0.00000E+000	-2.00066E-001	0.00000E+000	9	...........	1425.07
	21	1.7	-2.00206E-001	-8.75751E-005	0.00000E+000	-2.00066E-001	0.00000E+000	9	...........	1425.07
	22	1.8	-2.00207E-001	-8.46945E-005	0.00000E+000	-2.00066E-001	0.00000E+000	9	...........	1425.07
	23	1.9	-2.00206E-001	-8.22365E-005	0.00000E+000	-2.00066E-001	0.00000E+000	9	...........	1425.07
	24	2	-2.00206E-001	-8.01294E-005	0.00000E+000	-2.00066E-001	0.00000E+000	9	...........	1425.07
	25	2.1	-2.00207E-001	-7.83621E-005	0.00000E+000	-2.00066E-001	0.00000E+000	9	...........	1425.07
	26	2.2	-2.00207E-001	-7.68070E-005	0.00000E+000	-2.00066E-001	0.00000E+000	9	...........	1425.07
	27	2.3	-2.00208E-001	-7.54600E-005	0.00000E+000	-2.00066E-001	0.00000E+000	9	...........	1425.07
	28	2.4	-2.00209E-001	-7.42656E-005	0.00000E+000	-2.00066E-001	0.00000E+000	9	...........	1425.07
	29	2.5	-2.00209E-001	-7.32341E-005	0.00000E+000	-2.00066E-001	0.00000E+000	9	...........	1425.07
	30	2.6	-2.00208E-001	-7.22983E-005	0.00000E+000	-2.00066E-001	0.00000E+000	9	...........	1425.42
	31	2.7	-2.00209E-001	-7.14725E-005	0.00000E+000	-2.00066E-001	0.00000E+000	9	...........	1425.42
	32	2.8	-2.00207E-001	-7.07497E-005	0.00000E+000	-2.00066E-001	0.00000E+000	9	...........	1425.42
	33	2.9	-2.00207E-001	-7.00709E-005	0.00000E+000	-2.00066E-001	0.00000E+000	9	...........	1425.42
	34	3	-2.00208E-001	-6.94538E-005	0.00000E+000	-2.00066E-001	0.00000E+000	9	...........	1425.42
	35	3.1	-2.00209E-001	-6.89401E-005	0.00000E+000	-2.00066E-001	0.00000E+000	9	...........	1425.42
	36	3.2	-2.00207E-001	-6.84313E-005	0.00000E+000	-2.00066E-001	0.00000E+000	9	...........	1425.42
	37	3.3	-2.00206E-001	-6.79309E-005	0.00000E+000	-2.00066E-001	0.00000E+000	9	...........	1425.42
	38	3.4	-2.00207E-001	-6.75407E-005	0.00000E+000	-2.00066E-001	0.00000E+000	9	...........	1425.42
	39	3.5	-2.00207E-001	-6.71513E-005	0.00000E+000	-2.00066E-001	0.00000E+000	9	...........	1425.42
	40	3.6	-2.00206E-001	-6.67886E-005	0.00000E+000	-2.00066E-001	0.00000E+000	9	...........	1425.25
	41	3.7	-2.00208E-001	-6.64625E-005	0.00000E+000	-2.00066E-001	0.00000E+000	9	...........	1425.25
	42	3.8	-2.00206E-001	-6.61302E-005	0.00000E+000	-2.00066E-001	0.00000E+000	9	...........	1425.25
	43	3.9	-2.00207E-001	-6.58567E-005	0.00000E+000	-2.00066E-001	0.00000E+000	9	...........	1425.25
	44	4	-2.00206E-001	-6.55711E-005	0.00000E+000	-2.00066E-001	0.00000E+000	9	...........	1425.25
	45	4.1	-2.00207E-001	-6.53210E-005	0.00000E+000	-2.00066E-001	0.00000E+000	9	...........	1425.25
	46	4.2	-2.00207E-001	-6.50770E-005	0.00000E+000	-2.00066E-001	0.00000E+000	9	...........	1425.25
	47	4.3	-2.00207E-001	-6.48263E-005	0.00000E+000	-2.00066E-001	0.00000E+000	9	...........	1425.25
	48	4.4	-2.00208E-001	-6.46270E-005	0.00000E+000	-2.00066E-001	0.00000E+000	9	...........	1425.25
	49	4.5	-2.00207E-001	-6.44021E-005	0.00000E+000	-2.00066E-001	0.00000E+000	9	...........	1425.25
	50	4.6	-2.00207E-001	-6.42038E-005	0.00000E+000	-2.00066E-001	0.00000E+000	9	...........	1425.07
	51	4.7	-2.00207E-001	-6.40021E-005	0.00000E+000	-2.00066E-001	0.00000E+000	9	...........	1425.07
	52	4.8	-2.00208E-001	-6.38427E-005	0.00000E+000	-2.00066E-001	0.00000E+000	9	...........	1425.07
	53	4.9	-2.00205E-001	-6.36421E-005	0.00000E+000	-2.00066E-001	0.00000E+000	9	...........	1425.07
	54	5	-2.00208E-001	-6.34870E-005	0.00000E+000	-2.00066E-001	0.00000E+000	9	...........	1425.07
	55	5.1	-2.00208E-001	-6.33238E-005	0.00000E+000	-2.00066E-001	0.00000E+000	9	...........	1425.07
	56	5.2	-2.00206E-001	-6.31613E-005	0.00000E+000	-2.00066E-001	0.00000E+000	9	...........	1425.07
	57	5.3	-2.00207E-001	-6.30102E-005	0.00000E+000	-2.00066E-001	0.00000E+000	9	...........	1425.07
	58	5.4	-2.00207E-001	-6.28600E-005	0.00000E+000	-2.00066E-001	0.00000E+000	9	...........	1425.07
	59	5.5	-2.00208E-001	-6.27333E-005	0.00000E+000	-2.00066E-001	0.00000E+000	9	...........	1425.07
	60	5.6	-2.00207E-001	-6.25864E-005	0.00000E+000	-2.00066E-001	0.00000E+000	9	...........	1425.42
	61	5.7	-2.00207E-001	-6.24479E-005	0.00000E+000	-2.00066E-001	0.00000E+000	9	...........	1425.42
	62	5.8	-2.00208E-001	-6.23206E-005	0.00000E+000	-2.00066E-001	0.00000E+000	9	...........	1425.42
	63	5.9	-2.00209E-001	-6.21889E-005	0.00000E+000	-2.00066E-001	0.00000E+000	9	...........	1425.42
	64	6	-2.00210E-001	-6.20911E-005	0.00000E+000	-2.00066E-001	0.00000E+000	9	...........	1425.42
	65	6.1	-2.00210E-001	-6.19547E-005	0.00000E+000	-2.00066E-001	0.00000E+000	9	...........	1425.42
	66	7.1	-2.00209E-001	-6.09327E-005	0.00000E+000	-2.00066E-001	0.00000E+000	9	...........	1425.42
	67	8.1	-2.00209E-001	-6.01233E-005	0.00000E+000	-2.00066E-001	0.00000E+000	9	...........	1425.51
	68	9.1	-2.00210E-001	-5.94220E-005	0.00000E+000	-2.00066E-001	0.00000E+000	9	...........	1425.51
	69	10.1	-2.00208E-001	-5.87718E-005	0.00000E+000	-2.00066E-001	0.00000E+000	9	...........	1425.51
	70	11.1	-2.00210E-001	-5.81870E-005	0.00000E+000	-2.00066E-001	0.00000E+000	9	...........	1425.51
	71	12.1	-2.00210E-001	-5.76873E-005	0.00000E+000	-2.00066E-001	0.00000E+000	9	...........	1425.51
	72	13.1	-2.00210E-001	-5.72853E-005	0.00000E+000	-2.00066E-001	0.00000E+000	9	...........	1425.51
	73	14.1	-2.00209E-001	-5.68812E-005	0.00000E+000	-2.00066E-001	0.00000E+000	9	...........	1425.51
	74	15.1	-2.00208E-001	-5.65307E-005	0.00000E+000	-2.00066E-001	0.00000E+000	9	...........	1425.51
	75	16.1	-2.00209E-001	-5.61759E-005	0.00000E+000	-2.00066E-001	0.00000E+000	9	...........	1425.51
	76	26.1	-2.00211E-001	-5.29695E-005	0.00000E+000	-2.00066E-001	0.00000E+000	9	...........	1425.51
	77	36.1	-2.00212E-001	-5.01012E-005	0.00000E+000	-2.00066E-001	0.00000E+000	9	...........	1425.51
	78	46.1	-2.00209E-001	-4.86365E-005	0.00000E+000	-2.00066E-001	0.00000E+000	9	...........	1425.51
	79	56.1	-2.00211E-001	-4.71500E-005	0.00000E+000	-2.00066E-001	0.00000E+000	9	...........	1425.51
	80	66.1	-2.00212E-001	-4.58767E-005	0.00000E+000	-2.00066E-001	0.00000E+000	9	...........	1425.51
	81	76.1	-2.00211E-001	-4.50327E-005	0.00000E+000	-2.00066E-001	0.00000E+000	9	...........	1425.51
	82	86.1	-2.00211E-001	-4.43868E-005	0.00000E+000	-2.00066E-001	0.00000E+000	9	...........	1425.51
	83	96.1	-2.00212E-001	-4.36466E-005	0.00000E+000	-2.00066E-001	0.00000E+000	9	...........	1425.51
	84	106.1	-2.00212E-001	-4.27717E-005	0.00000E+000	-2.00066E-001	0.00000E+000	9	...........	1425.51
	85	116.1	-2.00210E-001	-4.27534E-005	0.00000E+000	-2.00066E-001	0.00000E+000	9	...........	1425.51
	86	216.1	-2.00212E-001	-3.99202E-005	0.00000E+000	-2.00066E-001	0.00000E+000	9	...........	1425.51
	87	316.1	-2.00212E-001	-3.92816E-005	0.00000E+000	-2.00066E-001	0.00000E+000	9	...........	1425.51
	88	360	-2.00213E-001	-3.94787E-005	0.00000E+000	-2.00066E-001	0.00000E+000	9	...........	1425.60
	89	360.1	-3.00219E-001	-4.09088E-004	0.00000E+000	-3.00066E-001	0.00000E+000	9	...........	1425.60
	90	360.2	-3.00273E-001	-2.95393E-004	0.00000E+000	-3.00066E-001	0.00000E+000	9	...........	1425.60
	91	360.3	-3.00263E-001	-2.37999E-004	0.00000E+000	-3.00066E-001	0.00000E+000	9	...........	1425.60
	92	360.4	-3.00263E-001	-2.04731E-004	0.00000E+000	-3.00066E-001	0.00000E+000	9	...........	1425.60
	93	360.5	-3.00265E-001	-1.83615E-004	0.00000E+000	-3.00066E-001	0.00000E+000	9	...........	1425.60
	94	360.6	-3.00265E-001	-1.69450E-004	0.00000E+000	-3.00066E-001	0.00000E+000	9	...........	1425.51
	95	360.7	-3.00273E-001	-1.59473E-004	0.00000E+000	-3.00066E-001	0.00000E+000	9	...........	1425.51
	96	360.8	-3.00272E-001	-1.52203E-004	0.00000E+000	-3.00066E-001	0.00000E+000	9	...........	1425.51
	97	360.9	-3.00272E-001	-1.46733E-004	0.00000E+000	-3.00066E-001	0.00000E+000	9	...........	1425.51
	98	361	-3.00271E-001	-1.42454E-004	0.00000E+000	-3.00066E-001	0.00000E+000	9	...........	1425.51
