EXPLAIN
TAG	CHRONOA
TITLE	LABEL	Chronoamperometry Scan	Test Identifier
DATE	LABEL	15/12/2021	Date
TIME	LABEL	19:34:26	Time
NOTES	NOTES	1	Notes...
	
PSTAT	PSTAT	IFC1010-21051	Potentiostat
VPRESTEP	POTEN	0.00000E+000	F	Pre-step Voltage (V)
TPRESTEP	QUANT	5.00000E-001	Pre-step Delay Time (s)
VSTEP1	POTEN	-2.00000E-001	F	Step 1 Voltage (V)
TSTEP1	QUANT	3.60000E+002	Step 1 Time (s)
VSTEP2	POTEN	-3.00000E-001	F	Step 2 Voltage (V)
TSTEP2	QUANT	1.00000E+000	Step 2 Time (s)
SAMPLETIME	QUANT	1.00000E-001	Sample Period (s)
DECIMATE	TOGGLE	T	Decimate
ILIMIT	QUANT	1.00000E+000	Limit I (mA/cm^2)
IMODE	SELECTOR	1	I/E Range Mode
IRANGE	QUANT	3.00000E-001	Max Current (mA)
EQDELAY	QUANT	5.00000E+000	Equil. Time (s)
SAMPLINGMODE	SELECTOR	1	Sampling Mode
AREA	QUANT	1.00000E+000	Sample Area (cm^2)
IRCOMP	SELECTOR	0	IRComp
PFCOR	QUANT	5.00000E+001	PF Corr. (ohm)
SEQUENCER	TOGGLE	TRUE	Run as Sequence
PSTATMODEL	IQUANT	64	Pstat Model
PSTATSECTION	LABEL	IFC1010-21051	Pstat Section
PSTATSERIALNO	LABEL	21051	Pstat Serial Number
CTRLMODE	IQUANT	1	Control Mode
ELECTROMETER	IQUANT	0	RE=0 or CS=1
IESTAB	IQUANT	0	I/E Stability
CASPEED	IQUANT	4	Control Amp Speed
CONVENTION	IQUANT	1	Current Convention
ICHRANGE	IQUANT	2	Ich Range
ICHRANGEMODE	TOGGLE	T	Ich Auto Range
ICHOFFSETENABLE	TOGGLE	F	Ich Offset Enable
ICHOFFSET	QUANT	0	Ich Offset (V)
ICHFILTER	IQUANT	3	Ich Filter
VCHRANGE	IQUANT	3	Vch Range
VCHRANGEMODE	TOGGLE	T	Vch Auto Range
VCHOFFSETENABLE	TOGGLE	F	Vch Offset Enable
VCHOFFSET	QUANT	0	Vch Offset (V)
VCHFILTER	IQUANT	3	Vch Filter
IERANGELOWERLIMIT	IQUANT	4	I/E Range Lower Limit
IERANGEMODE	TOGGLE	F	I/E AutoRange
IERANGE	IQUANT	9	I/E Range
ACHSELECT	IQUANT	0	Ach Select
ACHRANGE	IQUANT	2	Ach Range
ACHOFFSETENABLE	TOGGLE	F	Ach Offset Enable
ACHOFFSET	QUANT	0	Ach Offset (V)
ACHFILTER	IQUANT	1	Ach Filter
SENSECABLEID	IQUANT	14	Sense Cable ID
PWRCABLEID	IQUANT	14	Power Cable ID
DCCALDATE	LABEL	10/1/2020	DC Calibration Date
ACCALDATE	LABEL	4/2/2018	AC Calibration Date
FRAMEWORKVERSION	QUANT	7.06	Framework Version
INSTRUMENTVERSION	LABEL	4.30	Instrument Version
CURVE	TABLE	99
	Pt	T	Vf	Im	Vu	Sig	Ach	IERange	Over	Temp
	#	s	V vs. Ref.	A	V	V	V	#	bits	deg C
	0	-0.4	-5.00230E-004	-6.72150E-006	0.00000E+000	-6.72489E-005	0.00000E+000	9	...........	1426.04
	1	-0.3	-2.37775E-004	-6.87396E-006	0.00000E+000	-6.72489E-005	0.00000E+000	9	...........	1426.04
	2	-0.2	-1.90855E-004	-7.02982E-006	0.00000E+000	-6.72489E-005	0.00000E+000	9	...........	1426.04
	3	-0.1	-1.85411E-004	-7.16666E-006	0.00000E+000	-6.72489E-005	0.00000E+000	9	...........	1426.04
	4	0	-1.86037E-004	-7.30274E-006	0.00000E+000	-6.72489E-005	0.00000E+000	9	...........	1426.04
	5	0.1	-3.29021E-002	-4.66955E-004	0.00000E+000	-2.00066E-001	0.00000E+000	9	.........v.	1426.04
	6	0.2	-2.00221E-001	-2.95829E-004	0.00000E+000	-2.00066E-001	0.00000E+000	9	...........	1426.04
	7	0.3	-2.00222E-001	-2.24112E-004	0.00000E+000	-2.00066E-001	0.00000E+000	9	...........	1426.04
	8	0.4	-2.00223E-001	-1.82658E-004	0.00000E+000	-2.00066E-001	0.00000E+000	9	...........	1426.04
	9	0.5	-2.00221E-001	-1.55856E-004	0.00000E+000	-2.00066E-001	0.00000E+000	9	...........	1426.04
	10	0.6	-2.00221E-001	-1.37337E-004	0.00000E+000	-2.00066E-001	0.00000E+000	9	...........	1426.04
	11	0.7	-2.00222E-001	-1.23997E-004	0.00000E+000	-2.00066E-001	0.00000E+000	9	...........	1426.04
	12	0.8	-2.00223E-001	-1.14042E-004	0.00000E+000	-2.00066E-001	0.00000E+000	9	...........	1426.04
	13	0.9	-2.00224E-001	-1.06449E-004	0.00000E+000	-2.00066E-001	0.00000E+000	9	...........	1426.04
	14	1	-2.00223E-001	-1.00422E-004	0.00000E+000	-2.00066E-001	0.00000E+000	9	...........	1425.95
	15	1.1	-2.00223E-001	-9.55736E-005	0.00000E+000	-2.00066E-001	0.00000E+000	9	...........	1425.95
	16	1.2	-2.00222E-001	-9.15889E-005	0.00000E+000	-2.00066E-001	0.00000E+000	9	...........	1425.95
	17	1.3	-2.00224E-001	-8.82813E-005	0.00000E+000	-2.00066E-001	0.00000E+000	9	...........	1425.95
	18	1.4	-2.00223E-001	-8.55044E-005	0.00000E+000	-2.00066E-001	0.00000E+000	9	...........	1425.95
	19	1.5	-2.00224E-001	-8.31220E-005	0.00000E+000	-2.00066E-001	0.00000E+000	9	...........	1425.95
	20	1.6	-2.00223E-001	-8.10685E-005	0.00000E+000	-2.00066E-001	0.00000E+000	9	...........	1425.95
	21	1.7	-2.00223E-001	-7.92576E-005	0.00000E+000	-2.00066E-001	0.00000E+000	9	...........	1425.95
	22	1.8	-2.00223E-001	-7.76612E-005	0.00000E+000	-2.00066E-001	0.00000E+000	9	...........	1425.95
	23	1.9	-2.00223E-001	-7.62197E-005	0.00000E+000	-2.00066E-001	0.00000E+000	9	...........	1425.95
	24	2	-2.00223E-001	-7.49958E-005	0.00000E+000	-2.00066E-001	0.00000E+000	9	...........	1425.78
	25	2.1	-2.00223E-001	-7.38893E-005	0.00000E+000	-2.00066E-001	0.00000E+000	9	...........	1425.78
	26	2.2	-2.00223E-001	-7.28590E-005	0.00000E+000	-2.00066E-001	0.00000E+000	9	...........	1425.78
	27	2.3	-2.00223E-001	-7.19166E-005	0.00000E+000	-2.00066E-001	0.00000E+000	9	...........	1425.78
	28	2.4	-2.00224E-001	-7.10719E-005	0.00000E+000	-2.00066E-001	0.00000E+000	9	...........	1425.78
	29	2.5	-2.00224E-001	-7.03116E-005	0.00000E+000	-2.00066E-001	0.00000E+000	9	...........	1425.78
	30	2.6	-2.00224E-001	-6.95986E-005	0.00000E+000	-2.00066E-001	0.00000E+000	9	...........	1425.78
	31	2.7	-2.00223E-001	-6.89295E-005	0.00000E+000	-2.00066E-001	0.00000E+000	9	...........	1425.78
	32	2.8	-2.00223E-001	-6.83537E-005	0.00000E+000	-2.00066E-001	0.00000E+000	9	...........	1425.78
	33	2.9	-2.00223E-001	-6.77666E-005	0.00000E+000	-2.00066E-001	0.00000E+000	9	...........	1425.78
	34	3	-2.00222E-001	-6.72151E-005	0.00000E+000	-2.00066E-001	0.00000E+000	9	...........	1425.78
	35	3.1	-2.00224E-001	-6.67531E-005	0.00000E+000	-2.00066E-001	0.00000E+000	9	...........	1425.78
	36	3.2	-2.00223E-001	-6.63039E-005	0.00000E+000	-2.00066E-001	0.00000E+000	9	...........	1425.78
	37	3.3	-2.00223E-001	-6.58566E-005	0.00000E+000	-2.00066E-001	0.00000E+000	9	...........	1425.78
	38	3.4	-2.00222E-001	-6.54308E-005	0.00000E+000	-2.00066E-001	0.00000E+000	9	...........	1425.78
	39	3.5	-2.00224E-001	-6.50627E-005	0.00000E+000	-2.00066E-001	0.00000E+000	9	...........	1425.78
	40	3.6	-2.00223E-001	-6.46923E-005	0.00000E+000	-2.00066E-001	0.00000E+000	9	...........	1425.78
	41	3.7	-2.00223E-001	-6.43353E-005	0.00000E+000	-2.00066E-001	0.00000E+000	9	...........	1425.78
	42	3.8	-2.00225E-001	-6.40171E-005	0.00000E+000	-2.00066E-001	0.00000E+000	9	...........	1425.78
	43	3.9	-2.00224E-001	-6.36897E-005	0.00000E+000	-2.00066E-001	0.00000E+000	9	...........	1425.78
	44	4	-2.00224E-001	-6.33902E-005	0.00000E+000	-2.00066E-001	0.00000E+000	9	...........	1425.95
	45	4.1	-2.00223E-001	-6.31299E-005	0.00000E+000	-2.00066E-001	0.00000E+000	9	...........	1425.95
	46	4.2	-2.00225E-001	-6.28566E-005	0.00000E+000	-2.00066E-001	0.00000E+000	9	...........	1425.95
	47	4.3	-2.00222E-001	-6.26110E-005	0.00000E+000	-2.00066E-001	0.00000E+000	9	...........	1425.95
	48	4.4	-2.00221E-001	-6.23532E-005	0.00000E+000	-2.00066E-001	0.00000E+000	9	...........	1425.95
	49	4.5	-2.00222E-001	-6.21057E-005	0.00000E+000	-2.00066E-001	0.00000E+000	9	...........	1425.95
	50	4.6	-2.00222E-001	-6.18793E-005	0.00000E+000	-2.00066E-001	0.00000E+000	9	...........	1425.95
	51	4.7	-2.00222E-001	-6.16737E-005	0.00000E+000	-2.00066E-001	0.00000E+000	9	...........	1425.95
	52	4.8	-2.00222E-001	-6.14619E-005	0.00000E+000	-2.00066E-001	0.00000E+000	9	...........	1425.95
	53	4.9	-2.00223E-001	-6.12746E-005	0.00000E+000	-2.00066E-001	0.00000E+000	9	...........	1425.95
	54	5	-2.00222E-001	-6.10761E-005	0.00000E+000	-2.00066E-001	0.00000E+000	9	...........	1425.78
	55	5.1	-2.00223E-001	-6.08942E-005	0.00000E+000	-2.00066E-001	0.00000E+000	9	...........	1425.78
	56	5.2	-2.00224E-001	-6.07086E-005	0.00000E+000	-2.00066E-001	0.00000E+000	9	...........	1425.78
	57	5.3	-2.00223E-001	-6.05456E-005	0.00000E+000	-2.00066E-001	0.00000E+000	9	...........	1425.78
	58	5.4	-2.00224E-001	-6.03750E-005	0.00000E+000	-2.00066E-001	0.00000E+000	9	...........	1425.78
	59	5.5	-2.00222E-001	-6.02262E-005	0.00000E+000	-2.00066E-001	0.00000E+000	9	...........	1425.78
	60	5.6	-2.00223E-001	-6.00576E-005	0.00000E+000	-2.00066E-001	0.00000E+000	9	...........	1425.78
	61	5.7	-2.00223E-001	-5.99269E-005	0.00000E+000	-2.00066E-001	0.00000E+000	9	...........	1425.78
	62	5.8	-2.00221E-001	-5.97490E-005	0.00000E+000	-2.00066E-001	0.00000E+000	9	...........	1425.78
	63	5.9	-2.00223E-001	-5.96149E-005	0.00000E+000	-2.00066E-001	0.00000E+000	9	...........	1425.78
	64	6	-2.00222E-001	-5.94821E-005	0.00000E+000	-2.00066E-001	0.00000E+000	9	...........	1426.13
	65	6.1	-2.00224E-001	-5.93405E-005	0.00000E+000	-2.00066E-001	0.00000E+000	9	...........	1426.13
	66	7.1	-2.00223E-001	-5.81498E-005	0.00000E+000	-2.00066E-001	0.00000E+000	9	...........	1425.78
	67	8.1	-2.00224E-001	-5.72328E-005	0.00000E+000	-2.00066E-001	0.00000E+000	9	...........	1426.13
	68	9.1	-2.00223E-001	-5.64030E-005	0.00000E+000	-2.00066E-001	0.00000E+000	9	...........	1426.22
	69	10.1	-2.00224E-001	-5.57581E-005	0.00000E+000	-2.00066E-001	0.00000E+000	9	...........	1426.22
	70	11.1	-2.00224E-001	-5.52743E-005	0.00000E+000	-2.00066E-001	0.00000E+000	9	...........	1426.22
	71	12.1	-2.00225E-001	-5.48418E-005	0.00000E+000	-2.00066E-001	0.00000E+000	9	...........	1426.22
	72	13.1	-2.00224E-001	-5.44566E-005	0.00000E+000	-2.00066E-001	0.00000E+000	9	...........	1426.22
	73	14.1	-2.00226E-001	-5.41663E-005	0.00000E+000	-2.00066E-001	0.00000E+000	9	...........	1426.22
	74	15.1	-2.00226E-001	-5.39141E-005	0.00000E+000	-2.00066E-001	0.00000E+000	9	...........	1426.22
	75	16.1	-2.00223E-001	-5.36284E-005	0.00000E+000	-2.00066E-001	0.00000E+000	9	...........	1426.22
	76	26.1	-2.00224E-001	-5.22130E-005	0.00000E+000	-2.00066E-001	0.00000E+000	9	...........	1426.22
	77	36.1	-2.00223E-001	-5.09851E-005	0.00000E+000	-2.00066E-001	0.00000E+000	9	...........	1426.22
	78	46.1	-2.00226E-001	-5.00850E-005	0.00000E+000	-2.00066E-001	0.00000E+000	9	...........	1426.22
	79	56.1	-2.00227E-001	-4.99690E-005	0.00000E+000	-2.00066E-001	0.00000E+000	9	...........	1426.22
	80	66.1	-2.00223E-001	-4.91282E-005	0.00000E+000	-2.00066E-001	0.00000E+000	9	...........	1426.22
	81	76.1	-2.00223E-001	-4.94238E-005	0.00000E+000	-2.00066E-001	0.00000E+000	9	...........	1426.22
	82	86.1	-2.00226E-001	-4.87513E-005	0.00000E+000	-2.00066E-001	0.00000E+000	9	...........	1426.22
	83	96.1	-2.00225E-001	-4.86758E-005	0.00000E+000	-2.00066E-001	0.00000E+000	9	...........	1426.22
	84	106.1	-2.00228E-001	-4.79247E-005	0.00000E+000	-2.00066E-001	0.00000E+000	9	...........	1426.22
	85	116.1	-2.00225E-001	-4.82460E-005	0.00000E+000	-2.00066E-001	0.00000E+000	9	...........	1426.22
	86	216.1	-2.00227E-001	-4.69548E-005	0.00000E+000	-2.00066E-001	0.00000E+000	9	...........	1426.22
	87	316.1	-2.00227E-001	-4.53261E-005	0.00000E+000	-2.00066E-001	0.00000E+000	9	...........	1426.22
	88	360	-2.00227E-001	-4.51256E-005	0.00000E+000	-2.00066E-001	0.00000E+000	9	...........	1426.22
	89	360.1	-3.00232E-001	-2.51251E-004	0.00000E+000	-3.00066E-001	0.00000E+000	9	...........	1426.22
	90	360.2	-3.00285E-001	-2.04076E-004	0.00000E+000	-3.00066E-001	0.00000E+000	9	...........	1426.22
	91	360.3	-3.00295E-001	-1.94616E-004	0.00000E+000	-3.00066E-001	0.00000E+000	9	...........	1426.22
	92	360.4	-3.00289E-001	-1.90330E-004	0.00000E+000	-3.00066E-001	0.00000E+000	9	...........	1426.22
	93	360.5	-3.00286E-001	-1.87543E-004	0.00000E+000	-3.00066E-001	0.00000E+000	9	...........	1426.22
	94	360.6	-3.00291E-001	-1.85414E-004	0.00000E+000	-3.00066E-001	0.00000E+000	9	...........	1426.22
	95	360.7	-3.00284E-001	-1.83611E-004	0.00000E+000	-3.00066E-001	0.00000E+000	9	...........	1426.22
	96	360.8	-3.00292E-001	-1.82039E-004	0.00000E+000	-3.00066E-001	0.00000E+000	9	...........	1426.22
	97	360.9	-3.00288E-001	-1.80639E-004	0.00000E+000	-3.00066E-001	0.00000E+000	9	...........	1426.22
	98	361	-3.00300E-001	-1.79388E-004	0.00000E+000	-3.00066E-001	0.00000E+000	9	...........	1426.22
