EXPLAIN
TAG	CHRONOA
TITLE	LABEL	Chronoamperometry Scan	Test Identifier
DATE	LABEL	15/12/2021	Date
TIME	LABEL	17:18:47	Time
NOTES	NOTES	1	Notes...
	
PSTAT	PSTAT	IFC1010-21051	Potentiostat
VPRESTEP	POTEN	0.00000E+000	F	Pre-step Voltage (V)
TPRESTEP	QUANT	5.00000E-001	Pre-step Delay Time (s)
VSTEP1	POTEN	-2.00000E-001	F	Step 1 Voltage (V)
TSTEP1	QUANT	3.60000E+002	Step 1 Time (s)
VSTEP2	POTEN	-3.00000E-001	F	Step 2 Voltage (V)
TSTEP2	QUANT	1.00000E+000	Step 2 Time (s)
SAMPLETIME	QUANT	1.00000E-001	Sample Period (s)
DECIMATE	TOGGLE	T	Decimate
ILIMIT	QUANT	1.00000E+000	Limit I (mA/cm^2)
IMODE	SELECTOR	1	I/E Range Mode
IRANGE	QUANT	3.00000E-001	Max Current (mA)
EQDELAY	QUANT	5.00000E+000	Equil. Time (s)
SAMPLINGMODE	SELECTOR	1	Sampling Mode
AREA	QUANT	1.00000E+000	Sample Area (cm^2)
IRCOMP	SELECTOR	0	IRComp
PFCOR	QUANT	5.00000E+001	PF Corr. (ohm)
SEQUENCER	TOGGLE	TRUE	Run as Sequence
PSTATMODEL	IQUANT	64	Pstat Model
PSTATSECTION	LABEL	IFC1010-21051	Pstat Section
PSTATSERIALNO	LABEL	21051	Pstat Serial Number
CTRLMODE	IQUANT	1	Control Mode
ELECTROMETER	IQUANT	0	RE=0 or CS=1
IESTAB	IQUANT	0	I/E Stability
CASPEED	IQUANT	4	Control Amp Speed
CONVENTION	IQUANT	1	Current Convention
ICHRANGE	IQUANT	2	Ich Range
ICHRANGEMODE	TOGGLE	T	Ich Auto Range
ICHOFFSETENABLE	TOGGLE	F	Ich Offset Enable
ICHOFFSET	QUANT	0	Ich Offset (V)
ICHFILTER	IQUANT	3	Ich Filter
VCHRANGE	IQUANT	3	Vch Range
VCHRANGEMODE	TOGGLE	T	Vch Auto Range
VCHOFFSETENABLE	TOGGLE	F	Vch Offset Enable
VCHOFFSET	QUANT	0	Vch Offset (V)
VCHFILTER	IQUANT	3	Vch Filter
IERANGELOWERLIMIT	IQUANT	4	I/E Range Lower Limit
IERANGEMODE	TOGGLE	F	I/E AutoRange
IERANGE	IQUANT	9	I/E Range
ACHSELECT	IQUANT	0	Ach Select
ACHRANGE	IQUANT	2	Ach Range
ACHOFFSETENABLE	TOGGLE	F	Ach Offset Enable
ACHOFFSET	QUANT	0	Ach Offset (V)
ACHFILTER	IQUANT	1	Ach Filter
SENSECABLEID	IQUANT	14	Sense Cable ID
PWRCABLEID	IQUANT	14	Power Cable ID
DCCALDATE	LABEL	10/1/2020	DC Calibration Date
ACCALDATE	LABEL	4/2/2018	AC Calibration Date
FRAMEWORKVERSION	QUANT	7.06	Framework Version
INSTRUMENTVERSION	LABEL	4.30	Instrument Version
CURVE	TABLE	99
	Pt	T	Vf	Im	Vu	Sig	Ach	IERange	Over	Temp
	#	s	V vs. Ref.	A	V	V	V	#	bits	deg C
	0	-0.4	-4.83413E-004	-1.68396E-005	0.00000E+000	-6.72489E-005	0.00000E+000	9	...........	1425.95
	1	-0.3	-2.47485E-004	-1.69813E-005	0.00000E+000	-6.72489E-005	0.00000E+000	9	...........	1425.95
	2	-0.2	-1.90064E-004	-1.71114E-005	0.00000E+000	-6.72489E-005	0.00000E+000	9	...........	1425.95
	3	-0.1	-1.85553E-004	-1.72337E-005	0.00000E+000	-6.72489E-005	0.00000E+000	9	...........	1425.95
	4	0	-1.84849E-004	-1.73525E-005	0.00000E+000	-6.72489E-005	0.00000E+000	9	...........	1425.95
	5	0.1	-3.29021E-002	-6.11007E-004	0.00000E+000	-2.00066E-001	0.00000E+000	9	.........v.	1425.95
	6	0.2	-2.00218E-001	-3.89166E-004	0.00000E+000	-2.00066E-001	0.00000E+000	9	...........	1425.95
	7	0.3	-2.00219E-001	-2.89982E-004	0.00000E+000	-2.00066E-001	0.00000E+000	9	...........	1425.95
	8	0.4	-2.00219E-001	-2.33915E-004	0.00000E+000	-2.00066E-001	0.00000E+000	9	...........	1425.95
	9	0.5	-2.00220E-001	-1.98537E-004	0.00000E+000	-2.00066E-001	0.00000E+000	9	...........	1425.51
	10	0.6	-2.00220E-001	-1.74767E-004	0.00000E+000	-2.00066E-001	0.00000E+000	9	...........	1425.51
	11	0.7	-2.00220E-001	-1.58154E-004	0.00000E+000	-2.00066E-001	0.00000E+000	9	...........	1425.51
	12	0.8	-2.00220E-001	-1.46114E-004	0.00000E+000	-2.00066E-001	0.00000E+000	9	...........	1425.51
	13	0.9	-2.00219E-001	-1.37122E-004	0.00000E+000	-2.00066E-001	0.00000E+000	9	...........	1425.51
	14	1	-2.00221E-001	-1.30207E-004	0.00000E+000	-2.00066E-001	0.00000E+000	9	...........	1425.51
	15	1.1	-2.00221E-001	-1.24804E-004	0.00000E+000	-2.00066E-001	0.00000E+000	9	...........	1425.51
	16	1.2	-2.00220E-001	-1.20462E-004	0.00000E+000	-2.00066E-001	0.00000E+000	9	...........	1425.51
	17	1.3	-2.00220E-001	-1.16917E-004	0.00000E+000	-2.00066E-001	0.00000E+000	9	...........	1425.51
	18	1.4	-2.00220E-001	-1.13973E-004	0.00000E+000	-2.00066E-001	0.00000E+000	9	...........	1425.51
	19	1.5	-2.00220E-001	-1.11484E-004	0.00000E+000	-2.00066E-001	0.00000E+000	9	...........	1426.04
	20	1.6	-2.00221E-001	-1.09358E-004	0.00000E+000	-2.00066E-001	0.00000E+000	9	...........	1426.04
	21	1.7	-2.00222E-001	-1.07503E-004	0.00000E+000	-2.00066E-001	0.00000E+000	9	...........	1426.04
	22	1.8	-2.00220E-001	-1.05877E-004	0.00000E+000	-2.00066E-001	0.00000E+000	9	...........	1426.04
	23	1.9	-2.00220E-001	-1.04428E-004	0.00000E+000	-2.00066E-001	0.00000E+000	9	...........	1426.04
	24	2	-2.00222E-001	-1.03195E-004	0.00000E+000	-2.00066E-001	0.00000E+000	9	...........	1426.04
	25	2.1	-2.00219E-001	-1.02041E-004	0.00000E+000	-2.00066E-001	0.00000E+000	9	...........	1426.04
	26	2.2	-2.00222E-001	-1.01034E-004	0.00000E+000	-2.00066E-001	0.00000E+000	9	...........	1426.04
	27	2.3	-2.00221E-001	-1.00080E-004	0.00000E+000	-2.00066E-001	0.00000E+000	9	...........	1426.04
	28	2.4	-2.00222E-001	-9.92329E-005	0.00000E+000	-2.00066E-001	0.00000E+000	9	...........	1426.04
	29	2.5	-2.00221E-001	-9.84752E-005	0.00000E+000	-2.00066E-001	0.00000E+000	9	...........	1426.04
	30	2.6	-2.00222E-001	-9.77486E-005	0.00000E+000	-2.00066E-001	0.00000E+000	9	...........	1426.04
	31	2.7	-2.00221E-001	-9.70818E-005	0.00000E+000	-2.00066E-001	0.00000E+000	9	...........	1426.04
	32	2.8	-2.00222E-001	-9.64613E-005	0.00000E+000	-2.00066E-001	0.00000E+000	9	...........	1426.04
	33	2.9	-2.00222E-001	-9.58906E-005	0.00000E+000	-2.00066E-001	0.00000E+000	9	...........	1426.04
	34	3	-2.00222E-001	-9.53662E-005	0.00000E+000	-2.00066E-001	0.00000E+000	9	...........	1426.04
	35	3.1	-2.00221E-001	-9.48663E-005	0.00000E+000	-2.00066E-001	0.00000E+000	9	...........	1426.04
	36	3.2	-2.00220E-001	-9.43816E-005	0.00000E+000	-2.00066E-001	0.00000E+000	9	...........	1426.04
	37	3.3	-2.00219E-001	-9.39093E-005	0.00000E+000	-2.00066E-001	0.00000E+000	9	...........	1426.04
	38	3.4	-2.00222E-001	-9.35128E-005	0.00000E+000	-2.00066E-001	0.00000E+000	9	...........	1426.04
	39	3.5	-2.00221E-001	-9.30925E-005	0.00000E+000	-2.00066E-001	0.00000E+000	9	...........	1426.04
	40	3.6	-2.00221E-001	-9.27213E-005	0.00000E+000	-2.00066E-001	0.00000E+000	9	...........	1426.04
	41	3.7	-2.00221E-001	-9.23554E-005	0.00000E+000	-2.00066E-001	0.00000E+000	9	...........	1426.04
	42	3.8	-2.00220E-001	-9.20105E-005	0.00000E+000	-2.00066E-001	0.00000E+000	9	...........	1426.04
	43	3.9	-2.00222E-001	-9.16736E-005	0.00000E+000	-2.00066E-001	0.00000E+000	9	...........	1426.04
	44	4	-2.00221E-001	-9.13681E-005	0.00000E+000	-2.00066E-001	0.00000E+000	9	...........	1426.04
	45	4.1	-2.00220E-001	-9.10782E-005	0.00000E+000	-2.00066E-001	0.00000E+000	9	...........	1426.04
	46	4.2	-2.00221E-001	-9.07821E-005	0.00000E+000	-2.00066E-001	0.00000E+000	9	...........	1426.04
	47	4.3	-2.00220E-001	-9.04986E-005	0.00000E+000	-2.00066E-001	0.00000E+000	9	...........	1426.04
	48	4.4	-2.00222E-001	-9.02424E-005	0.00000E+000	-2.00066E-001	0.00000E+000	9	...........	1426.04
	49	4.5	-2.00220E-001	-8.99505E-005	0.00000E+000	-2.00066E-001	0.00000E+000	9	...........	1426.04
	50	4.6	-2.00219E-001	-8.97228E-005	0.00000E+000	-2.00066E-001	0.00000E+000	9	...........	1426.04
	51	4.7	-2.00220E-001	-8.94746E-005	0.00000E+000	-2.00066E-001	0.00000E+000	9	...........	1426.04
	52	4.8	-2.00221E-001	-8.92343E-005	0.00000E+000	-2.00066E-001	0.00000E+000	9	...........	1426.04
	53	4.9	-2.00223E-001	-8.90146E-005	0.00000E+000	-2.00066E-001	0.00000E+000	9	...........	1426.04
	54	5	-2.00220E-001	-8.87607E-005	0.00000E+000	-2.00066E-001	0.00000E+000	9	...........	1426.04
	55	5.1	-2.00220E-001	-8.85585E-005	0.00000E+000	-2.00066E-001	0.00000E+000	9	...........	1426.04
	56	5.2	-2.00221E-001	-8.83277E-005	0.00000E+000	-2.00066E-001	0.00000E+000	9	...........	1426.04
	57	5.3	-2.00221E-001	-8.81422E-005	0.00000E+000	-2.00066E-001	0.00000E+000	9	...........	1426.04
	58	5.4	-2.00221E-001	-8.79445E-005	0.00000E+000	-2.00066E-001	0.00000E+000	9	...........	1426.04
	59	5.5	-2.00220E-001	-8.77758E-005	0.00000E+000	-2.00066E-001	0.00000E+000	9	...........	1426.04
	60	5.6	-2.00221E-001	-8.75743E-005	0.00000E+000	-2.00066E-001	0.00000E+000	9	...........	1426.04
	61	5.7	-2.00220E-001	-8.73840E-005	0.00000E+000	-2.00066E-001	0.00000E+000	9	...........	1426.04
	62	5.8	-2.00221E-001	-8.72027E-005	0.00000E+000	-2.00066E-001	0.00000E+000	9	...........	1426.04
	63	5.9	-2.00222E-001	-8.70509E-005	0.00000E+000	-2.00066E-001	0.00000E+000	9	...........	1426.04
	64	6	-2.00220E-001	-8.68862E-005	0.00000E+000	-2.00066E-001	0.00000E+000	9	...........	1426.04
	65	6.1	-2.00219E-001	-8.67135E-005	0.00000E+000	-2.00066E-001	0.00000E+000	9	...........	1426.04
	66	7.1	-2.00222E-001	-8.53441E-005	0.00000E+000	-2.00066E-001	0.00000E+000	9	...........	1426.04
	67	8.1	-2.00222E-001	-8.41920E-005	0.00000E+000	-2.00066E-001	0.00000E+000	9	...........	1426.04
	68	9.1	-2.00222E-001	-8.32120E-005	0.00000E+000	-2.00066E-001	0.00000E+000	9	...........	1426.04
	69	10.1	-2.00224E-001	-8.23947E-005	0.00000E+000	-2.00066E-001	0.00000E+000	9	...........	1426.13
	70	11.1	-2.00224E-001	-8.15658E-005	0.00000E+000	-2.00066E-001	0.00000E+000	9	...........	1426.04
	71	12.1	-2.00222E-001	-8.08057E-005	0.00000E+000	-2.00066E-001	0.00000E+000	9	...........	1426.04
	72	13.1	-2.00221E-001	-8.01495E-005	0.00000E+000	-2.00066E-001	0.00000E+000	9	...........	1426.13
	73	14.1	-2.00224E-001	-7.95937E-005	0.00000E+000	-2.00066E-001	0.00000E+000	9	...........	1426.04
	74	15.1	-2.00221E-001	-7.91158E-005	0.00000E+000	-2.00066E-001	0.00000E+000	9	...........	1426.04
	75	16.1	-2.00223E-001	-7.86541E-005	0.00000E+000	-2.00066E-001	0.00000E+000	9	...........	1426.04
	76	26.1	-2.00221E-001	-7.41242E-005	0.00000E+000	-2.00066E-001	0.00000E+000	9	...........	1426.04
	77	36.1	-2.00221E-001	-7.09033E-005	0.00000E+000	-2.00066E-001	0.00000E+000	9	...........	1426.13
	78	46.1	-2.00222E-001	-6.90292E-005	0.00000E+000	-2.00066E-001	0.00000E+000	9	...........	1426.13
	79	56.1	-2.00222E-001	-6.69231E-005	0.00000E+000	-2.00066E-001	0.00000E+000	9	...........	1426.13
	80	66.1	-2.00224E-001	-6.62778E-005	0.00000E+000	-2.00066E-001	0.00000E+000	9	...........	1426.13
	81	76.1	-2.00224E-001	-6.52036E-005	0.00000E+000	-2.00066E-001	0.00000E+000	9	...........	1426.04
	82	86.1	-2.00222E-001	-6.41450E-005	0.00000E+000	-2.00066E-001	0.00000E+000	9	...........	1426.04
	83	96.1	-2.00224E-001	-6.40678E-005	0.00000E+000	-2.00066E-001	0.00000E+000	9	...........	1426.04
	84	106.1	-2.00222E-001	-6.31471E-005	0.00000E+000	-2.00066E-001	0.00000E+000	9	...........	1426.04
	85	116.1	-2.00224E-001	-6.30078E-005	0.00000E+000	-2.00066E-001	0.00000E+000	9	...........	1426.13
	86	216.1	-2.00222E-001	-6.03282E-005	0.00000E+000	-2.00066E-001	0.00000E+000	9	...........	1426.13
	87	316.1	-2.00222E-001	-5.78633E-005	0.00000E+000	-2.00066E-001	0.00000E+000	9	...........	1426.13
	88	360	-2.00224E-001	-5.78136E-005	0.00000E+000	-2.00066E-001	0.00000E+000	9	...........	1426.13
	89	360.1	-3.00229E-001	-3.72819E-004	0.00000E+000	-3.00066E-001	0.00000E+000	9	...........	1426.13
	90	360.2	-3.00279E-001	-2.81016E-004	0.00000E+000	-3.00066E-001	0.00000E+000	9	...........	1426.13
	91	360.3	-3.00289E-001	-2.49137E-004	0.00000E+000	-3.00066E-001	0.00000E+000	9	...........	1426.13
	92	360.4	-3.00286E-001	-2.34507E-004	0.00000E+000	-3.00066E-001	0.00000E+000	9	...........	1426.13
	93	360.5	-3.00294E-001	-2.26279E-004	0.00000E+000	-3.00066E-001	0.00000E+000	9	...........	1426.13
	94	360.6	-3.00284E-001	-2.20849E-004	0.00000E+000	-3.00066E-001	0.00000E+000	9	...........	1426.13
	95	360.7	-3.00288E-001	-2.16898E-004	0.00000E+000	-3.00066E-001	0.00000E+000	9	...........	1426.13
	96	360.8	-3.00289E-001	-2.13791E-004	0.00000E+000	-3.00066E-001	0.00000E+000	9	...........	1426.13
	97	360.9	-3.00289E-001	-2.11191E-004	0.00000E+000	-3.00066E-001	0.00000E+000	9	...........	1426.13
	98	361	-3.00293E-001	-2.08933E-004	0.00000E+000	-3.00066E-001	0.00000E+000	9	...........	1426.13
