Data from AgNPs_FTO_APTES_UA_2uM_CRN_1uM_R6G_10uM_NaF_0.1M_Addition_RamanShift__13__11-34-15-015.txt Node

Date: Wed Feb 02 11:34:15 GMT 2022
User: TCL
Spectrometer: QEP01345
Trigger mode: 4
Integration Time (sec): 7.000000E0
Scans to average: 10
Electric dark correction enabled: true
Nonlinearity correction enabled: false
Boxcar width: 0
XAxis mode: Raman Shifts
Number of Pixels in Spectrum: 1044
>>>>>Begin Spectral Data<<<<<
46.04893	0.7
50.45542	0.3
54.85868	-2.2
59.25871	-0.6
63.6555	86.3
68.04907	94
72.43941	96.1
76.82654	106.2
81.21044	104.8
85.59113	111.8
89.96862	110.2
94.34289	117.8
98.71396	119.9
103.08183	123.8
107.4465	130.9
111.80798	136.5
116.16626	135.9
120.52136	144.4
124.87327	151.3
129.222	157.2
133.56755	172.4
137.90993	182.3
142.24913	204
146.58517	237.3
150.91804	276.7
155.24774	336
159.57429	422.1
163.89768	542.2
168.21792	729.5
172.53501	1003.3
176.84895	1399.9
181.15975	1959.1
185.46741	2770.2
189.77193	3832.3
194.07331	5128.8
198.37157	6619.9
202.6667	8213.5
206.9587	9773.4
211.24758	11341.1
215.53334	12871.3
219.81599	14533.5
224.09553	16339.9
228.37195	18351.1
232.64527	20486.7
236.91549	22796.8
241.18261	25127.4
245.44663	27337.2
249.70755	29339.5
253.96539	31038.3
258.22014	32375
262.4718	33487.9
266.72039	34118.6
270.96589	34349.5
275.20832	34261.3
279.44768	33877.3
283.68397	33463.4
287.91719	33054.3
292.14735	32698.6
296.37445	32522.1
300.59849	32450.3
304.81948	32478.1
309.03742	32480.4
313.25231	32281.8
317.46415	31776.5
321.67296	31029.7
325.87872	30380.6
330.08145	30006.6
334.28114	29881.9
338.47781	30025.7
342.67145	30257.3
346.86207	30594.7
351.04966	31054.8
355.23424	31470.9
359.4158	31945.4
363.59435	32259.3
367.76989	32455
371.94243	32505.3
376.11196	32481.3
380.27849	32409.3
384.44203	32413.3
388.60257	32620.4
392.76012	32980.8
396.91468	33476.8
401.06626	34073.7
405.21485	34427.6
409.36047	34282.7
413.50311	33786.7
417.64277	33459.1
421.77947	33413.6
425.9132	33607.6
430.04396	33815.9
434.17176	33902.3
438.2966	33988.5
442.41849	34316
446.53742	34878.4
450.6534	35494.8
454.76644	35885.7
458.87653	36077.4
462.98368	36028.1
467.08789	36002.1
471.18916	35726.2
475.2875	35422.3
479.38291	35269.6
483.4754	35294.9
487.56496	35166.8
491.6516	34848.8
495.73531	34327.1
499.81612	33994.7
503.89401	33940.2
507.96899	34084.6
512.04106	34102.3
516.11023	33979
520.1765	33643.1
524.23987	33291.1
528.30034	33012.8
532.35792	32675.6
536.41261	32352.7
540.46441	32052.8
544.51333	32056.5
548.55936	32466.9
552.60252	33051.4
556.64279	33751
560.6802	34336.8
564.71473	34745.1
568.7464	35515.7
572.7752	36809
576.80114	38226.5
580.82422	39631.5
584.84444	40837.6
588.86181	42379
592.87633	43829.2
596.888	43657.6
600.89682	41548.4
604.9028	40346.3
608.90594	41964.7
612.90624	44104.5
616.90371	41667.4
620.89834	36188.5
624.89015	33656.4
628.87913	33454.5
632.86528	33779.5
636.84862	33770.6
640.82913	33045.9
644.80683	32098.6
648.78172	31417.9
652.75379	31257.9
656.72306	31539.8
660.68952	31982.1
664.65319	31867.1
668.61405	31433.6
672.57211	31325.6
676.52738	31388
680.47986	31357
684.42955	31159.1
688.37646	31023.4
692.32058	31094.7
696.26192	31429.5
700.20048	31875.2
704.13626	32228.8
708.06928	32444.4
711.99952	32520.3
715.927	32351.2
719.85171	32227.7
723.77365	31893.8
727.69284	31347.1
731.60928	30924
735.52295	30704
739.43388	30644.5
743.34206	30712.8
747.24749	30865.6
751.15017	31305.1
755.05012	31882.9
758.94733	32750.5
762.8418	34203.8
766.73354	36429.8
770.62254	38445.2
774.50882	38682
778.39237	37020
782.27321	34870.3
786.15132	33058.5
790.02671	31797.8
793.89938	31149.1
797.76935	30769.1
801.6366	30561.9
805.50115	30396.6
809.36299	30254.2
813.22213	30127.7
817.07857	30077
820.93231	30093.2
824.78336	29974.2
828.63172	29851.3
832.47738	29759.2
836.32036	29764.1
840.16066	29672.8
843.99827	29620.1
847.8332	29581.9
851.66546	29671.3
855.49504	29720.4
859.32195	29702.8
863.1462	29636.9
866.96777	29649.8
870.78668	29588.8
874.60293	29664.8
878.41652	29741.8
882.22745	29889.4
886.03573	30009
889.84136	30066.1
893.64433	30095.8
897.44466	30156.3
901.24235	30254.9
905.0374	30298.7
908.8298	30332.7
912.61957	30449.7
916.40671	30785.7
920.19121	31217.6
923.97308	31560.9
927.75233	31587.9
931.52895	31209
935.30295	30577.4
939.07433	29840.5
942.84309	29283.6
946.60924	28938.7
950.37278	28736.1
954.13371	28632.7
957.89203	28551.5
961.64774	28518.8
965.40086	28445.9
969.15137	28316.3
972.89929	28120.9
976.64461	27962.5
980.38733	27853.8
984.12747	27724.3
987.86502	27770.9
991.59999	27825.6
995.33237	27990.7
999.06217	28256.5
1002.78939	28675.3
1006.51404	29183.7
1010.23611	29664.7
1013.95561	29998.3
1017.67255	30031
1021.38692	29798.8
1025.09872	29342.9
1028.80796	29005.8
1032.51465	28879.9
1036.21877	28889.1
1039.92035	29083.2
1043.61937	29256.8
1047.31584	29397.5
1051.00976	29526.8
1054.70114	29684.5
1058.38998	29833
1062.07627	30078.2
1065.76003	30439.5
1069.44126	30909.4
1073.11995	31520.9
1076.79611	32058.8
1080.46974	32153.9
1084.14085	32195.1
1087.80943	32427.3
1091.47549	32802.5
1095.13903	32990.7
1098.80005	32668
1102.45857	31805.9
1106.11456	30947.2
1109.76805	30430
1113.41903	30173.2
1117.06751	30151.5
1120.71348	30406.7
1124.35696	30725.2
1127.99793	31169.9
1131.63641	31405.3
1135.2724	31439.8
1138.90589	31338.1
1142.5369	31417.6
1146.16542	31655.3
1149.79145	31958.2
1153.415	32347.9
1157.03607	32863.1
1160.65467	33659.2
1164.27079	34977.7
1167.88443	36581
1171.49561	38438.1
1175.10432	40691.4
1178.71056	43583.7
1182.31434	46190.8
1185.91565	47656.6
1189.51451	47791.9
1193.11091	47058.7
1196.70485	45496.6
1200.29634	43662.6
1203.88538	42265.4
1207.47197	41531.6
1211.05612	41227.1
1214.63782	40647.8
1218.21708	39577.8
1221.79391	38213.7
1225.36829	37233.9
1228.94024	36651.6
1232.50976	36324.4
1236.07685	36096.9
1239.6415	35886.8
1243.20374	35786.8
1246.76355	35828.1
1250.32093	36199.6
1253.8759	36876.8
1257.42845	37862.2
1260.97859	39081.9
1264.52631	40303.3
1268.07163	41523.3
1271.61453	42703.5
1275.15503	43987.2
1278.69312	45475.1
1282.22882	47092.2
1285.76211	48897.8
1289.29301	50811.5
1292.82151	52957.9
1296.34761	55313.7
1299.87133	58008
1303.39266	60544.5
1306.9116	62670.6
1310.42815	63971
1313.94233	64415.5
1317.45412	64053.8
1320.96354	63542.4
1324.47058	63415.6
1327.97525	63367.5
1331.47754	63169.6
1334.97747	62700.5
1338.47502	61961
1341.97022	61368.4
1345.46305	60880.6
1348.95352	60346.5
1352.44163	59913.7
1355.92738	60202.1
1359.41078	61464.2
1362.89183	63009.1
1366.37053	62773.8
1369.84688	59218.1
1373.32088	53780.2
1376.79254	49571.2
1380.26186	47705.5
1383.72883	47319.5
1387.19347	47071.4
1390.65578	46510.3
1394.11575	46147.3
1397.57339	46331.5
1401.0287	46774
1404.48168	46957.4
1407.93234	46367.3
1411.38068	45134.1
1414.82669	43387.4
1418.27039	41628
1421.71177	40112.2
1425.15083	38943.6
1428.58758	38519.1
1432.02203	38748.9
1435.45416	39569.1
1438.88399	40437.5
1442.31151	41086.6
1445.73673	41535
1449.15965	42123.8
1452.58027	42516.3
1455.9986	42774.3
1459.41463	43161.1
1462.82837	43684.3
1466.23982	44326.9
1469.64898	44846.8
1473.05586	45086.1
1476.46045	45026.1
1479.86276	44903.1
1483.26279	44856.2
1486.66054	45102.6
1490.05602	45718.7
1493.44922	46796
1496.84016	48142.3
1500.22882	49686.9
1503.61521	51358.6
1506.99934	52817.5
1510.38121	53826.7
1513.76081	54039.1
1517.13816	53475
1520.51324	52430.6
1523.88607	51618.8
1527.25665	51154.7
1530.62498	50699.3
1533.99105	49742.3
1537.35488	48409.4
1540.71647	46666.5
1544.07581	44893.8
1547.4329	43249.3
1550.78776	42058.5
1554.14038	41428
1557.49077	41265.9
1560.83892	41402.9
1564.18484	41592.2
1567.52853	41822.9
1570.86999	42335.5
1574.20922	43182.2
1577.54624	44051.9
1580.88103	44525.7
1584.2136	44879.2
1587.54395	45780.8
1590.87208	47411.6
1594.19801	49185.3
1597.52172	50586.6
1600.84321	50134.3
1604.16251	47270.3
1607.47959	43596.8
1610.79447	40197.6
1614.10715	37195.3
1617.41763	34780.6
1620.7259	33123.3
1624.03199	32323.4
1627.33587	32444.1
1630.63757	33450.9
1633.93707	35726.6
1637.23439	39456.6
1640.52951	44982.2
1643.82246	51686.9
1647.11321	57130.4
1650.40179	58457.1
1653.68819	54670.7
1656.97241	47612.4
1660.25446	40405.6
1663.53433	34795.3
1666.81203	31169.7
1670.08756	28937
1673.36092	27510.5
1676.63211	26623.9
1679.90115	26005.4
1683.16801	25559.3
1686.43272	25189.6
1689.69527	24975.6
1692.95567	24793.6
1696.2139	24629.6
1699.46999	24554.9
1702.72392	24402.4
1705.97571	24304.8
1709.22535	24216.3
1712.47284	24180.3
1715.71819	24091.8
1718.96139	23999.9
1722.20246	23928.9
1725.44139	23812.8
1728.67818	23623.1
1731.91284	23478.1
1735.14537	23321.5
1738.37576	23201.5
1741.60403	23126.4
1744.83017	23045.3
1748.05418	22959.6
1751.27607	22909.1
1754.49584	22882
1757.71349	22856.2
1760.92903	22820.2
1764.14244	22775.4
1767.35375	22760.9
1770.56294	22698.8
1773.77002	22645.5
1776.97499	22585.1
1780.17785	22505.5
1783.37861	22484.3
1786.57727	22460.8
1789.77382	22388.3
1792.96828	22361
1796.16064	22282
1799.3509	22227.1
1802.53907	22185.7
1805.72514	22117.3
1808.90913	22115.3
1812.09102	22036.2
1815.27083	21995.4
1818.44856	21973.4
1821.6242	21924.7
1824.79776	21892
1827.96924	21852.1
1831.13864	21911.2
1834.30597	21920.5
1837.47122	21933.4
1840.6344	21953.3
1843.7955	21966.3
1846.95454	21966.8
1850.11151	21947.3
1853.26642	21918.3
1856.41926	21960.7
1859.57004	21931.6
1862.71876	21905.9
1865.86542	21831.1
1869.01003	21787.3
1872.15258	21747.6
1875.29308	21727.7
1878.43152	21662.3
1881.56792	21607.4
1884.70227	21520.4
1887.83457	21467.1
1890.96482	21412.5
1894.09304	21400
1897.21921	21366.8
1900.34335	21316.7
1903.46544	21278.8
1906.58551	21214.6
1909.70353	21159.5
1912.81953	21097.4
1915.93349	21053.1
1919.04543	20999.7
1922.15534	20934.4
1925.26322	20876.6
1928.36908	20746.4
1931.47292	20702.2
1934.57473	20630.5
1937.67453	20554.3
1940.77232	20525.1
1943.86808	20444.2
1946.96184	20361.5
1950.05358	20342.7
1953.14331	20235.7
1956.23103	20200.7
1959.31675	20134.3
1962.40046	20076
1965.48217	20011.3
1968.56188	19912.2
1971.63959	19838.1
1974.7153	19752.9
1977.78901	19658.5
1980.86073	19593.8
1983.93046	19534.2
1986.99819	19467.6
1990.06394	19374.5
1993.1277	19341
1996.18947	19231.7
1999.24925	19185.3
2002.30706	19142.8
2005.36288	19056
2008.41672	19006.6
2011.46859	18960.8
2014.51848	18860.3
2017.56639	18797
2020.61233	18777.4
2023.6563	18688.6
2026.6983	18689.5
2029.73833	18608.3
2032.7764	18559.3
2035.8125	18491.8
2038.84664	18449.3
2041.87881	18458.6
2044.90903	18473.5
2047.93729	18406.8
2050.96359	18390.7
2053.98794	18372
2057.01034	18317.5
2060.03078	18330.5
2063.04927	18283.6
2066.06582	18276.8
2069.08042	18290.9
2072.09307	18278.8
2075.10378	18243.3
2078.11255	18280.7
2081.11938	18306.7
2084.12426	18307.9
2087.12722	18247.9
2090.12824	18223.8
2093.12732	18253.7
2096.12447	18294
2099.11969	18236
2102.11299	18288.5
2105.10435	18251.8
2108.09379	18222.7
2111.08131	18222.2
2114.0669	18230.3
2117.05057	18212
2120.03233	18181
2123.01216	18218.5
2125.99008	18165.9
2128.96609	18125.3
2131.94018	18124.6
2134.91236	18109
2137.88263	18082.7
2140.851	18071.9
2143.81746	18070.6
2146.78201	18029.9
2149.74466	18004
2152.7054	18016.4
2155.66425	17978
2158.6212	17996.2
2161.57625	17964.1
2164.52941	17933.7
2167.48067	17915.8
2170.43004	17922.1
2173.37752	17901.9
2176.32311	17900.9
2179.26681	17910.2
2182.20863	17908.6
2185.14856	17854.5
2188.08661	17847.8
2191.02278	17812.1
2193.95707	17809.6
2196.88948	17801.2
2199.82001	17736.7
2202.74867	17739.4
2205.67545	17734
2208.60037	17708.1
2211.52341	17687.9
2214.44458	17633.6
2217.36388	17612.4
2220.28132	17552.6
2223.1969	17512.6
2226.11061	17491.8
2229.02246	17447.5
2231.93245	17447.1
2234.84058	17368.9
2237.74686	17391.7
2240.65128	17409.9
2243.55385	17367
2246.45456	17304
2249.35343	17268.7
2252.25044	17189.4
2255.14561	17202.5
2258.03893	17135.5
2260.93041	17118.1
2263.82004	17053.8
2266.70783	17011.6
2269.59378	16928
2272.4779	16916.7
2275.36017	16871.9
2278.24061	16810
2281.11922	16761.6
2283.996	16731.5
2286.87094	16713.2
2289.74405	16637
2292.61534	16563.1
2295.4848	16533.4
2298.35243	16555.6
2301.21824	16505.5
2304.08223	16512.9
2306.94439	16498
2309.80474	16522.2
2312.66327	16455.7
2315.51999	16452
2318.37489	16439.2
2321.22797	16408.2
2324.07925	16337.8
2326.92871	16322.5
2329.77637	16323.1
2332.62222	16328.7
2335.46626	16274.1
2338.3085	16242.2
2341.14893	16242.1
2343.98756	16211.6
2346.8244	16199.1
2349.65943	16199.3
2352.49267	16149.5
2355.32411	16148
2358.15376	16173.5
2360.98161	16181.4
2363.80768	16167.5
2366.63195	16132.7
2369.45444	16114.7
2372.27514	16094.3
2375.09405	16090.5
2377.91118	16022.9
2380.72652	16014.5
2383.54009	15938.4
2386.35187	15894.1
2389.16188	15841.8
2391.97011	15798.4
2394.77657	15790.9
2397.58125	15756.3
2400.38416	15750.1
2403.18529	15691.5
2405.98466	15664.1
2408.78226	15646.5
2411.57809	15610.6
2414.37216	15607.3
2417.16446	15602.6
2419.955	15580.9
2422.74378	15598.2
2425.5308	15561.9
2428.31606	15561
2431.09956	15522.4
2433.88131	15473.2
2436.6613	15467.2
2439.43954	15461.2
2442.21603	15446.9
2444.99077	15404.1
2447.76377	15422.8
2450.53501	15407.3
2453.30451	15427.4
2456.07226	15377.3
2458.83827	15369.9
2461.60254	15349.5
2464.36507	15353.6
2467.12586	15316.4
2469.88492	15320.4
2472.64224	15312.1
2475.39782	15282.7
2478.15167	15246.5
2480.90379	15250.4
2483.65417	15228.9
2486.40283	15235.7
2489.14976	15270
2491.89497	15239.7
2494.63845	15216
2497.3802	15188.6
2500.12024	15180.5
2502.85855	15159.3
2505.59514	15157.7
2508.33002	15138.5
2511.06318	15085.3
2513.79462	15103.6
2516.52435	15064.3
2519.25237	15066.3
2521.97867	15035.5
2524.70327	14990.6
2527.42616	14997.2
2530.14734	14957
2532.86681	14952.7
2535.58458	14953.4
2538.30065	14895.1
2541.01501	14856.9
2543.72768	14834.9
2546.43864	14802.7
2549.14791	14798.9
2551.85548	14774.2
2554.56136	14775.2
2557.26554	14731.5
2559.96803	14729
2562.66883	14688.7
2565.36794	14677.9
2568.06536	14679.1
2570.7611	14647.1
2573.45514	14604.1
2576.14751	14610.9
2578.83819	14579.7
2581.52719	14591.8
2584.21451	14558.4
2586.90015	14541.7
2589.58411	14498.5
2592.2664	14463.2
2594.94701	14428.7
2597.62594	14423.1
2600.30321	14397.1
2602.9788	14384.9
2605.65273	14365.9
2608.32498	14389.2
2610.99557	14371.1
2613.66449	14348.9
2616.33175	14334
2618.99734	14340.5
2621.66128	14306.7
2624.32355	14300.4
2626.98416	14284.6
2629.64311	14240.4
2632.30041	14245.4
2634.95605	14234.6
2637.61004	14215
2640.26238	14193.6
2642.91306	14179
2645.56209	14163
2648.20948	14164.2
2650.85521	14155.9
2653.4993	14151.8
2656.14175	14144.4
2658.78255	14141.7
2661.42171	14136.1
2664.05923	14158.2
2666.6951	14131.6
2669.32934	14125
2671.96194	14150.3
2674.59291	14167.7
2677.22224	14152.1
2679.84993	14152.3
2682.476	14137.7
2685.10043	14124.3
2687.72324	14095.4
2690.34441	14092
2692.96396	14089.1
2695.58188	14081.7
2698.19818	14089.4
2700.81285	14081.8
2703.4259	14066.8
2706.03733	14105.4
2708.64714	14083.5
2711.25533	14081.7
2713.86191	14066.9
2716.46687	14095.8
2719.07021	14066.6
2721.67194	14043.2
2724.27206	14064.7
2726.87057	14043.9
2729.46747	14014.7
2732.06276	14073.7
2734.65644	14060
2737.24852	14064.1
2739.83899	14010.6
2742.42786	14072.1
2745.01513	13996.9
2747.60079	13983.7
2750.18486	13974.2
2752.76733	13978.1
2755.3482	13949.7
2757.92747	13938.4
2760.50515	13907
2763.08123	13916.8
2765.65573	13905.2
2768.22863	13877.3
2770.79994	13849.6
2773.36967	13852
2775.9378	13813.3
2778.50435	13804.3
2781.06932	13816.1
2783.6327	13811.5
2786.1945	13775
2788.75471	13767.4
2791.31335	13705.9
2793.87041	13705.8
2796.42589	13663.2
2798.97979	13638.5
2801.53212	13591.9
2804.08288	13613.4
2806.63206	13577.5
2809.17967	13568.9
2811.72571	13535.6
2814.27018	13503.8
2816.81308	13501.4
2819.35442	13482.6
2821.89419	13489.5
2824.43239	13453.3
2826.96904	13443.4
2829.50412	13430.4
2832.03763	13376.6
2834.56959	13339
2837.1	13322.5
2839.62884	13317.2
2842.15613	13331
2844.68186	13389.3
2847.20604	13402.9
2849.72867	13405.4
2852.24974	13391.4
2854.76927	13377.2
2857.28724	13358.5
2859.80367	13350.4
2862.31855	13324.3
2864.83189	13275.3
2867.34368	13253.8
2869.85393	13228
2872.36264	13226
2874.8698	13241.4
2877.37543	13259.4
2879.87952	13264
2882.38207	13244.6
2884.88308	13256.5
2887.38256	13270.2
2889.88051	13243.9
2892.37692	13240.1
2894.8718	13252.4
2897.36515	13276
2899.85698	13263.3
2902.34727	13296
2904.83604	13280.3
2907.32328	13294.6
2909.809	13269
2912.29319	13258.7
2914.77587	13251.8
2917.25702	13244.9
2919.73665	13215.1
2922.21476	13208.6
2924.69136	13217.5
2927.16644	13230
2929.64	13225.8
2932.11205	13213.8
2934.58258	13162.8
2937.05161	13181.2
2939.51912	13152.6
2941.98513	13119.8
2944.44962	13085.7
2946.91261	13050
2949.37409	13034.2
2951.83407	12995.8
2954.29254	13015.8
2956.74951	12938.4
2959.20498	12934.3
2961.65895	12895.6
2964.11142	12860.9
2966.56239	12843.2
2969.01186	12815.3
2971.45984	12766.2
2973.90632	12762.7
2976.35131	12723.2
2978.7948	12712.3
2981.23681	12643.4
2983.67732	12616.4
2986.11635	12547.9
2988.55388	12510.9
2990.98993	12478.7
2993.4245	12447.1
2995.85758	12447
2998.28917	12389.8
3000.71928	12348.8
3003.14791	12338
3005.57506	12312.1
3008.00073	12271.9
3010.42493	12273.7
3012.84764	12246.2
3015.26888	12237.6
3017.68865	12183.4
3020.10694	12139.7
3022.52376	12115.7
3024.9391	12089.2
3027.35298	12086.1
3029.76539	12039.8
3032.17632	12023.2
3034.5858	11988.5
3036.9938	11997.2
3039.40034	11971.2
3041.80542	11954.9
3044.20903	11922.9
3046.61118	11887.9
3049.01187	11864.7
3051.4111	11842.9
3053.80888	11811
3056.20519	11766.9
3058.60005	11732.1
3060.99345	11730.1
3063.3854	11711.5
3065.7759	11672.4
3068.16494	11667.2
3070.55254	11596.8
3072.93868	11601.1
3075.32338	11566.8
3077.70662	11552.5
3080.08842	11471.9
3082.46878	11496.1
3084.84769	11455.5
3087.22515	11444
3089.60118	11449.4
3091.97576	11405.9
3094.3489	11417.2
3096.72061	11403.4
3099.09087	11360.7
3101.4597	11365.6
3103.82709	11334.5
3106.19305	11321
3108.55757	11315.4
3110.92066	11255.8
3113.28232	11238.8
3115.64255	11195.6
3118.00134	11184.2
3120.35871	11161.9
3122.71466	11134.7
3125.06917	11112.6
3127.42226	11090.4
3129.77393	11103.9
3132.12417	11075.9
3134.47299	11089.7
3136.82039	11054.6
3139.16636	11055.2
3141.51092	11050.3
3143.85406	11052.9
3146.19579	11053.7
3148.53609	11037.5
3150.87499	11040.5
3153.21246	11030.5
3155.54853	11024
3157.88318	11012.8
3160.21642	11050.8
3162.54826	11009.8
3164.87868	10989.7
3167.2077	10984.5
3169.5353	10971.1
3171.86151	10971.1
3174.18631	10945.9
3176.5097	10945.3
3178.83169	10934.2
3181.15228	10910.8
3183.47147	10853.3
3185.78926	10873.4
3188.10565	10851
3190.42065	10839
3192.73424	10856.1
3195.04645	10832.3
3197.35725	10817.2
3199.66667	10791.1
3201.97469	10795.1
3204.28132	10793.5
3206.58656	10801.6
3208.8904	10797.8
3211.19287	10767.2
3213.49394	10781.9
3215.79363	10775.9
3218.09193	10770.9
3220.38884	10774
3222.68438	10781
3224.97853	10758.3
3227.2713	10735.7
3229.56269	10712.2
3231.8527	10711.4
3234.14133	10674.9
3236.42858	10640.5
3238.71446	10623.4
3240.99896	10630
3243.28209	10637.8
3245.56384	10601.3
3247.84423	10609.4
3250.12324	10600.5
3252.40088	10560.7
3254.67715	10533.7
3256.95205	10496.8
3259.22558	10508
3261.49775	10457.3
3263.76855	10445.2
3266.03799	10434
3268.30606	10424
3270.57277	10399.6
3272.83812	10375.9
3275.10211	10345.2
3277.36474	10356.6
3279.62601	10354.8
3281.88593	10339.1
3284.14448	10382.1
3286.40168	10380.3
3288.65753	10362.7
3290.91202	10335.9
3293.16516	10267.1
3295.41695	10252.4
3297.66738	10167.2
3299.91647	10138.1
3302.16421	10080.4
3304.4106	10011.8
3306.65564	9940.9
3308.89933	9902.2
3311.14169	9842.2
3313.38269	9730.1
3315.62236	9685.5
3317.86068	9571.6
3320.09766	9483
3322.3333	9398.5
3324.5676	9386.4
3326.80056	9252
3329.03219	9234.7
3331.26248	2
3333.49143	-0.3
3335.71905	-1.1
