Data from AgNPs_FTO_APTES_UA_2uM_CRN_5uM_R6G_10uM_NaF_0.1M_Addition_RamanShift__3__12-41-55-095.txt Node

Date: Wed Feb 02 12:41:55 GMT 2022
User: TCL
Spectrometer: QEP01345
Trigger mode: 4
Integration Time (sec): 7.000000E0
Scans to average: 10
Electric dark correction enabled: true
Nonlinearity correction enabled: false
Boxcar width: 0
XAxis mode: Raman Shifts
Number of Pixels in Spectrum: 1044
>>>>>Begin Spectral Data<<<<<
46.04893	0.3875
50.45542	0.0875
54.85868	-1.8125
59.25871	-0.2125
63.6555	104.4875
68.04907	104.9875
72.43941	112.3875
76.82654	115.9875
81.21044	119.5875
85.59113	123.0875
89.96862	124.5875
94.34289	130.6875
98.71396	133.6875
103.08183	142.7875
107.4465	146.4875
111.80798	148.3875
116.16626	153.4875
120.52136	159.9875
124.87327	169.0875
129.222	179.8875
133.56755	193.1875
137.90993	211.6875
142.24913	236.2875
146.58517	271.9875
150.91804	318.9875
155.24774	389.2875
159.57429	483.7875
163.89768	629.4875
168.21792	843.9875
172.53501	1164.7875
176.84895	1623.8875
181.15975	2273.7875
185.46741	3194.4875
189.77193	4408.0875
194.07331	5886.3875
198.37157	7568.4875
202.6667	9378.0875
206.9587	11095.8875
211.24758	12845.8875
215.53334	14594.9875
219.81599	16492.1875
224.09553	18597.5875
228.37195	20890.4875
232.64527	23394.9875
236.91549	25998.9875
241.18261	28580.5875
245.44663	30934.8875
249.70755	33031.0875
253.96539	34896.4875
258.22014	36413.1875
262.4718	37766.7875
266.72039	38688.2875
270.96589	39097.1875
275.20832	39160.0875
279.44768	38839.8875
283.68397	38444.4875
287.91719	38111.7875
292.14735	37939.5875
296.37445	37989.1875
300.59849	38149.8875
304.81948	38303.9875
309.03742	38337.6875
313.25231	38180.1875
317.46415	37589.7875
321.67296	36791.3875
325.87872	36115.9875
330.08145	35719.6875
334.28114	35598.6875
338.47781	35717.8875
342.67145	36054.8875
346.86207	36640.6875
351.04966	37355.3875
355.23424	38088.1875
359.4158	38787.1875
363.59435	39350.8875
367.76989	39704.6875
371.94243	39990.7875
376.11196	40212.9875
380.27849	40338.6875
384.44203	40578.8875
388.60257	40975.9875
392.76012	41387.9875
396.91468	42094.5875
401.06626	42761.6875
405.21485	43171.5875
409.36047	43057.7875
413.50311	42731.4875
417.64277	42699.8875
421.77947	43000.6875
425.9132	43204.1875
430.04396	43426.4875
434.17176	43645.5875
438.2966	43825.0875
442.41849	44476.8875
446.53742	45847.2875
450.6534	47358.0875
454.76644	48388.9875
458.87653	48557.9875
462.98368	48090.4875
467.08789	47246.7875
471.18916	46237.8875
475.2875	45306.0875
479.38291	44765.1875
483.4754	44470.7875
487.56496	44006.3875
491.6516	43432.0875
495.73531	42929.3875
499.81612	42715.7875
503.89401	42965.4875
507.96899	43092.3875
512.04106	42975.6875
516.11023	42481.2875
520.1765	41965.4875
524.23987	41577.8875
528.30034	41159.8875
532.35792	40898.0875
536.41261	40297.3875
540.46441	39709.5875
544.51333	39592.7875
548.55936	40063.5875
552.60252	40956.1875
556.64279	42090.8875
560.6802	43076.8875
564.71473	43555.1875
568.7464	44210.7875
572.7752	45515.9875
576.80114	46985.5875
580.82422	48739.5875
584.84444	51161.1875
588.86181	53877.1875
592.87633	55749.3875
596.888	55098.4875
600.89682	52357.7875
604.9028	51523.7875
608.90594	54694.0875
612.90624	58090.7875
616.90371	54366.2875
620.89834	46030.4875
624.89015	42302.2875
628.87913	41751.5875
632.86528	41739.4875
636.84862	41155.5875
640.82913	40266.7875
644.80683	39234.2875
648.78172	38681.9875
652.75379	38801.0875
656.72306	39375.1875
660.68952	39882.9875
664.65319	39560.6875
668.61405	38771.2875
672.57211	38704.6875
676.52738	38981.1875
680.47986	38912.5875
684.42955	38556.8875
688.37646	38391.0875
692.32058	38770.7875
696.26192	39534.8875
700.20048	40383.3875
704.13626	40664.3875
708.06928	40453.8875
711.99952	40187.5875
715.927	40185.9875
719.85171	40573.6875
723.77365	40466.0875
727.69284	39737.2875
731.60928	39056.2875
735.52295	38777.2875
739.43388	38805.1875
743.34206	38983.4875
747.24749	39302.8875
751.15017	39741.2875
755.05012	40538.7875
758.94733	41785.7875
762.8418	43649.3875
766.73354	46499.8875
770.62254	48961.1875
774.50882	49078.1875
778.39237	46795.9875
782.27321	43900.1875
786.15132	41467.4875
790.02671	40005.9875
793.89938	39369.9875
797.76935	39178.5875
801.6366	39132.6875
805.50115	39111.8875
809.36299	38935.9875
813.22213	38445.3875
817.07857	38173.7875
820.93231	37971.4875
824.78336	37704.2875
828.63172	37564.2875
832.47738	37477.2875
836.32036	37712.3875
840.16066	38004.7875
843.99827	38166.6875
847.8332	38062.6875
851.66546	37777.0875
855.49504	37692.3875
859.32195	37689.8875
863.1462	37477.3875
866.96777	37290.4875
870.78668	37207.2875
874.60293	37201.5875
878.41652	37283.3875
882.22745	37507.0875
886.03573	37645.8875
889.84136	37679.2875
893.64433	37496.6875
897.44466	37242.2875
901.24235	37055.7875
905.0374	36992.5875
908.8298	36882.1875
912.61957	37047.6875
916.40671	37470.9875
920.19121	38083.3875
923.97308	38753.7875
927.75233	39001.9875
931.52895	38763.0875
935.30295	38180.1875
939.07433	37363.4875
942.84309	36833.5875
946.60924	36623.2875
950.37278	36548.3875
954.13371	36464.0875
957.89203	36352.9875
961.64774	36292.8875
965.40086	36340.7875
969.15137	36260.7875
972.89929	36136.7875
976.64461	36075.5875
980.38733	36182.1875
984.12747	36347.1875
987.86502	36670.3875
991.59999	37178.8875
995.33237	37941.8875
999.06217	39227.0875
1002.78939	40800.3875
1006.51404	41910.1875
1010.23611	42552.9875
1013.95561	42885.1875
1017.67255	42807.5875
1021.38692	42208.7875
1025.09872	41543.9875
1028.80796	41816.1875
1032.51465	43334.3875
1036.21877	45024.6875
1039.92035	45523.6875
1043.61937	44917.6875
1047.31584	43593.5875
1051.00976	42015.3875
1054.70114	41070.2875
1058.38998	40758.4875
1062.07627	40744.4875
1065.76003	40918.5875
1069.44126	41241.0875
1073.11995	41946.3875
1076.79611	42615.8875
1080.46974	43061.1875
1084.14085	43543.3875
1087.80943	44000.4875
1091.47549	44271.0875
1095.13903	44192.0875
1098.80005	43496.3875
1102.45857	42473.4875
1106.11456	41747.1875
1109.76805	41390.1875
1113.41903	41313.9875
1117.06751	41395.5875
1120.71348	41673.1875
1124.35696	42057.8875
1127.99793	42562.0875
1131.63641	42910.3875
1135.2724	42908.9875
1138.90589	42788.6875
1142.5369	42968.3875
1146.16542	43373.6875
1149.79145	43729.6875
1153.415	44112.1875
1157.03607	44987.2875
1160.65467	46705.4875
1164.27079	49445.9875
1167.88443	52589.5875
1171.49561	55689.5875
1175.10432	59472.3875
1178.71056	64391.7875
1182.31434	69263.3875
1185.91565	71603.8875
1189.51451	70973.7875
1193.11091	68620.1875
1196.70485	65958.8875
1200.29634	63419.3875
1203.88538	61824.5875
1207.47197	60961.7875
1211.05612	60358.1875
1214.63782	59260.8875
1218.21708	57760.4875
1221.79391	56277.6875
1225.36829	55171.1875
1228.94024	54110.8875
1232.50976	52915.9875
1236.07685	51827.0875
1239.6415	51239.7875
1243.20374	51200.7875
1246.76355	51834.7875
1250.32093	52893.3875
1253.8759	54306.8875
1257.42845	56111.1875
1260.97859	58096.3875
1264.52631	60209.2875
1268.07163	62350.1875
1271.61453	64634.1875
1275.15503	66985.4875
1278.69312	69311.6875
1282.22882	71571.2875
1285.76211	74079.9875
1289.29301	76837.4875
1292.82151	80417.6875
1296.34761	84904.8875
1299.87133	90723.5875
1303.39266	97182.6875
1306.9116	103113.1875
1310.42815	107186.3875
1313.94233	108552.4875
1317.45412	107125.6875
1320.96354	104327.4875
1324.47058	101956.8875
1327.97525	100284.8875
1331.47754	99320.0875
1334.97747	98457.9875
1338.47502	96905.6875
1341.97022	94385.0875
1345.46305	91278.1875
1348.95352	89073.2875
1352.44163	89040.2875
1355.92738	92041.6875
1359.41078	97202.3875
1362.89183	101119.2875
1366.37053	99841.2875
1369.84688	92282.0875
1373.32088	81696.6875
1376.79254	73980.2875
1380.26186	71407.3875
1383.72883	71825.6875
1387.19347	72154.2875
1390.65578	71115.5875
1394.11575	70797.4875
1397.57339	71702.0875
1401.0287	73487.3875
1404.48168	75216.6875
1407.93234	75639.1875
1411.38068	74441.1875
1414.82669	72153.7875
1418.27039	69209.0875
1421.71177	65927.6875
1425.15083	63267.8875
1428.58758	62063.8875
1432.02203	62922.0875
1435.45416	65143.0875
1438.88399	67635.1875
1442.31151	69502.1875
1445.73673	70332.9875
1449.15965	70734.5875
1452.58027	70399.3875
1455.9986	69608.5875
1459.41463	69495.1875
1462.82837	70428.5875
1466.23982	71985.0875
1469.64898	73639.4875
1473.05586	74793.3875
1476.46045	75330.6875
1479.86276	74945.5875
1483.26279	73966.2875
1486.66054	73263.2875
1490.05602	73317.9875
1493.44922	73709.2875
1496.84016	73666.1875
1500.22882	73674.0875
1503.61521	74212.1875
1506.99934	75245.1875
1510.38121	76213.6875
1513.76081	76393.2875
1517.13816	75268.4875
1520.51324	73568.7875
1523.88607	72407.5875
1527.25665	72429.3875
1530.62498	72850.6875
1533.99105	72869.6875
1537.35488	72251.5875
1540.71647	70948.1875
1544.07581	69059.0875
1547.4329	67024.6875
1550.78776	65254.3875
1554.14038	63857.4875
1557.49077	62930.5875
1560.83892	62119.3875
1564.18484	61697.4875
1567.52853	61532.1875
1570.86999	61919.2875
1574.20922	63026.4875
1577.54624	64458.3875
1580.88103	65557.3875
1584.2136	67353.3875
1587.54395	70931.4875
1590.87208	76375.9875
1594.19801	82628.0875
1597.52172	87987.6875
1600.84321	88905.5875
1604.16251	83793.2875
1607.47959	75107.3875
1610.79447	66439.2875
1614.10715	59282.7875
1617.41763	54124.0875
1620.7259	50964.8875
1624.03199	49708.0875
1627.33587	50192.1875
1630.63757	52329.9875
1633.93707	56359.7875
1637.23439	62899.5875
1640.52951	72221.1875
1643.82246	83170.6875
1647.11321	91028.9875
1650.40179	90894.0875
1653.68819	82092.1875
1656.97241	69131.8875
1660.25446	57668.3875
1663.53433	49728.1875
1666.81203	44822.4875
1670.08756	41826.3875
1673.36092	40023.0875
1676.63211	38816.4875
1679.90115	37943.3875
1683.16801	37300.7875
1686.43272	36790.2875
1689.69527	36473.0875
1692.95567	36178.4875
1696.2139	36027.5875
1699.46999	35891.9875
1702.72392	35769.5875
1705.97571	35646.6875
1709.22535	35536.4875
1712.47284	35516.7875
1715.71819	35483.8875
1718.96139	35411.9875
1722.20246	35294.2875
1725.44139	35088.6875
1728.67818	34929.6875
1731.91284	34687.7875
1735.14537	34523.1875
1738.37576	34377.6875
1741.60403	34255.5875
1744.83017	34114.3875
1748.05418	34063.2875
1751.27607	34036.6875
1754.49584	33974.0875
1757.71349	33912.3875
1760.92903	33926.8875
1764.14244	33882.5875
1767.35375	33828.4875
1770.56294	33773.2875
1773.77002	33736.2875
1776.97499	33676.1875
1780.17785	33577.0875
1783.37861	33625.6875
1786.57727	33512.1875
1789.77382	33409.8875
1792.96828	33402.7875
1796.16064	33335.6875
1799.3509	33286.0875
1802.53907	33218.7875
1805.72514	33120.7875
1808.90913	33085.1875
1812.09102	33043.3875
1815.27083	33014.1875
1818.44856	32970.2875
1821.6242	32956.1875
1824.79776	32959.7875
1827.96924	33011.9875
1831.13864	33039.6875
1834.30597	33007.5875
1837.47122	33003.8875
1840.6344	32950.9875
1843.7955	32980.9875
1846.95454	32978.4875
1850.11151	32942.0875
1853.26642	32943.8875
1856.41926	32939.5875
1859.57004	32948.5875
1862.71876	32932.8875
1865.86542	32923.7875
1869.01003	32935.3875
1872.15258	32856.2875
1875.29308	32915.0875
1878.43152	32863.1875
1881.56792	32830.5875
1884.70227	32790.2875
1887.83457	32843.1875
1890.96482	32789.5875
1894.09304	32696.7875
1897.21921	32695.2875
1900.34335	32713.0875
1903.46544	32637.1875
1906.58551	32593.7875
1909.70353	32538.4875
1912.81953	32452.9875
1915.93349	32384.1875
1919.04543	32306.7875
1922.15534	32239.7875
1925.26322	32217.0875
1928.36908	32140.3875
1931.47292	32067.5875
1934.57473	31925.0875
1937.67453	31849.7875
1940.77232	31723.4875
1943.86808	31681.1875
1946.96184	31636.5875
1950.05358	31533.0875
1953.14331	31466.7875
1956.23103	31370.5875
1959.31675	31322.9875
1962.40046	31260.6875
1965.48217	31174.0875
1968.56188	31069.5875
1971.63959	30978.7875
1974.7153	30937.9875
1977.78901	30838.7875
1980.86073	30793.5875
1983.93046	30666.3875
1986.99819	30519.1875
1990.06394	30478.2875
1993.1277	30395.2875
1996.18947	30283.5875
1999.24925	30293.6875
2002.30706	30185.6875
2005.36288	30036.1875
2008.41672	30048.9875
2011.46859	29946.4875
2014.51848	29876.4875
2017.56639	29834.2875
2020.61233	29791.2875
2023.6563	29765.4875
2026.6983	29731.2875
2029.73833	29706.1875
2032.7764	29603.9875
2035.8125	29630.0875
2038.84664	29586.6875
2041.87881	29569.3875
2044.90903	29535.2875
2047.93729	29489.5875
2050.96359	29438.8875
2053.98794	29375.4875
2057.01034	29391.7875
2060.03078	29388.0875
2063.04927	29357.2875
2066.06582	29334.3875
2069.08042	29288.3875
2072.09307	29305.0875
2075.10378	29289.2875
2078.11255	29299.3875
2081.11938	29270.4875
2084.12426	29267.8875
2087.12722	29279.2875
2090.12824	29214.9875
2093.12732	29207.4875
2096.12447	29255.1875
2099.11969	29244.4875
2102.11299	29315.4875
2105.10435	29307.3875
2108.09379	29322.3875
2111.08131	29320.6875
2114.0669	29266.8875
2117.05057	29346.2875
2120.03233	29383.6875
2123.01216	29405.8875
2125.99008	29404.9875
2128.96609	29393.5875
2131.94018	29498.9875
2134.91236	29492.6875
2137.88263	29450.4875
2140.851	29486.0875
2143.81746	29521.4875
2146.78201	29546.6875
2149.74466	29557.3875
2152.7054	29545.3875
2155.66425	29554.0875
2158.6212	29641.8875
2161.57625	29579.7875
2164.52941	29617.9875
2167.48067	29572.6875
2170.43004	29561.9875
2173.37752	29545.1875
2176.32311	29569.8875
2179.26681	29599.7875
2182.20863	29613.3875
2185.14856	29711.7875
2188.08661	29693.2875
2191.02278	29727.7875
2193.95707	29688.6875
2196.88948	29625.3875
2199.82001	29676.8875
2202.74867	29627.2875
2205.67545	29702.5875
2208.60037	29639.4875
2211.52341	29626.7875
2214.44458	29604.3875
2217.36388	29575.8875
2220.28132	29570.4875
2223.1969	29487.0875
2226.11061	29504.9875
2229.02246	29450.1875
2231.93245	29458.2875
2234.84058	29411.8875
2237.74686	29386.5875
2240.65128	29377.8875
2243.55385	29289.7875
2246.45456	29239.7875
2249.35343	29202.0875
2252.25044	29106.8875
2255.14561	29072.5875
2258.03893	29031.1875
2260.93041	28900.4875
2263.82004	28883.5875
2266.70783	28815.3875
2269.59378	28696.6875
2272.4779	28753.5875
2275.36017	28684.8875
2278.24061	28623.4875
2281.11922	28590.1875
2283.996	28547.2875
2286.87094	28604.3875
2289.74405	28544.8875
2292.61534	28549.8875
2295.4848	28567.9875
2298.35243	28567.9875
2301.21824	28543.7875
2304.08223	28568.4875
2306.94439	28620.9875
2309.80474	28653.0875
2312.66327	28701.1875
2315.51999	28676.6875
2318.37489	28693.5875
2321.22797	28665.2875
2324.07925	28683.4875
2326.92871	28624.0875
2329.77637	28636.3875
2332.62222	28635.7875
2335.46626	28549.9875
2338.3085	28583.7875
2341.14893	28573.1875
2343.98756	28636.8875
2346.8244	28600.1875
2349.65943	28583.2875
2352.49267	28593.8875
2355.32411	28608.0875
2358.15376	28648.1875
2360.98161	28589.0875
2363.80768	28566.2875
2366.63195	28512.1875
2369.45444	28437.0875
2372.27514	28376.1875
2375.09405	28327.5875
2377.91118	28253.4875
2380.72652	28230.3875
2383.54009	28149.6875
2386.35187	28177.6875
2389.16188	28143.0875
2391.97011	28126.4875
2394.77657	28142.1875
2397.58125	28086.7875
2400.38416	28061.9875
2403.18529	27970.4875
2405.98466	27986.4875
2408.78226	27919.3875
2411.57809	27929.9875
2414.37216	27910.5875
2417.16446	27866.3875
2419.955	27852.9875
2422.74378	27850.4875
2425.5308	27783.6875
2428.31606	27829.9875
2431.09956	27799.1875
2433.88131	27800.4875
2436.6613	27805.9875
2439.43954	27794.3875
2442.21603	27777.6875
2444.99077	27750.1875
2447.76377	27808.4875
2450.53501	27784.5875
2453.30451	27782.6875
2456.07226	27770.6875
2458.83827	27754.3875
2461.60254	27761.2875
2464.36507	27799.6875
2467.12586	27755.9875
2469.88492	27794.2875
2472.64224	27837.5875
2475.39782	27865.2875
2478.15167	27853.1875
2480.90379	27847.4875
2483.65417	27922.2875
2486.40283	27865.7875
2489.14976	27902.3875
2491.89497	27939.8875
2494.63845	27975.1875
2497.3802	27893.0875
2500.12024	27953.5875
2502.85855	27959.5875
2505.59514	27999.5875
2508.33002	27928.9875
2511.06318	27947.0875
2513.79462	27923.1875
2516.52435	27961.2875
2519.25237	27918.3875
2521.97867	27882.0875
2524.70327	27835.0875
2527.42616	27849.3875
2530.14734	27868.5875
2532.86681	27839.0875
2535.58458	27824.1875
2538.30065	27817.0875
2541.01501	27804.4875
2543.72768	27766.0875
2546.43864	27778.4875
2549.14791	27781.1875
2551.85548	27761.5875
2554.56136	27752.6875
2557.26554	27828.1875
2559.96803	27804.5875
2562.66883	27750.8875
2565.36794	27747.2875
2568.06536	27760.4875
2570.7611	27753.3875
2573.45514	27738.6875
2576.14751	27744.4875
2578.83819	27718.8875
2581.52719	27728.7875
2584.21451	27722.3875
2586.90015	27723.6875
2589.58411	27704.5875
2592.2664	27716.1875
2594.94701	27644.5875
2597.62594	27634.0875
2600.30321	27635.9875
2602.9788	27652.4875
2605.65273	27626.1875
2608.32498	27659.0875
2610.99557	27638.8875
2613.66449	27628.0875
2616.33175	27646.3875
2618.99734	27655.4875
2621.66128	27671.3875
2624.32355	27709.1875
2626.98416	27675.2875
2629.64311	27611.9875
2632.30041	27634.6875
2634.95605	27622.6875
2637.61004	27582.9875
2640.26238	27547.3875
2642.91306	27536.8875
2645.56209	27540.8875
2648.20948	27528.7875
2650.85521	27547.7875
2653.4993	27566.0875
2656.14175	27591.5875
2658.78255	27528.3875
2661.42171	27592.9875
2664.05923	27628.4875
2666.6951	27608.5875
2669.32934	27646.5875
2671.96194	27677.6875
2674.59291	27661.0875
2677.22224	27649.5875
2679.84993	27643.6875
2682.476	27600.3875
2685.10043	27582.8875
2687.72324	27582.6875
2690.34441	27584.3875
2692.96396	27645.3875
2695.58188	27653.2875
2698.19818	27570.3875
2700.81285	27668.9875
2703.4259	27628.3875
2706.03733	27659.8875
2708.64714	27660.4875
2711.25533	27662.3875
2713.86191	27704.9875
2716.46687	27817.7875
2719.07021	27793.0875
2721.67194	27853.9875
2724.27206	27802.1875
2726.87057	27796.3875
2729.46747	27831.4875
2732.06276	27852.1875
2734.65644	27876.6875
2737.24852	27906.6875
2739.83899	27912.8875
2742.42786	27924.1875
2745.01513	27878.6875
2747.60079	27798.8875
2750.18486	27825.2875
2752.76733	27882.9875
2755.3482	27850.7875
2757.92747	27854.9875
2760.50515	27846.6875
2763.08123	27859.1875
2765.65573	27815.4875
2768.22863	27813.7875
2770.79994	27776.4875
2773.36967	27812.3875
2775.9378	27814.2875
2778.50435	27854.5875
2781.06932	27814.9875
2783.6327	27824.2875
2786.1945	27792.0875
2788.75471	27756.6875
2791.31335	27686.5875
2793.87041	27689.8875
2796.42589	27723.8875
2798.97979	27711.8875
2801.53212	27679.5875
2804.08288	27644.3875
2806.63206	27589.2875
2809.17967	27527.6875
2811.72571	27431.3875
2814.27018	27446.8875
2816.81308	27410.3875
2819.35442	27355.1875
2821.89419	27296.8875
2824.43239	27320.9875
2826.96904	27282.1875
2829.50412	27260.4875
2832.03763	27239.3875
2834.56959	27288.1875
2837.1	27204.7875
2839.62884	27210.8875
2842.15613	27199.2875
2844.68186	27261.4875
2847.20604	27270.9875
2849.72867	27290.3875
2852.24974	27256.6875
2854.76927	27274.1875
2857.28724	27258.1875
2859.80367	27200.1875
2862.31855	27160.1875
2864.83189	27186.1875
2867.34368	27121.6875
2869.85393	27156.8875
2872.36264	27106.6875
2874.8698	27135.2875
2877.37543	27144.9875
2879.87952	27182.9875
2882.38207	27174.9875
2884.88308	27132.1875
2887.38256	27190.9875
2889.88051	27174.7875
2892.37692	27290.7875
2894.8718	27346.8875
2897.36515	27389.5875
2899.85698	27341.2875
2902.34727	27368.1875
2904.83604	27407.0875
2907.32328	27423.1875
2909.809	27385.6875
2912.29319	27424.0875
2914.77587	27389.8875
2917.25702	27429.0875
2919.73665	27418.2875
2922.21476	27425.5875
2924.69136	27404.9875
2927.16644	27394.6875
2929.64	27404.8875
2932.11205	27341.8875
2934.58258	27275.4875
2937.05161	27300.7875
2939.51912	27298.8875
2941.98513	27301.0875
2944.44962	27213.6875
2946.91261	27127.9875
2949.37409	27241.0875
2951.83407	27205.2875
2954.29254	27178.9875
2956.74951	27121.8875
2959.20498	27117.7875
2961.65895	27056.8875
2964.11142	27099.3875
2966.56239	27003.6875
2969.01186	27000.7875
2971.45984	26973.1875
2973.90632	26901.0875
2976.35131	26853.7875
2978.7948	26856.8875
2981.23681	26777.8875
2983.67732	26720.4875
2986.11635	26622.2875
2988.55388	26590.0875
2990.98993	26521.0875
2993.4245	26436.9875
2995.85758	26364.9875
2998.28917	26347.8875
3000.71928	26355.6875
3003.14791	26305.1875
3005.57506	26300.0875
3008.00073	26208.6875
3010.42493	26225.6875
3012.84764	26126.3875
3015.26888	26144.9875
3017.68865	26044.6875
3020.10694	26052.8875
3022.52376	25976.5875
3024.9391	25978.1875
3027.35298	25977.6875
3029.76539	25985.6875
3032.17632	25934.2875
3034.5858	25909.6875
3036.9938	25873.6875
3039.40034	25864.0875
3041.80542	25877.1875
3044.20903	25788.6875
3046.61118	25785.8875
3049.01187	25737.0875
3051.4111	25733.0875
3053.80888	25691.0875
3056.20519	25599.3875
3058.60005	25528.0875
3060.99345	25479.6875
3063.3854	25443.4875
3065.7759	25387.6875
3068.16494	25305.5875
3070.55254	25263.5875
3072.93868	25285.7875
3075.32338	25193.0875
3077.70662	25146.1875
3080.08842	25056.2875
3082.46878	25042.0875
3084.84769	25059.9875
3087.22515	25020.1875
3089.60118	25044.8875
3091.97576	24994.4875
3094.3489	25007.0875
3096.72061	24993.8875
3099.09087	24965.2875
3101.4597	24910.1875
3103.82709	24870.6875
3106.19305	24852.4875
3108.55757	24822.0875
3110.92066	24735.4875
3113.28232	24725.3875
3115.64255	24667.5875
3118.00134	24630.4875
3120.35871	24573.9875
3122.71466	24541.6875
3125.06917	24478.4875
3127.42226	24460.2875
3129.77393	24464.1875
3132.12417	24462.7875
3134.47299	24436.2875
3136.82039	24385.0875
3139.16636	24434.3875
3141.51092	24422.1875
3143.85406	24489.9875
3146.19579	24423.8875
3148.53609	24407.7875
3150.87499	24439.2875
3153.21246	24423.2875
3155.54853	24461.6875
3157.88318	24401.4875
3160.21642	24376.3875
3162.54826	24372.3875
3164.87868	24360.2875
3167.2077	24341.7875
3169.5353	24280.7875
3171.86151	24331.0875
3174.18631	24312.2875
3176.5097	24283.6875
3178.83169	24276.3875
3181.15228	24288.3875
3183.47147	24185.3875
3185.78926	24207.4875
3188.10565	24160.3875
3190.42065	24158.7875
3192.73424	24196.5875
3195.04645	24190.0875
3197.35725	24207.0875
3199.66667	24187.0875
3201.97469	24171.2875
3204.28132	24128.0875
3206.58656	24136.9875
3208.8904	24143.3875
3211.19287	24198.3875
3213.49394	24178.1875
3215.79363	24161.2875
3218.09193	24153.1875
3220.38884	24150.0875
3222.68438	24211.1875
3224.97853	24123.8875
3227.2713	24078.3875
3229.56269	24079.8875
3231.8527	24084.5875
3234.14133	24030.7875
3236.42858	24019.4875
3238.71446	24019.0875
3240.99896	23932.9875
3243.28209	23926.6875
3245.56384	23899.3875
3247.84423	23878.6875
3250.12324	23827.4875
3252.40088	23809.3875
3254.67715	23781.2875
3256.95205	23692.8875
3259.22558	23684.0875
3261.49775	23658.9875
3263.76855	23665.1875
3266.03799	23575.8875
3268.30606	23590.0875
3270.57277	23550.3875
3272.83812	23531.2875
3275.10211	23491.7875
3277.36474	23483.6875
3279.62601	23513.5875
3281.88593	23519.4875
3284.14448	23542.2875
3286.40168	23513.7875
3288.65753	23500.5875
3290.91202	23435.8875
3293.16516	23369.2875
3295.41695	23369.3875
3297.66738	23212.9875
3299.91647	23137.4875
3302.16421	22999.5875
3304.4106	22865.0875
3306.65564	22751.1875
3308.89933	22579.2875
3311.14169	22455.5875
3313.38269	22255.8875
3315.62236	22183.3875
3317.86068	21966.4875
3320.09766	21780.7875
3322.3333	21625.3875
3324.5676	21587.7875
3326.80056	21241.5875
3329.03219	21176.1875
3331.26248	3.5875
3333.49143	-0.3125
3335.71905	-0.7125
