Data from AgNPs_FTO_APTES_UA_5uM_CRN_0uM_R6G_10uM_NaF_0.1M_Addition_RamanShift__3__09-42-16-522.txt Node

Date: Mon Feb 07 09:42:16 GMT 2022
User: TCL
Spectrometer: QEP01345
Trigger mode: 4
Integration Time (sec): 7.000000E0
Scans to average: 10
Electric dark correction enabled: true
Nonlinearity correction enabled: false
Boxcar width: 0
XAxis mode: Raman Shifts
Number of Pixels in Spectrum: 1044
>>>>>Begin Spectral Data<<<<<
46.04893	-1.1375
50.45542	-0.2375
54.85868	0.2625
59.25871	0.4625
63.6555	72.0625
68.04907	75.8625
72.43941	83.4625
76.82654	84.5625
81.21044	87.9625
85.59113	89.7625
89.96862	93.4625
94.34289	95.2625
98.71396	101.5625
103.08183	104.5625
107.4465	105.6625
111.80798	109.1625
116.16626	114.1625
120.52136	118.1625
124.87327	127.3625
129.222	137.1625
133.56755	142.9625
137.90993	157.1625
142.24913	174.9625
146.58517	197.8625
150.91804	234.1625
155.24774	282.4625
159.57429	361.9625
163.89768	465.7625
168.21792	638.0625
172.53501	873.3625
176.84895	1216.2625
181.15975	1706.7625
185.46741	2399.2625
189.77193	3280.8625
194.07331	4406.2625
198.37157	5632.9625
202.6667	6953.7625
206.9587	8243.1625
211.24758	9573.6625
215.53334	10918.0625
219.81599	12358.9625
224.09553	13952.2625
228.37195	15750.7625
232.64527	17693.9625
236.91549	19699.7625
241.18261	21670.6625
245.44663	23395.1625
249.70755	24934.1625
253.96539	26311.4625
258.22014	27439.4625
262.4718	28354.3625
266.72039	28957.7625
270.96589	29284.3625
275.20832	29239.5625
279.44768	29102.1625
283.68397	28896.7625
287.91719	28848.9625
292.14735	28821.0625
296.37445	28911.6625
300.59849	29021.3625
304.81948	29258.2625
309.03742	29444.7625
313.25231	29349.7625
317.46415	28631.2625
321.67296	27400.5625
325.87872	26140.1625
330.08145	25269.0625
334.28114	24982.4625
338.47781	25055.2625
342.67145	25262.5625
346.86207	25580.1625
351.04966	26057.6625
355.23424	26672.4625
359.4158	27307.3625
363.59435	27758.6625
367.76989	27986.5625
371.94243	27992.2625
376.11196	27944.6625
380.27849	27718.1625
384.44203	27601.5625
388.60257	27671.2625
392.76012	28030.9625
396.91468	28589.8625
401.06626	29324.9625
405.21485	29846.1625
409.36047	29615.5625
413.50311	29165.5625
417.64277	28860.0625
421.77947	28901.9625
425.9132	28933.5625
430.04396	28975.8625
434.17176	28760.3625
438.2966	28461.8625
442.41849	28496.8625
446.53742	28946.5625
450.6534	29731.3625
454.76644	30429.4625
458.87653	30762.1625
462.98368	30634.8625
467.08789	30274.1625
471.18916	29826.4625
475.2875	29392.2625
479.38291	29440.5625
483.4754	29750.7625
487.56496	29924.6625
491.6516	29781.7625
495.73531	29437.9625
499.81612	29207.7625
503.89401	29244.0625
507.96899	29149.7625
512.04106	28690.5625
516.11023	27966.8625
520.1765	27088.7625
524.23987	26364.5625
528.30034	25790.9625
532.35792	25310.9625
536.41261	24776.6625
540.46441	24405.3625
544.51333	24321.1625
548.55936	24829.1625
552.60252	25747.5625
556.64279	26850.6625
560.6802	27545.7625
564.71473	28002.9625
568.7464	29029.0625
572.7752	30728.4625
576.80114	32616.6625
580.82422	34670.8625
584.84444	37123.5625
588.86181	39340.2625
592.87633	39936.4625
596.888	38056.3625
600.89682	35191.8625
604.9028	34644.0625
608.90594	37663.0625
612.90624	41283.0625
616.90371	38415.0625
620.89834	30040.6625
624.89015	25863.1625
628.87913	25402.5625
632.86528	25972.5625
636.84862	26235.1625
640.82913	25617.7625
644.80683	24518.6625
648.78172	23764.4625
652.75379	23752.9625
656.72306	24239.6625
660.68952	24599.7625
664.65319	24293.0625
668.61405	23583.3625
672.57211	23298.6625
676.52738	23334.7625
680.47986	23285.2625
684.42955	22975.9625
688.37646	22728.8625
692.32058	22840.6625
696.26192	23422.8625
700.20048	24040.7625
704.13626	24544.5625
708.06928	24873.6625
711.99952	24923.9625
715.927	24921.5625
719.85171	25005.2625
723.77365	24924.3625
727.69284	24254.1625
731.60928	23521.1625
735.52295	23133.0625
739.43388	23011.9625
743.34206	23021.5625
747.24749	23327.0625
751.15017	23815.2625
755.05012	24579.0625
758.94733	25859.7625
762.8418	27932.6625
766.73354	31255.8625
770.62254	34153.0625
774.50882	34028.0625
778.39237	31284.4625
782.27321	27995.4625
786.15132	25465.9625
790.02671	23818.2625
793.89938	23012.9625
797.76935	22676.6625
801.6366	22606.7625
805.50115	22575.6625
809.36299	22456.1625
813.22213	22271.3625
817.07857	22099.0625
820.93231	21935.5625
824.78336	21695.4625
828.63172	21419.6625
832.47738	21265.5625
836.32036	21242.9625
840.16066	21265.6625
843.99827	21381.5625
847.8332	21349.9625
851.66546	21314.7625
855.49504	21356.9625
859.32195	21388.7625
863.1462	21265.3625
866.96777	21129.6625
870.78668	21002.8625
874.60293	20946.5625
878.41652	20885.3625
882.22745	20924.4625
886.03573	21023.4625
889.84136	21073.2625
893.64433	21000.7625
897.44466	20988.8625
901.24235	20964.0625
905.0374	20853.7625
908.8298	20733.1625
912.61957	20734.1625
916.40671	20994.1625
920.19121	21631.6625
923.97308	22391.2625
927.75233	22604.1625
931.52895	22277.5625
935.30295	21482.4625
939.07433	20563.3625
942.84309	19906.2625
946.60924	19558.9625
950.37278	19435.2625
954.13371	19490.8625
957.89203	19511.9625
961.64774	19568.6625
965.40086	19639.0625
969.15137	19646.8625
972.89929	19543.5625
976.64461	19334.9625
980.38733	19206.2625
984.12747	19139.0625
987.86502	19181.6625
991.59999	19227.2625
995.33237	19450.4625
999.06217	19859.9625
1002.78939	20336.8625
1006.51404	20845.0625
1010.23611	21337.2625
1013.95561	21765.5625
1017.67255	21940.5625
1021.38692	21632.3625
1025.09872	21115.3625
1028.80796	20764.9625
1032.51465	20887.7625
1036.21877	21207.8625
1039.92035	21454.1625
1043.61937	21542.9625
1047.31584	21435.4625
1051.00976	21244.1625
1054.70114	21284.8625
1058.38998	21475.5625
1062.07627	21774.6625
1065.76003	22205.6625
1069.44126	22910.7625
1073.11995	23953.2625
1076.79611	24917.2625
1080.46974	25204.1625
1084.14085	25308.3625
1087.80943	25713.1625
1091.47549	26291.1625
1095.13903	26625.8625
1098.80005	26205.0625
1102.45857	24704.6625
1106.11456	23111.0625
1109.76805	22090.4625
1113.41903	21720.5625
1117.06751	21739.0625
1120.71348	21992.9625
1124.35696	22396.3625
1127.99793	22946.0625
1131.63641	23492.7625
1135.2724	23672.6625
1138.90589	23685.9625
1142.5369	23717.3625
1146.16542	23961.1625
1149.79145	24193.9625
1153.415	24648.9625
1157.03607	25379.0625
1160.65467	26849.4625
1164.27079	29177.7625
1167.88443	31839.8625
1171.49561	34412.0625
1175.10432	37307.6625
1178.71056	41042.5625
1182.31434	44491.1625
1185.91565	46149.3625
1189.51451	45802.6625
1193.11091	44170.5625
1196.70485	41794.7625
1200.29634	39271.4625
1203.88538	37772.4625
1207.47197	37306.9625
1211.05612	37021.8625
1214.63782	36300.7625
1218.21708	34890.9625
1221.79391	33151.0625
1225.36829	31703.6625
1228.94024	30740.8625
1232.50976	29856.4625
1236.07685	29211.0625
1239.6415	28813.6625
1243.20374	28676.5625
1246.76355	28920.1625
1250.32093	29513.6625
1253.8759	30494.6625
1257.42845	31925.8625
1260.97859	33543.2625
1264.52631	35287.4625
1268.07163	36925.7625
1271.61453	38575.4625
1275.15503	40459.2625
1278.69312	42446.7625
1282.22882	44615.1625
1285.76211	47250.9625
1289.29301	50378.2625
1292.82151	53829.9625
1296.34761	57616.5625
1299.87133	62229.6625
1303.39266	66869.6625
1306.9116	70716.4625
1310.42815	73039.0625
1313.94233	73568.9625
1317.45412	72622.5625
1320.96354	71678.4625
1324.47058	71675.1625
1327.97525	72261.5625
1331.47754	72413.5625
1334.97747	71329.9625
1338.47502	69146.9625
1341.97022	66316.0625
1345.46305	63322.0625
1348.95352	60687.6625
1352.44163	59024.3625
1355.92738	59445.8625
1359.41078	62396.7625
1362.89183	66390.2625
1366.37053	68272.3625
1369.84688	65007.7625
1373.32088	57749.8625
1376.79254	50750.8625
1380.26186	47014.9625
1383.72883	45959.5625
1387.19347	45930.3625
1390.65578	45439.8625
1394.11575	45117.2625
1397.57339	45887.1625
1401.0287	47536.4625
1404.48168	48899.7625
1407.93234	48794.5625
1411.38068	46855.0625
1414.82669	43749.9625
1418.27039	40472.3625
1421.71177	37481.7625
1425.15083	35177.1625
1428.58758	34023.5625
1432.02203	34194.2625
1435.45416	35578.6625
1438.88399	37360.0625
1442.31151	38872.7625
1445.73673	39915.9625
1449.15965	40641.6625
1452.58027	40934.6625
1455.9986	40838.7625
1459.41463	40952.7625
1462.82837	41678.9625
1466.23982	42927.0625
1469.64898	44187.1625
1473.05586	44928.6625
1476.46045	45163.4625
1479.86276	44979.7625
1483.26279	44695.9625
1486.66054	44778.9625
1490.05602	45399.9625
1493.44922	46508.8625
1496.84016	47827.7625
1500.22882	49427.5625
1503.61521	51472.0625
1506.99934	53825.8625
1510.38121	56034.1625
1513.76081	57041.1625
1517.13816	56462.4625
1520.51324	54801.7625
1523.88607	53256.9625
1527.25665	52350.9625
1530.62498	51678.4625
1533.99105	50628.4625
1537.35488	49034.4625
1540.71647	46893.6625
1544.07581	44356.4625
1547.4329	41842.3625
1550.78776	39842.4625
1554.14038	38626.4625
1557.49077	38141.9625
1560.83892	38217.0625
1564.18484	38486.0625
1567.52853	38764.7625
1570.86999	38993.7625
1574.20922	39679.4625
1577.54624	40470.1625
1580.88103	40648.6625
1584.2136	41242.7625
1587.54395	43476.3625
1590.87208	47367.7625
1594.19801	51717.1625
1597.52172	54766.8625
1600.84321	54377.3625
1604.16251	49624.2625
1607.47959	43285.9625
1610.79447	37691.7625
1614.10715	33123.1625
1617.41763	29631.9625
1620.7259	27292.5625
1624.03199	26123.3625
1627.33587	26172.9625
1630.63757	27317.6625
1633.93707	29998.0625
1637.23439	34737.6625
1640.52951	42061.1625
1643.82246	51702.4625
1647.11321	60612.4625
1650.40179	64212.5625
1653.68819	60037.3625
1656.97241	50536.2625
1660.25446	40100.4625
1663.53433	31772.0625
1666.81203	26287.1625
1670.08756	22959.8625
1673.36092	20956.9625
1676.63211	19721.5625
1679.90115	18910.5625
1683.16801	18269.4625
1686.43272	17835.2625
1689.69527	17504.3625
1692.95567	17231.2625
1696.2139	17035.4625
1699.46999	16896.8625
1702.72392	16788.3625
1705.97571	16680.5625
1709.22535	16582.8625
1712.47284	16481.0625
1715.71819	16412.7625
1718.96139	16295.0625
1722.20246	16189.0625
1725.44139	16035.0625
1728.67818	15849.0625
1731.91284	15673.6625
1735.14537	15534.7625
1738.37576	15439.5625
1741.60403	15313.1625
1744.83017	15207.2625
1748.05418	15128.8625
1751.27607	15078.6625
1754.49584	15029.1625
1757.71349	14958.2625
1760.92903	14956.5625
1764.14244	14909.1625
1767.35375	14917.0625
1770.56294	14878.4625
1773.77002	14802.2625
1776.97499	14758.8625
1780.17785	14720.6625
1783.37861	14666.6625
1786.57727	14599.9625
1789.77382	14588.2625
1792.96828	14515.0625
1796.16064	14473.7625
1799.3509	14446.6625
1802.53907	14357.0625
1805.72514	14318.3625
1808.90913	14243.3625
1812.09102	14211.1625
1815.27083	14154.1625
1818.44856	14122.7625
1821.6242	14061.1625
1824.79776	14054.2625
1827.96924	14008.0625
1831.13864	13964.3625
1834.30597	13994.4625
1837.47122	13987.9625
1840.6344	13973.4625
1843.7955	13971.6625
1846.95454	13986.1625
1850.11151	13935.6625
1853.26642	13918.1625
1856.41926	13884.0625
1859.57004	13904.3625
1862.71876	13858.8625
1865.86542	13837.8625
1869.01003	13835.8625
1872.15258	13783.9625
1875.29308	13724.8625
1878.43152	13708.8625
1881.56792	13666.3625
1884.70227	13660.5625
1887.83457	13655.8625
1890.96482	13686.9625
1894.09304	13627.0625
1897.21921	13588.5625
1900.34335	13575.0625
1903.46544	13516.4625
1906.58551	13498.5625
1909.70353	13500.5625
1912.81953	13446.4625
1915.93349	13392.5625
1919.04543	13367.7625
1922.15534	13341.7625
1925.26322	13286.0625
1928.36908	13239.5625
1931.47292	13182.6625
1934.57473	13169.0625
1937.67453	13086.5625
1940.77232	13015.7625
1943.86808	12973.7625
1946.96184	12939.7625
1950.05358	12879.1625
1953.14331	12894.2625
1956.23103	12861.7625
1959.31675	12809.7625
1962.40046	12763.4625
1965.48217	12708.0625
1968.56188	12669.1625
1971.63959	12624.5625
1974.7153	12583.6625
1977.78901	12517.2625
1980.86073	12471.8625
1983.93046	12425.7625
1986.99819	12363.9625
1990.06394	12330.6625
1993.1277	12289.0625
1996.18947	12270.7625
1999.24925	12222.6625
2002.30706	12161.2625
2005.36288	12123.5625
2008.41672	12073.9625
2011.46859	12022.2625
2014.51848	11999.3625
2017.56639	11977.7625
2020.61233	11941.8625
2023.6563	11913.3625
2026.6983	11869.8625
2029.73833	11859.7625
2032.7764	11807.0625
2035.8125	11771.3625
2038.84664	11764.2625
2041.87881	11702.0625
2044.90903	11690.6625
2047.93729	11695.1625
2050.96359	11654.8625
2053.98794	11664.2625
2057.01034	11630.7625
2060.03078	11650.4625
2063.04927	11602.0625
2066.06582	11616.7625
2069.08042	11596.6625
2072.09307	11595.7625
2075.10378	11562.5625
2078.11255	11541.7625
2081.11938	11532.2625
2084.12426	11514.2625
2087.12722	11524.3625
2090.12824	11504.8625
2093.12732	11530.3625
2096.12447	11493.1625
2099.11969	11506.1625
2102.11299	11505.6625
2105.10435	11504.7625
2108.09379	11503.1625
2111.08131	11461.6625
2114.0669	11474.2625
2117.05057	11517.4625
2120.03233	11513.4625
2123.01216	11513.4625
2125.99008	11514.5625
2128.96609	11495.3625
2131.94018	11506.1625
2134.91236	11477.1625
2137.88263	11472.7625
2140.851	11473.6625
2143.81746	11457.7625
2146.78201	11448.2625
2149.74466	11460.6625
2152.7054	11430.7625
2155.66425	11428.1625
2158.6212	11398.3625
2161.57625	11391.5625
2164.52941	11377.8625
2167.48067	11370.4625
2170.43004	11353.9625
2173.37752	11345.4625
2176.32311	11336.5625
2179.26681	11340.1625
2182.20863	11334.8625
2185.14856	11370.6625
2188.08661	11331.1625
2191.02278	11334.5625
2193.95707	11314.2625
2196.88948	11271.2625
2199.82001	11248.7625
2202.74867	11218.7625
2205.67545	11204.3625
2208.60037	11209.8625
2211.52341	11170.6625
2214.44458	11175.4625
2217.36388	11146.5625
2220.28132	11105.6625
2223.1969	11089.3625
2226.11061	11092.1625
2229.02246	11071.2625
2231.93245	11092.7625
2234.84058	11074.2625
2237.74686	11050.8625
2240.65128	11027.8625
2243.55385	11008.2625
2246.45456	10961.1625
2249.35343	10920.6625
2252.25044	10885.0625
2255.14561	10893.5625
2258.03893	10861.1625
2260.93041	10819.8625
2263.82004	10794.5625
2266.70783	10765.4625
2269.59378	10730.4625
2272.4779	10663.9625
2275.36017	10646.2625
2278.24061	10638.4625
2281.11922	10629.8625
2283.996	10625.2625
2286.87094	10632.1625
2289.74405	10596.7625
2292.61534	10545.2625
2295.4848	10525.7625
2298.35243	10517.9625
2301.21824	10550.0625
2304.08223	10562.6625
2306.94439	10507.1625
2309.80474	10511.2625
2312.66327	10490.9625
2315.51999	10498.9625
2318.37489	10498.0625
2321.22797	10475.1625
2324.07925	10457.6625
2326.92871	10418.6625
2329.77637	10431.8625
2332.62222	10435.2625
2335.46626	10420.8625
2338.3085	10419.2625
2341.14893	10433.2625
2343.98756	10452.6625
2346.8244	10440.2625
2349.65943	10454.4625
2352.49267	10462.1625
2355.32411	10483.8625
2358.15376	10466.6625
2360.98161	10456.8625
2363.80768	10484.9625
2366.63195	10472.7625
2369.45444	10425.8625
2372.27514	10435.6625
2375.09405	10405.5625
2377.91118	10402.1625
2380.72652	10343.4625
2383.54009	10317.5625
2386.35187	10306.3625
2389.16188	10233.0625
2391.97011	10236.9625
2394.77657	10213.2625
2397.58125	10187.1625
2400.38416	10177.7625
2403.18529	10144.9625
2405.98466	10105.5625
2408.78226	10095.3625
2411.57809	10097.7625
2414.37216	10054.9625
2417.16446	10064.5625
2419.955	10064.6625
2422.74378	10068.6625
2425.5308	10026.1625
2428.31606	10028.0625
2431.09956	10045.3625
2433.88131	10037.6625
2436.6613	10059.6625
2439.43954	10058.1625
2442.21603	10062.3625
2444.99077	10038.8625
2447.76377	10067.5625
2450.53501	10062.1625
2453.30451	10036.7625
2456.07226	10038.7625
2458.83827	10048.4625
2461.60254	10055.1625
2464.36507	10051.5625
2467.12586	10059.1625
2469.88492	10042.3625
2472.64224	10048.3625
2475.39782	10063.6625
2478.15167	10086.1625
2480.90379	10067.6625
2483.65417	10105.8625
2486.40283	10079.6625
2489.14976	10084.6625
2491.89497	10068.4625
2494.63845	10082.1625
2497.3802	10076.2625
2500.12024	10108.4625
2502.85855	10091.4625
2505.59514	10067.9625
2508.33002	10040.2625
2511.06318	10012.7625
2513.79462	10008.2625
2516.52435	10019.5625
2519.25237	9979.3625
2521.97867	9978.6625
2524.70327	9968.2625
2527.42616	9930.6625
2530.14734	9947.9625
2532.86681	9940.7625
2535.58458	9933.5625
2538.30065	9915.5625
2541.01501	9929.2625
2543.72768	9904.7625
2546.43864	9903.0625
2549.14791	9898.2625
2551.85548	9900.8625
2554.56136	9867.9625
2557.26554	9858.8625
2559.96803	9868.5625
2562.66883	9886.5625
2565.36794	9874.4625
2568.06536	9880.4625
2570.7611	9865.4625
2573.45514	9886.6625
2576.14751	9868.0625
2578.83819	9855.8625
2581.52719	9877.1625
2584.21451	9868.7625
2586.90015	9860.1625
2589.58411	9866.1625
2592.2664	9846.5625
2594.94701	9835.6625
2597.62594	9844.3625
2600.30321	9809.0625
2602.9788	9827.4625
2605.65273	9802.4625
2608.32498	9850.7625
2610.99557	9860.7625
2613.66449	9873.1625
2616.33175	9839.3625
2618.99734	9868.7625
2621.66128	9833.7625
2624.32355	9837.1625
2626.98416	9817.7625
2629.64311	9804.0625
2632.30041	9811.8625
2634.95605	9807.0625
2637.61004	9803.5625
2640.26238	9783.5625
2642.91306	9803.3625
2645.56209	9781.7625
2648.20948	9794.3625
2650.85521	9793.5625
2653.4993	9796.8625
2656.14175	9795.6625
2658.78255	9813.5625
2661.42171	9823.8625
2664.05923	9843.1625
2666.6951	9831.0625
2669.32934	9851.3625
2671.96194	9869.3625
2674.59291	9862.0625
2677.22224	9863.5625
2679.84993	9859.8625
2682.476	9831.1625
2685.10043	9852.4625
2687.72324	9815.9625
2690.34441	9843.3625
2692.96396	9817.7625
2695.58188	9821.6625
2698.19818	9801.5625
2700.81285	9809.4625
2703.4259	9784.4625
2706.03733	9807.7625
2708.64714	9811.0625
2711.25533	9823.5625
2713.86191	9799.9625
2716.46687	9826.7625
2719.07021	9856.5625
2721.67194	9855.3625
2724.27206	9850.4625
2726.87057	9876.8625
2729.46747	9891.1625
2732.06276	9889.6625
2734.65644	9894.8625
2737.24852	9914.0625
2739.83899	9879.3625
2742.42786	9915.8625
2745.01513	9879.9625
2747.60079	9873.2625
2750.18486	9846.1625
2752.76733	9844.2625
2755.3482	9839.8625
2757.92747	9857.6625
2760.50515	9824.7625
2763.08123	9854.8625
2765.65573	9847.2625
2768.22863	9822.2625
2770.79994	9839.7625
2773.36967	9840.7625
2775.9378	9843.5625
2778.50435	9851.4625
2781.06932	9827.1625
2783.6327	9852.6625
2786.1945	9856.9625
2788.75471	9864.3625
2791.31335	9859.5625
2793.87041	9872.6625
2796.42589	9842.5625
2798.97979	9856.5625
2801.53212	9832.0625
2804.08288	9831.1625
2806.63206	9814.0625
2809.17967	9782.2625
2811.72571	9772.5625
2814.27018	9782.4625
2816.81308	9776.9625
2819.35442	9727.8625
2821.89419	9726.9625
2824.43239	9740.0625
2826.96904	9722.1625
2829.50412	9726.1625
2832.03763	9714.4625
2834.56959	9731.1625
2837.1	9688.2625
2839.62884	9689.0625
2842.15613	9692.7625
2844.68186	9729.9625
2847.20604	9749.0625
2849.72867	9754.7625
2852.24974	9746.1625
2854.76927	9749.6625
2857.28724	9744.0625
2859.80367	9750.2625
2862.31855	9751.5625
2864.83189	9751.2625
2867.34368	9756.0625
2869.85393	9717.2625
2872.36264	9708.9625
2874.8698	9689.9625
2877.37543	9694.8625
2879.87952	9707.5625
2882.38207	9722.2625
2884.88308	9730.4625
2887.38256	9746.6625
2889.88051	9751.4625
2892.37692	9768.5625
2894.8718	9767.7625
2897.36515	9774.0625
2899.85698	9809.0625
2902.34727	9826.5625
2904.83604	9821.3625
2907.32328	9825.1625
2909.809	9824.7625
2912.29319	9832.5625
2914.77587	9839.4625
2917.25702	9803.2625
2919.73665	9790.4625
2922.21476	9806.4625
2924.69136	9818.9625
2927.16644	9824.6625
2929.64	9804.4625
2932.11205	9791.6625
2934.58258	9771.5625
2937.05161	9755.7625
2939.51912	9760.7625
2941.98513	9738.2625
2944.44962	9686.1625
2946.91261	9657.0625
2949.37409	9663.4625
2951.83407	9656.4625
2954.29254	9589.4625
2956.74951	9556.1625
2959.20498	9570.1625
2961.65895	9548.5625
2964.11142	9532.0625
2966.56239	9499.5625
2969.01186	9485.5625
2971.45984	9456.1625
2973.90632	9446.6625
2976.35131	9422.9625
2978.7948	9385.1625
2981.23681	9364.8625
2983.67732	9339.6625
2986.11635	9316.4625
2988.55388	9289.9625
2990.98993	9256.9625
2993.4245	9204.5625
2995.85758	9211.0625
2998.28917	9168.2625
3000.71928	9126.1625
3003.14791	9080.4625
3005.57506	9092.6625
3008.00073	9071.0625
3010.42493	9075.9625
3012.84764	9069.3625
3015.26888	9002.3625
3017.68865	8999.2625
3020.10694	8961.2625
3022.52376	8925.3625
3024.9391	8912.0625
3027.35298	8926.3625
3029.76539	8914.8625
3032.17632	8909.4625
3034.5858	8920.1625
3036.9938	8923.5625
3039.40034	8926.2625
3041.80542	8907.6625
3044.20903	8864.1625
3046.61118	8871.7625
3049.01187	8862.5625
3051.4111	8867.8625
3053.80888	8845.7625
3056.20519	8819.8625
3058.60005	8781.1625
3060.99345	8741.3625
3063.3854	8717.0625
3065.7759	8671.7625
3068.16494	8652.1625
3070.55254	8613.1625
3072.93868	8587.0625
3075.32338	8550.4625
3077.70662	8513.2625
3080.08842	8470.9625
3082.46878	8464.4625
3084.84769	8462.2625
3087.22515	8438.6625
3089.60118	8450.0625
3091.97576	8450.8625
3094.3489	8431.4625
3096.72061	8424.7625
3099.09087	8416.5625
3101.4597	8413.2625
3103.82709	8408.9625
3106.19305	8396.8625
3108.55757	8390.6625
3110.92066	8354.4625
3113.28232	8358.5625
3115.64255	8282.9625
3118.00134	8281.8625
3120.35871	8304.6625
3122.71466	8290.2625
3125.06917	8285.8625
3127.42226	8248.7625
3129.77393	8268.4625
3132.12417	8249.2625
3134.47299	8235.5625
3136.82039	8214.1625
3139.16636	8212.8625
3141.51092	8218.6625
3143.85406	8208.1625
3146.19579	8213.7625
3148.53609	8193.1625
3150.87499	8196.4625
3153.21246	8198.4625
3155.54853	8202.3625
3157.88318	8213.7625
3160.21642	8224.6625
3162.54826	8210.7625
3164.87868	8225.0625
3167.2077	8205.8625
3169.5353	8214.8625
3171.86151	8237.0625
3174.18631	8223.7625
3176.5097	8231.0625
3178.83169	8214.5625
3181.15228	8216.0625
3183.47147	8186.1625
3185.78926	8182.3625
3188.10565	8170.3625
3190.42065	8174.0625
3192.73424	8153.0625
3195.04645	8131.6625
3197.35725	8113.6625
3199.66667	8106.2625
3201.97469	8089.6625
3204.28132	8079.5625
3206.58656	8092.9625
3208.8904	8097.4625
3211.19287	8110.0625
3213.49394	8087.0625
3215.79363	8078.5625
3218.09193	8095.3625
3220.38884	8088.5625
3222.68438	8104.4625
3224.97853	8084.9625
3227.2713	8076.0625
3229.56269	8089.7625
3231.8527	8105.5625
3234.14133	8104.7625
3236.42858	8088.8625
3238.71446	8074.2625
3240.99896	8062.6625
3243.28209	8041.1625
3245.56384	8034.4625
3247.84423	8037.7625
3250.12324	7990.0625
3252.40088	7985.5625
3254.67715	7970.4625
3256.95205	7974.0625
3259.22558	7952.6625
3261.49775	7922.5625
3263.76855	7924.2625
3266.03799	7911.4625
3268.30606	7925.2625
3270.57277	7894.0625
3272.83812	7861.7625
3275.10211	7855.2625
3277.36474	7846.3625
3279.62601	7822.9625
3281.88593	7840.9625
3284.14448	7833.6625
3286.40168	7855.9625
3288.65753	7845.8625
3290.91202	7831.9625
3293.16516	7823.7625
3295.41695	7799.9625
3297.66738	7765.4625
3299.91647	7717.1625
3302.16421	7668.4625
3304.4106	7631.3625
3306.65564	7575.9625
3308.89933	7521.8625
3311.14169	7434.8625
3313.38269	7332.4625
3315.62236	7302.7625
3317.86068	7226.4625
3320.09766	7151.2625
3322.3333	7116.1625
3324.5676	7076.1625
3326.80056	6955.4625
3329.03219	6896.7625
3331.26248	1.9625
3333.49143	-1.6375
3335.71905	0.1625
