Data from AgNPs_FTO_APTES_UA_5uM_CRN_50uM_R6G_10uM_NaF_0.1M_Addition_RamanShift__16__14-01-16-823.txt Node

Date: Mon Feb 07 14:01:16 GMT 2022
User: TCL
Spectrometer: QEP01345
Trigger mode: 4
Integration Time (sec): 7.000000E0
Scans to average: 10
Electric dark correction enabled: true
Nonlinearity correction enabled: false
Boxcar width: 0
XAxis mode: Raman Shifts
Number of Pixels in Spectrum: 1044
>>>>>Begin Spectral Data<<<<<
46.04893	0.4625
50.45542	-0.9375
54.85868	0.1625
59.25871	-0.4375
63.6555	67.5625
68.04907	70.3625
72.43941	79.1625
76.82654	78.2625
81.21044	79.4625
85.59113	81.0625
89.96862	87.4625
94.34289	89.4625
98.71396	88.1625
103.08183	95.0625
107.4465	97.8625
111.80798	97.5625
116.16626	104.1625
120.52136	108.0625
124.87327	116.7625
129.222	125.1625
133.56755	131.8625
137.90993	143.6625
142.24913	153.8625
146.58517	179.7625
150.91804	206.5625
155.24774	257.1625
159.57429	322.7625
163.89768	409.0625
168.21792	556.9625
172.53501	763.5625
176.84895	1062.7625
181.15975	1501.2625
185.46741	2109.9625
189.77193	2907.1625
194.07331	3892.8625
198.37157	5024.3625
202.6667	6173.2625
206.9587	7350.8625
211.24758	8500.5625
215.53334	9610.2625
219.81599	10847.4625
224.09553	12157.3625
228.37195	13620.7625
232.64527	15192.7625
236.91549	16909.4625
241.18261	18602.4625
245.44663	20217.2625
249.70755	21716.7625
253.96539	22988.9625
258.22014	24095.1625
262.4718	25003.7625
266.72039	25708.2625
270.96589	26144.2625
275.20832	26358.6625
279.44768	26332.6625
283.68397	26273.5625
287.91719	26208.0625
292.14735	26197.4625
296.37445	26291.9625
300.59849	26368.4625
304.81948	26341.0625
309.03742	26114.5625
313.25231	25596.5625
317.46415	24868.6625
321.67296	24114.1625
325.87872	23460.6625
330.08145	23094.7625
334.28114	22988.9625
338.47781	23162.1625
342.67145	23321.8625
346.86207	23646.5625
351.04966	24039.9625
355.23424	24383.8625
359.4158	24715.5625
363.59435	24956.0625
367.76989	25133.8625
371.94243	25218.1625
376.11196	25359.2625
380.27849	25476.9625
384.44203	25609.7625
388.60257	25829.0625
392.76012	26163.2625
396.91468	26562.9625
401.06626	26960.4625
405.21485	27205.4625
409.36047	27129.6625
413.50311	26727.3625
417.64277	26441.5625
421.77947	26365.8625
425.9132	26488.3625
430.04396	26660.5625
434.17176	26838.6625
438.2966	27041.5625
442.41849	27435.3625
446.53742	28047.6625
450.6534	28836.6625
454.76644	29486.2625
458.87653	29776.7625
462.98368	29889.2625
467.08789	29706.8625
471.18916	29518.1625
475.2875	29396.9625
479.38291	29543.2625
483.4754	29491.2625
487.56496	29077.5625
491.6516	28407.0625
495.73531	27769.9625
499.81612	27383.2625
503.89401	27390.9625
507.96899	27418.4625
512.04106	27331.8625
516.11023	27044.2625
520.1765	26692.8625
524.23987	26267.8625
528.30034	25940.6625
532.35792	25748.2625
536.41261	25502.2625
540.46441	25374.3625
544.51333	25491.3625
548.55936	25937.0625
552.60252	26645.2625
556.64279	27352.2625
560.6802	27834.9625
564.71473	28154.5625
568.7464	28711.3625
572.7752	29485.4625
576.80114	30164.4625
580.82422	30688.6625
584.84444	31046.2625
588.86181	31314.9625
592.87633	31450.0625
596.888	31503.8625
600.89682	31419.7625
604.9028	32081.6625
608.90594	33750.7625
612.90624	35251.6625
616.90371	32820.6625
620.89834	28228.7625
624.89015	26315.9625
628.87913	26306.1625
632.86528	26594.2625
636.84862	26514.9625
640.82913	26091.3625
644.80683	25446.4625
648.78172	24865.9625
652.75379	24591.5625
656.72306	24710.3625
660.68952	24979.1625
664.65319	24897.5625
668.61405	24578.9625
672.57211	24488.8625
676.52738	24503.1625
680.47986	24512.4625
684.42955	24394.4625
688.37646	24320.8625
692.32058	24422.4625
696.26192	24656.0625
700.20048	24831.9625
704.13626	25056.6625
708.06928	25084.6625
711.99952	24995.0625
715.927	24908.6625
719.85171	24944.5625
723.77365	24836.4625
727.69284	24586.5625
731.60928	24310.8625
735.52295	24201.3625
739.43388	24134.0625
743.34206	24200.1625
747.24749	24269.4625
751.15017	24536.1625
755.05012	25014.3625
758.94733	25847.6625
762.8418	27188.8625
766.73354	29112.8625
770.62254	30791.1625
774.50882	30922.9625
778.39237	29363.7625
782.27321	27262.3625
786.15132	25628.2625
790.02671	24664.8625
793.89938	24159.6625
797.76935	23977.4625
801.6366	23938.3625
805.50115	23905.3625
809.36299	23778.3625
813.22213	23600.4625
817.07857	23560.6625
820.93231	23482.4625
824.78336	23370.0625
828.63172	23201.0625
832.47738	23131.7625
836.32036	23122.1625
840.16066	23179.4625
843.99827	23293.9625
847.8332	23207.2625
851.66546	23119.0625
855.49504	23083.3625
859.32195	23070.5625
863.1462	22989.0625
866.96777	22921.8625
870.78668	22833.5625
874.60293	22811.7625
878.41652	22766.2625
882.22745	22843.3625
886.03573	22842.6625
889.84136	22877.4625
893.64433	22791.6625
897.44466	22693.1625
901.24235	22633.0625
905.0374	22560.5625
908.8298	22533.8625
912.61957	22611.5625
916.40671	22894.2625
920.19121	23278.5625
923.97308	23527.6625
927.75233	23469.1625
931.52895	23165.5625
935.30295	22898.8625
939.07433	22446.3625
942.84309	22103.9625
946.60924	21923.0625
950.37278	21873.2625
954.13371	21793.4625
957.89203	21717.0625
961.64774	21733.4625
965.40086	21730.7625
969.15137	21654.9625
972.89929	21478.6625
976.64461	21396.0625
980.38733	21309.7625
984.12747	21377.2625
987.86502	21515.1625
991.59999	21775.3625
995.33237	22144.2625
999.06217	22652.4625
1002.78939	23251.4625
1006.51404	23592.3625
1010.23611	23777.3625
1013.95561	23935.4625
1017.67255	23994.5625
1021.38692	23794.8625
1025.09872	23556.0625
1028.80796	23604.8625
1032.51465	24083.4625
1036.21877	24657.9625
1039.92035	24723.7625
1043.61937	24494.7625
1047.31584	24111.6625
1051.00976	23681.2625
1054.70114	23599.6625
1058.38998	23748.7625
1062.07627	24006.8625
1065.76003	24296.6625
1069.44126	24492.5625
1073.11995	24657.2625
1076.79611	24878.5625
1080.46974	24996.8625
1084.14085	25135.3625
1087.80943	25375.9625
1091.47549	25656.7625
1095.13903	25809.8625
1098.80005	25594.9625
1102.45857	25096.6625
1106.11456	24533.9625
1109.76805	24288.4625
1113.41903	24309.3625
1117.06751	24431.0625
1120.71348	24664.6625
1124.35696	24886.0625
1127.99793	25161.3625
1131.63641	25375.2625
1135.2724	25304.8625
1138.90589	25220.4625
1142.5369	25270.2625
1146.16542	25377.4625
1149.79145	25739.0625
1153.415	26134.9625
1157.03607	26686.0625
1160.65467	27553.3625
1164.27079	28825.0625
1167.88443	30485.8625
1171.49561	32437.2625
1175.10432	34776.2625
1178.71056	37589.0625
1182.31434	40218.5625
1185.91565	41813.1625
1189.51451	42093.6625
1193.11091	41292.1625
1196.70485	39887.0625
1200.29634	38130.0625
1203.88538	36775.6625
1207.47197	35985.1625
1211.05612	35400.2625
1214.63782	34677.7625
1218.21708	33774.5625
1221.79391	32929.3625
1225.36829	32310.1625
1228.94024	31763.2625
1232.50976	31124.4625
1236.07685	30662.4625
1239.6415	30423.6625
1243.20374	30418.3625
1246.76355	30664.4625
1250.32093	31131.7625
1253.8759	31866.9625
1257.42845	32714.8625
1260.97859	33591.7625
1264.52631	34440.8625
1268.07163	35355.0625
1271.61453	36446.4625
1275.15503	37597.3625
1278.69312	38944.5625
1282.22882	40255.3625
1285.76211	41549.0625
1289.29301	43017.7625
1292.82151	44956.3625
1296.34761	47540.0625
1299.87133	50520.9625
1303.39266	53518.0625
1306.9116	56336.7625
1310.42815	58770.2625
1313.94233	60126.5625
1317.45412	60266.6625
1320.96354	59939.6625
1324.47058	59523.3625
1327.97525	59270.4625
1331.47754	59060.9625
1334.97747	58955.7625
1338.47502	58866.6625
1341.97022	58549.0625
1345.46305	57733.5625
1348.95352	56362.4625
1352.44163	54808.4625
1355.92738	53936.2625
1359.41078	54246.8625
1362.89183	54763.5625
1366.37053	53553.0625
1369.84688	50013.0625
1373.32088	45715.8625
1376.79254	42744.1625
1380.26186	41768.5625
1383.72883	42135.5625
1387.19347	42617.0625
1390.65578	42850.5625
1394.11575	43055.8625
1397.57339	43737.0625
1401.0287	44715.4625
1404.48168	45411.7625
1407.93234	45255.6625
1411.38068	44008.8625
1414.82669	42099.2625
1418.27039	39765.2625
1421.71177	37567.3625
1425.15083	35827.6625
1428.58758	34836.1625
1432.02203	34851.1625
1435.45416	35672.9625
1438.88399	36893.2625
1442.31151	38064.9625
1445.73673	39073.8625
1449.15965	39965.4625
1452.58027	40790.0625
1455.9986	41376.4625
1459.41463	41883.2625
1462.82837	42560.7625
1466.23982	43183.4625
1469.64898	43543.2625
1473.05586	43656.3625
1476.46045	43349.0625
1479.86276	42800.1625
1483.26279	42042.3625
1486.66054	41445.2625
1490.05602	41215.9625
1493.44922	41249.9625
1496.84016	41461.4625
1500.22882	42028.8625
1503.61521	43005.3625
1506.99934	44297.6625
1510.38121	45466.3625
1513.76081	45906.9625
1517.13816	45457.7625
1520.51324	44546.3625
1523.88607	43725.5625
1527.25665	43292.2625
1530.62498	43276.2625
1533.99105	43251.7625
1537.35488	43014.5625
1540.71647	42350.4625
1544.07581	41368.5625
1547.4329	40158.5625
1550.78776	39192.6625
1554.14038	38567.7625
1557.49077	38200.4625
1560.83892	38011.3625
1564.18484	37896.3625
1567.52853	37993.6625
1570.86999	38223.5625
1574.20922	38849.4625
1577.54624	39700.3625
1580.88103	40172.3625
1584.2136	40780.8625
1587.54395	41970.3625
1590.87208	43792.3625
1594.19801	46079.7625
1597.52172	48153.5625
1600.84321	48510.3625
1604.16251	46364.8625
1607.47959	42759.3625
1610.79447	39104.9625
1614.10715	35675.8625
1617.41763	32849.1625
1620.7259	30726.2625
1624.03199	29611.6625
1627.33587	29400.5625
1630.63757	30183.5625
1633.93707	32207.7625
1637.23439	35469.5625
1640.52951	39967.7625
1643.82246	45028.6625
1647.11321	48860.9625
1650.40179	49569.7625
1653.68819	46439.5625
1656.97241	40716.4625
1660.25446	34737.5625
1663.53433	30023.4625
1666.81203	26738.5625
1670.08756	24627.6625
1673.36092	23276.9625
1676.63211	22417.4625
1679.90115	21779.6625
1683.16801	21336.3625
1686.43272	20987.6625
1689.69527	20730.1625
1692.95567	20545.7625
1696.2139	20395.7625
1699.46999	20273.0625
1702.72392	20202.8625
1705.97571	20117.5625
1709.22535	20026.1625
1712.47284	19935.8625
1715.71819	19884.9625
1718.96139	19778.9625
1722.20246	19704.3625
1725.44139	19591.6625
1728.67818	19489.4625
1731.91284	19341.4625
1735.14537	19252.3625
1738.37576	19172.0625
1741.60403	19056.6625
1744.83017	18987.6625
1748.05418	18939.3625
1751.27607	18941.2625
1754.49584	18884.2625
1757.71349	18883.2625
1760.92903	18856.5625
1764.14244	18835.3625
1767.35375	18798.2625
1770.56294	18728.9625
1773.77002	18663.1625
1776.97499	18624.8625
1780.17785	18575.1625
1783.37861	18547.2625
1786.57727	18514.8625
1789.77382	18465.3625
1792.96828	18441.9625
1796.16064	18377.4625
1799.3509	18330.6625
1802.53907	18279.1625
1805.72514	18225.6625
1808.90913	18174.5625
1812.09102	18128.6625
1815.27083	18074.7625
1818.44856	18072.2625
1821.6242	18020.1625
1824.79776	18012.7625
1827.96924	17973.4625
1831.13864	17973.9625
1834.30597	17966.9625
1837.47122	17960.5625
1840.6344	17993.1625
1843.7955	17914.0625
1846.95454	17937.3625
1850.11151	17934.7625
1853.26642	17923.7625
1856.41926	17910.4625
1859.57004	17928.2625
1862.71876	17930.6625
1865.86542	17879.7625
1869.01003	17833.3625
1872.15258	17796.9625
1875.29308	17782.5625
1878.43152	17781.0625
1881.56792	17750.0625
1884.70227	17742.8625
1887.83457	17743.0625
1890.96482	17697.5625
1894.09304	17665.1625
1897.21921	17666.2625
1900.34335	17645.9625
1903.46544	17615.9625
1906.58551	17627.4625
1909.70353	17588.4625
1912.81953	17527.5625
1915.93349	17510.8625
1919.04543	17488.9625
1922.15534	17431.0625
1925.26322	17390.2625
1928.36908	17330.0625
1931.47292	17297.6625
1934.57473	17238.2625
1937.67453	17210.6625
1940.77232	17157.5625
1943.86808	17119.6625
1946.96184	17063.5625
1950.05358	17007.0625
1953.14331	16977.3625
1956.23103	16897.4625
1959.31675	16839.5625
1962.40046	16760.1625
1965.48217	16750.4625
1968.56188	16714.8625
1971.63959	16618.1625
1974.7153	16556.9625
1977.78901	16561.7625
1980.86073	16479.6625
1983.93046	16450.7625
1986.99819	16374.8625
1990.06394	16300.2625
1993.1277	16304.0625
1996.18947	16269.3625
1999.24925	16199.9625
2002.30706	16153.0625
2005.36288	16068.0625
2008.41672	16057.7625
2011.46859	16015.5625
2014.51848	15965.2625
2017.56639	15885.0625
2020.61233	15862.4625
2023.6563	15810.9625
2026.6983	15782.4625
2029.73833	15762.8625
2032.7764	15680.6625
2035.8125	15711.2625
2038.84664	15660.9625
2041.87881	15657.5625
2044.90903	15607.0625
2047.93729	15593.5625
2050.96359	15567.0625
2053.98794	15546.2625
2057.01034	15566.5625
2060.03078	15532.5625
2063.04927	15494.8625
2066.06582	15503.4625
2069.08042	15499.8625
2072.09307	15480.6625
2075.10378	15455.2625
2078.11255	15429.1625
2081.11938	15418.5625
2084.12426	15418.3625
2087.12722	15424.3625
2090.12824	15373.9625
2093.12732	15392.2625
2096.12447	15389.7625
2099.11969	15378.1625
2102.11299	15413.0625
2105.10435	15395.9625
2108.09379	15377.4625
2111.08131	15415.2625
2114.0669	15412.3625
2117.05057	15433.1625
2120.03233	15419.4625
2123.01216	15437.1625
2125.99008	15456.2625
2128.96609	15439.5625
2131.94018	15465.5625
2134.91236	15457.7625
2137.88263	15477.7625
2140.851	15497.9625
2143.81746	15514.4625
2146.78201	15500.7625
2149.74466	15461.7625
2152.7054	15476.6625
2155.66425	15474.3625
2158.6212	15459.2625
2161.57625	15439.1625
2164.52941	15443.5625
2167.48067	15447.5625
2170.43004	15442.4625
2173.37752	15432.9625
2176.32311	15426.4625
2179.26681	15424.6625
2182.20863	15442.2625
2185.14856	15439.0625
2188.08661	15412.0625
2191.02278	15411.4625
2193.95707	15433.7625
2196.88948	15400.1625
2199.82001	15374.9625
2202.74867	15346.8625
2205.67545	15377.8625
2208.60037	15324.1625
2211.52341	15326.2625
2214.44458	15290.3625
2217.36388	15271.3625
2220.28132	15261.3625
2223.1969	15239.9625
2226.11061	15191.5625
2229.02246	15172.8625
2231.93245	15135.7625
2234.84058	15107.9625
2237.74686	15041.0625
2240.65128	15040.3625
2243.55385	15018.3625
2246.45456	14980.8625
2249.35343	14976.8625
2252.25044	14912.2625
2255.14561	14916.2625
2258.03893	14890.0625
2260.93041	14846.5625
2263.82004	14838.1625
2266.70783	14805.2625
2269.59378	14737.9625
2272.4779	14728.4625
2275.36017	14681.4625
2278.24061	14640.1625
2281.11922	14632.3625
2283.996	14611.3625
2286.87094	14580.8625
2289.74405	14569.1625
2292.61534	14543.7625
2295.4848	14548.8625
2298.35243	14520.7625
2301.21824	14550.1625
2304.08223	14527.2625
2306.94439	14538.1625
2309.80474	14547.9625
2312.66327	14554.6625
2315.51999	14531.1625
2318.37489	14546.8625
2321.22797	14524.5625
2324.07925	14495.7625
2326.92871	14471.9625
2329.77637	14453.2625
2332.62222	14405.4625
2335.46626	14399.7625
2338.3085	14430.5625
2341.14893	14411.5625
2343.98756	14448.9625
2346.8244	14436.4625
2349.65943	14440.1625
2352.49267	14436.7625
2355.32411	14429.8625
2358.15376	14433.0625
2360.98161	14419.3625
2363.80768	14409.6625
2366.63195	14398.5625
2369.45444	14362.2625
2372.27514	14322.7625
2375.09405	14303.0625
2377.91118	14280.1625
2380.72652	14256.4625
2383.54009	14202.8625
2386.35187	14198.6625
2389.16188	14141.5625
2391.97011	14136.6625
2394.77657	14108.3625
2397.58125	14087.0625
2400.38416	14085.1625
2403.18529	14043.4625
2405.98466	14023.4625
2408.78226	14010.8625
2411.57809	14011.5625
2414.37216	13953.2625
2417.16446	13977.6625
2419.955	13921.9625
2422.74378	13923.1625
2425.5308	13915.5625
2428.31606	13906.3625
2431.09956	13891.2625
2433.88131	13884.1625
2436.6613	13870.5625
2439.43954	13864.5625
2442.21603	13846.1625
2444.99077	13852.6625
2447.76377	13888.0625
2450.53501	13854.4625
2453.30451	13850.9625
2456.07226	13838.5625
2458.83827	13808.4625
2461.60254	13823.4625
2464.36507	13826.5625
2467.12586	13823.5625
2469.88492	13826.9625
2472.64224	13857.2625
2475.39782	13866.3625
2478.15167	13883.9625
2480.90379	13842.4625
2483.65417	13848.7625
2486.40283	13849.1625
2489.14976	13860.7625
2491.89497	13888.0625
2494.63845	13915.7625
2497.3802	13906.7625
2500.12024	13877.5625
2502.85855	13865.1625
2505.59514	13862.4625
2508.33002	13861.4625
2511.06318	13838.0625
2513.79462	13808.3625
2516.52435	13813.8625
2519.25237	13820.3625
2521.97867	13837.4625
2524.70327	13820.9625
2527.42616	13783.8625
2530.14734	13769.9625
2532.86681	13815.7625
2535.58458	13788.2625
2538.30065	13773.4625
2541.01501	13774.3625
2543.72768	13783.3625
2546.43864	13789.8625
2549.14791	13746.8625
2551.85548	13721.2625
2554.56136	13701.6625
2557.26554	13665.4625
2559.96803	13653.5625
2562.66883	13642.8625
2565.36794	13646.9625
2568.06536	13622.4625
2570.7611	13605.6625
2573.45514	13607.3625
2576.14751	13588.6625
2578.83819	13562.5625
2581.52719	13575.9625
2584.21451	13565.0625
2586.90015	13581.4625
2589.58411	13582.6625
2592.2664	13605.0625
2594.94701	13563.5625
2597.62594	13561.1625
2600.30321	13572.9625
2602.9788	13558.9625
2605.65273	13565.0625
2608.32498	13577.5625
2610.99557	13523.2625
2613.66449	13577.4625
2616.33175	13551.5625
2618.99734	13586.1625
2621.66128	13577.4625
2624.32355	13537.9625
2626.98416	13536.8625
2629.64311	13559.1625
2632.30041	13566.3625
2634.95605	13590.1625
2637.61004	13561.8625
2640.26238	13562.4625
2642.91306	13554.7625
2645.56209	13499.3625
2648.20948	13530.0625
2650.85521	13527.0625
2653.4993	13528.9625
2656.14175	13509.6625
2658.78255	13516.8625
2661.42171	13527.4625
2664.05923	13576.1625
2666.6951	13556.4625
2669.32934	13577.9625
2671.96194	13557.9625
2674.59291	13571.3625
2677.22224	13571.5625
2679.84993	13589.1625
2682.476	13587.3625
2685.10043	13554.3625
2687.72324	13518.4625
2690.34441	13517.4625
2692.96396	13513.9625
2695.58188	13540.1625
2698.19818	13509.4625
2700.81285	13516.4625
2703.4259	13562.6625
2706.03733	13569.0625
2708.64714	13536.2625
2711.25533	13538.8625
2713.86191	13555.9625
2716.46687	13584.7625
2719.07021	13581.0625
2721.67194	13589.9625
2724.27206	13584.4625
2726.87057	13618.5625
2729.46747	13624.9625
2732.06276	13661.9625
2734.65644	13635.3625
2737.24852	13636.1625
2739.83899	13607.2625
2742.42786	13629.3625
2745.01513	13578.6625
2747.60079	13605.9625
2750.18486	13595.1625
2752.76733	13580.6625
2755.3482	13579.8625
2757.92747	13570.2625
2760.50515	13538.4625
2763.08123	13604.5625
2765.65573	13590.4625
2768.22863	13609.7625
2770.79994	13573.3625
2773.36967	13602.3625
2775.9378	13550.3625
2778.50435	13565.9625
2781.06932	13560.7625
2783.6327	13568.5625
2786.1945	13606.4625
2788.75471	13588.3625
2791.31335	13544.3625
2793.87041	13544.4625
2796.42589	13473.6625
2798.97979	13504.9625
2801.53212	13478.2625
2804.08288	13446.5625
2806.63206	13398.6625
2809.17967	13386.2625
2811.72571	13390.3625
2814.27018	13336.7625
2816.81308	13337.1625
2819.35442	13305.0625
2821.89419	13261.4625
2824.43239	13306.9625
2826.96904	13283.6625
2829.50412	13274.0625
2832.03763	13228.6625
2834.56959	13250.8625
2837.1	13234.4625
2839.62884	13217.2625
2842.15613	13235.0625
2844.68186	13251.0625
2847.20604	13272.6625
2849.72867	13284.4625
2852.24974	13295.3625
2854.76927	13277.1625
2857.28724	13268.2625
2859.80367	13247.8625
2862.31855	13237.3625
2864.83189	13216.1625
2867.34368	13169.0625
2869.85393	13194.7625
2872.36264	13153.7625
2874.8698	13147.3625
2877.37543	13128.0625
2879.87952	13127.2625
2882.38207	13142.2625
2884.88308	13172.5625
2887.38256	13177.0625
2889.88051	13189.5625
2892.37692	13180.7625
2894.8718	13178.6625
2897.36515	13227.0625
2899.85698	13172.6625
2902.34727	13213.6625
2904.83604	13245.3625
2907.32328	13277.4625
2909.809	13255.5625
2912.29319	13305.1625
2914.77587	13298.1625
2917.25702	13304.9625
2919.73665	13281.9625
2922.21476	13270.5625
2924.69136	13286.6625
2927.16644	13267.2625
2929.64	13241.7625
2932.11205	13210.2625
2934.58258	13195.7625
2937.05161	13180.8625
2939.51912	13212.0625
2941.98513	13176.1625
2944.44962	13126.7625
2946.91261	13119.2625
2949.37409	13132.5625
2951.83407	13090.3625
2954.29254	13076.2625
2956.74951	13084.7625
2959.20498	13039.9625
2961.65895	13029.0625
2964.11142	13030.4625
2966.56239	12984.1625
2969.01186	12980.8625
2971.45984	12979.9625
2973.90632	12960.3625
2976.35131	12930.9625
2978.7948	12919.2625
2981.23681	12891.7625
2983.67732	12861.4625
2986.11635	12834.2625
2988.55388	12786.4625
2990.98993	12762.2625
2993.4245	12745.5625
2995.85758	12704.7625
2998.28917	12657.6625
3000.71928	12652.0625
3003.14791	12603.1625
3005.57506	12609.2625
3008.00073	12556.3625
3010.42493	12457.9625
3012.84764	12525.3625
3015.26888	12494.2625
3017.68865	12455.4625
3020.10694	12453.4625
3022.52376	12441.5625
3024.9391	12423.4625
3027.35298	12411.8625
3029.76539	12403.5625
3032.17632	12362.8625
3034.5858	12360.9625
3036.9938	12361.2625
3039.40034	12351.2625
3041.80542	12376.5625
3044.20903	12363.9625
3046.61118	12345.9625
3049.01187	12302.9625
3051.4111	12308.1625
3053.80888	12274.2625
3056.20519	12268.0625
3058.60005	12233.7625
3060.99345	12192.7625
3063.3854	12166.5625
3065.7759	12142.0625
3068.16494	12090.9625
3070.55254	12051.6625
3072.93868	12033.9625
3075.32338	11991.1625
3077.70662	11973.6625
3080.08842	11920.5625
3082.46878	11930.7625
3084.84769	11919.9625
3087.22515	11896.1625
3089.60118	11889.7625
3091.97576	11894.2625
3094.3489	11880.5625
3096.72061	11867.8625
3099.09087	11887.3625
3101.4597	11879.0625
3103.82709	11864.8625
3106.19305	11862.0625
3108.55757	11873.1625
3110.92066	11795.3625
3113.28232	11821.2625
3115.64255	11782.4625
3118.00134	11781.8625
3120.35871	11764.4625
3122.71466	11722.1625
3125.06917	11693.5625
3127.42226	11649.8625
3129.77393	11647.4625
3132.12417	11619.6625
3134.47299	11623.5625
3136.82039	11607.8625
3139.16636	11598.3625
3141.51092	11606.9625
3143.85406	11562.9625
3146.19579	11579.8625
3148.53609	11604.9625
3150.87499	11584.9625
3153.21246	11606.3625
3155.54853	11619.9625
3157.88318	11594.5625
3160.21642	11639.9625
3162.54826	11628.1625
3164.87868	11633.1625
3167.2077	11615.4625
3169.5353	11651.8625
3171.86151	11635.9625
3174.18631	11639.4625
3176.5097	11631.5625
3178.83169	11592.6625
3181.15228	11606.9625
3183.47147	11578.3625
3185.78926	11562.9625
3188.10565	11564.3625
3190.42065	11519.6625
3192.73424	11546.8625
3195.04645	11524.7625
3197.35725	11501.7625
3199.66667	11504.0625
3201.97469	11507.6625
3204.28132	11509.9625
3206.58656	11519.6625
3208.8904	11530.0625
3211.19287	11533.9625
3213.49394	11541.2625
3215.79363	11565.5625
3218.09193	11533.0625
3220.38884	11546.3625
3222.68438	11561.2625
3224.97853	11522.4625
3227.2713	11508.2625
3229.56269	11505.0625
3231.8527	11519.2625
3234.14133	11481.5625
3236.42858	11465.7625
3238.71446	11458.8625
3240.99896	11414.8625
3243.28209	11435.1625
3245.56384	11383.1625
3247.84423	11394.4625
3250.12324	11385.4625
3252.40088	11364.4625
3254.67715	11363.1625
3256.95205	11338.3625
3259.22558	11340.5625
3261.49775	11330.3625
3263.76855	11327.2625
3266.03799	11294.2625
3268.30606	11267.7625
3270.57277	11257.8625
3272.83812	11207.0625
3275.10211	11186.0625
3277.36474	11207.0625
3279.62601	11172.5625
3281.88593	11175.0625
3284.14448	11183.8625
3286.40168	11192.6625
3288.65753	11158.4625
3290.91202	11182.9625
3293.16516	11147.6625
3295.41695	11123.5625
3297.66738	11071.2625
3299.91647	10969.0625
3302.16421	10956.9625
3304.4106	10873.7625
3306.65564	10800.9625
3308.89933	10731.5625
3311.14169	10665.9625
3313.38269	10595.0625
3315.62236	10530.4625
3317.86068	10428.5625
3320.09766	10343.8625
3322.3333	10278.4625
3324.5676	10252.2625
3326.80056	10092.4625
3329.03219	9989.8625
3331.26248	2.3625
3333.49143	-1.3375
3335.71905	-0.6375
