Data from AgNPs_FTO_APTES_UA_5uM_CRN_20uM_R6G_10uM_NaF_0.1M_Addition_RamanShift__6__13-09-56-764.txt Node

Date: Mon Feb 07 13:09:56 GMT 2022
User: TCL
Spectrometer: QEP01345
Trigger mode: 4
Integration Time (sec): 7.000000E0
Scans to average: 10
Electric dark correction enabled: true
Nonlinearity correction enabled: false
Boxcar width: 0
XAxis mode: Raman Shifts
Number of Pixels in Spectrum: 1044
>>>>>Begin Spectral Data<<<<<
46.04893	-0.6375
50.45542	-2.1375
54.85868	-1.0375
59.25871	0.1625
63.6555	88.1625
68.04907	94.4625
72.43941	99.6625
76.82654	102.5625
81.21044	105.4625
85.59113	110.6625
89.96862	112.2625
94.34289	114.6625
98.71396	117.0625
103.08183	122.5625
107.4465	129.8625
111.80798	131.7625
116.16626	136.9625
120.52136	140.3625
124.87327	151.0625
129.222	162.8625
133.56755	173.2625
137.90993	191.1625
142.24913	210.2625
146.58517	241.1625
150.91804	291.7625
155.24774	351.4625
159.57429	440.3625
163.89768	580.1625
168.21792	779.4625
172.53501	1059.8625
176.84895	1486.7625
181.15975	2103.1625
185.46741	2942.4625
189.77193	4060.0625
194.07331	5413.8625
198.37157	6952.2625
202.6667	8558.9625
206.9587	10174.5625
211.24758	11748.1625
215.53334	13336.5625
219.81599	15025.6625
224.09553	16910.4625
228.37195	18926.8625
232.64527	21141.4625
236.91549	23402.2625
241.18261	25684.9625
245.44663	27829.7625
249.70755	29746.2625
253.96539	31432.2625
258.22014	32826.5625
262.4718	34014.3625
266.72039	34801.6625
270.96589	35231.9625
275.20832	35350.6625
279.44768	35198.4625
283.68397	34940.0625
287.91719	34676.9625
292.14735	34596.2625
296.37445	34641.2625
300.59849	34818.6625
304.81948	34992.9625
309.03742	34966.0625
313.25231	34694.2625
317.46415	34127.8625
321.67296	33383.3625
325.87872	32714.9625
330.08145	32312.9625
334.28114	32171.0625
338.47781	32317.9625
342.67145	32633.4625
346.86207	33045.1625
351.04966	33621.0625
355.23424	34146.8625
359.4158	34618.4625
363.59435	35033.3625
367.76989	35249.0625
371.94243	35407.6625
376.11196	35446.9625
380.27849	35498.7625
384.44203	35585.4625
388.60257	35878.9625
392.76012	36359.7625
396.91468	36974.8625
401.06626	37619.1625
405.21485	37983.3625
409.36047	37829.3625
413.50311	37469.4625
417.64277	37487.0625
421.77947	37744.0625
425.9132	38035.8625
430.04396	38241.8625
434.17176	38412.6625
438.2966	38645.1625
442.41849	39283.2625
446.53742	40457.7625
450.6534	41824.1625
454.76644	42697.4625
458.87653	42922.1625
462.98368	42623.6625
467.08789	41957.1625
471.18916	41238.1625
475.2875	40652.1625
479.38291	40473.8625
483.4754	40401.3625
487.56496	39937.0625
491.6516	39080.4625
495.73531	38140.0625
499.81612	37529.4625
503.89401	37481.1625
507.96899	37669.7625
512.04106	37620.8625
516.11023	37192.0625
520.1765	36531.3625
524.23987	35934.6625
528.30034	35429.9625
532.35792	35056.8625
536.41261	34621.4625
540.46441	34220.3625
544.51333	34190.4625
548.55936	34685.3625
552.60252	35575.7625
556.64279	36741.3625
560.6802	37722.0625
564.71473	38555.2625
568.7464	39664.1625
572.7752	41450.3625
576.80114	43565.1625
580.82422	45579.3625
584.84444	47906.0625
588.86181	51029.3625
592.87633	53596.0625
596.888	52713.4625
600.89682	48753.9625
604.9028	46218.3625
608.90594	46901.9625
612.90624	48080.3625
616.90371	44566.2625
620.89834	38267.3625
624.89015	35527.3625
628.87913	35387.6625
632.86528	35652.9625
636.84862	35381.6625
640.82913	34527.9625
644.80683	33583.8625
648.78172	33079.7625
652.75379	33039.3625
656.72306	33442.0625
660.68952	33738.4625
664.65319	33402.3625
668.61405	32789.6625
672.57211	32696.7625
676.52738	32852.9625
680.47986	32905.2625
684.42955	32571.7625
688.37646	32440.7625
692.32058	32676.0625
696.26192	33317.5625
700.20048	33967.2625
704.13626	34320.2625
708.06928	34549.3625
711.99952	34507.5625
715.927	34533.3625
719.85171	34629.7625
723.77365	34345.4625
727.69284	33618.8625
731.60928	33046.4625
735.52295	32778.8625
739.43388	32730.9625
743.34206	32848.8625
747.24749	33157.9625
751.15017	33700.1625
755.05012	34463.5625
758.94733	35665.5625
762.8418	37514.1625
766.73354	39898.1625
770.62254	41766.9625
774.50882	41464.4625
778.39237	39255.9625
782.27321	36566.6625
786.15132	34613.2625
790.02671	33304.7625
793.89938	32657.1625
797.76935	32358.0625
801.6366	32344.5625
805.50115	32276.5625
809.36299	32170.9625
813.22213	31960.7625
817.07857	31792.5625
820.93231	31620.7625
824.78336	31321.0625
828.63172	31043.9625
832.47738	30891.3625
836.32036	30864.7625
840.16066	30972.8625
843.99827	31049.9625
847.8332	31013.3625
851.66546	30936.7625
855.49504	30994.1625
859.32195	30921.8625
863.1462	30788.2625
866.96777	30674.6625
870.78668	30543.6625
874.60293	30552.7625
878.41652	30505.4625
882.22745	30598.3625
886.03573	30714.2625
889.84136	30668.6625
893.64433	30532.9625
897.44466	30454.6625
901.24235	30367.7625
905.0374	30284.5625
908.8298	30287.7625
912.61957	30457.8625
916.40671	30915.9625
920.19121	31658.9625
923.97308	32196.2625
927.75233	32093.3625
931.52895	31453.0625
935.30295	30645.5625
939.07433	29891.6625
942.84309	29491.6625
946.60924	29207.7625
950.37278	29151.1625
954.13371	29181.9625
957.89203	29138.2625
961.64774	29243.8625
965.40086	29291.4625
969.15137	29261.4625
972.89929	28995.1625
976.64461	28801.9625
980.38733	28771.8625
984.12747	28757.1625
987.86502	28916.1625
991.59999	29056.1625
995.33237	29372.8625
999.06217	29965.3625
1002.78939	30737.6625
1006.51404	31498.6625
1010.23611	32224.6625
1013.95561	32678.9625
1017.67255	32728.0625
1021.38692	32228.4625
1025.09872	31518.6625
1028.80796	31054.1625
1032.51465	31241.6625
1036.21877	31546.1625
1039.92035	31764.6625
1043.61937	31805.7625
1047.31584	31630.7625
1051.00976	31490.8625
1054.70114	31476.4625
1058.38998	31705.0625
1062.07627	32103.0625
1065.76003	32529.0625
1069.44126	33124.3625
1073.11995	33748.8625
1076.79611	34248.3625
1080.46974	34440.2625
1084.14085	34657.9625
1087.80943	35090.8625
1091.47549	35571.0625
1095.13903	35811.3625
1098.80005	35272.7625
1102.45857	34205.6625
1106.11456	33285.4625
1109.76805	32775.4625
1113.41903	32764.7625
1117.06751	32903.2625
1120.71348	33217.8625
1124.35696	33591.6625
1127.99793	34046.5625
1131.63641	34384.9625
1135.2724	34531.3625
1138.90589	34652.3625
1142.5369	34985.9625
1146.16542	35561.8625
1149.79145	36266.2625
1153.415	37038.1625
1157.03607	38052.3625
1160.65467	39783.0625
1164.27079	42489.7625
1167.88443	45378.5625
1171.49561	48024.7625
1175.10432	50931.1625
1178.71056	54695.3625
1182.31434	58176.9625
1185.91565	59467.6625
1189.51451	58745.7625
1193.11091	57115.7625
1196.70485	55282.3625
1200.29634	53534.7625
1203.88538	52743.1625
1207.47197	52904.3625
1211.05612	53124.4625
1214.63782	52222.8625
1218.21708	50272.7625
1221.79391	47922.2625
1225.36829	46212.0625
1228.94024	45036.8625
1232.50976	44074.8625
1236.07685	43180.5625
1239.6415	42638.6625
1243.20374	42614.4625
1246.76355	43060.1625
1250.32093	43882.3625
1253.8759	45003.6625
1257.42845	46402.0625
1260.97859	47907.1625
1264.52631	49516.2625
1268.07163	51210.6625
1271.61453	53020.4625
1275.15503	54906.2625
1278.69312	57242.1625
1282.22882	60049.7625
1285.76211	63276.7625
1289.29301	67009.8625
1292.82151	71442.8625
1296.34761	76637.5625
1299.87133	82459.2625
1303.39266	87795.4625
1306.9116	91699.9625
1310.42815	93780.0625
1313.94233	94315.8625
1317.45412	93280.1625
1320.96354	91908.5625
1324.47058	91087.0625
1327.97525	90854.9625
1331.47754	90552.1625
1334.97747	89843.4625
1338.47502	88135.6625
1341.97022	85827.2625
1345.46305	83073.2625
1348.95352	80663.5625
1352.44163	79627.7625
1355.92738	80723.0625
1359.41078	83644.7625
1362.89183	85885.1625
1366.37053	85039.8625
1369.84688	79108.4625
1373.32088	70468.2625
1376.79254	64344.2625
1380.26186	62783.1625
1383.72883	64144.1625
1387.19347	65265.4625
1390.65578	65111.5625
1394.11575	65123.9625
1397.57339	66408.7625
1401.0287	68232.1625
1404.48168	69505.5625
1407.93234	69229.4625
1411.38068	66938.7625
1414.82669	63535.4625
1418.27039	59564.5625
1421.71177	55810.0625
1425.15083	53015.5625
1428.58758	51706.7625
1432.02203	52445.7625
1435.45416	54540.0625
1438.88399	57168.1625
1442.31151	59140.2625
1445.73673	60349.9625
1449.15965	61135.7625
1452.58027	61275.7625
1455.9986	61058.8625
1459.41463	61076.3625
1462.82837	61735.0625
1466.23982	62897.5625
1469.64898	64096.7625
1473.05586	64798.1625
1476.46045	64786.0625
1479.86276	64147.0625
1483.26279	63142.3625
1486.66054	62497.4625
1490.05602	62364.4625
1493.44922	62692.4625
1496.84016	62879.4625
1500.22882	63085.4625
1503.61521	63493.9625
1506.99934	64062.5625
1510.38121	64738.0625
1513.76081	64915.2625
1517.13816	64721.7625
1520.51324	64535.4625
1523.88607	65050.9625
1527.25665	66137.0625
1530.62498	67002.6625
1533.99105	66952.3625
1537.35488	65841.0625
1540.71647	63668.1625
1544.07581	60943.7625
1547.4329	58288.9625
1550.78776	56140.5625
1554.14038	54532.9625
1557.49077	53600.1625
1560.83892	52953.5625
1564.18484	52530.5625
1567.52853	52605.8625
1570.86999	53303.5625
1574.20922	54938.5625
1577.54624	56812.6625
1580.88103	58331.9625
1584.2136	60322.6625
1587.54395	63660.0625
1590.87208	68279.9625
1594.19801	73121.6625
1597.52172	76751.1625
1600.84321	76559.3625
1604.16251	71254.1625
1607.47959	63430.6625
1610.79447	55860.9625
1614.10715	49692.4625
1617.41763	45206.8625
1620.7259	42379.8625
1624.03199	41158.2625
1627.33587	41508.5625
1630.63757	43649.8625
1633.93707	47969.6625
1637.23439	54899.2625
1640.52951	64817.9625
1643.82246	76409.7625
1647.11321	85356.3625
1650.40179	86030.7625
1653.68819	77378.8625
1656.97241	64225.4625
1660.25446	52121.9625
1663.53433	43327.8625
1666.81203	37766.2625
1670.08756	34422.9625
1673.36092	32322.3625
1676.63211	30930.0625
1679.90115	29948.5625
1683.16801	29336.8625
1686.43272	28752.0625
1689.69527	28341.0625
1692.95567	28081.9625
1696.2139	27866.9625
1699.46999	27661.2625
1702.72392	27486.8625
1705.97571	27357.1625
1709.22535	27265.9625
1712.47284	27185.7625
1715.71819	27135.5625
1718.96139	26973.4625
1722.20246	26857.7625
1725.44139	26722.8625
1728.67818	26480.5625
1731.91284	26263.8625
1735.14537	26097.0625
1738.37576	25926.7625
1741.60403	25781.9625
1744.83017	25692.1625
1748.05418	25578.7625
1751.27607	25535.0625
1754.49584	25487.7625
1757.71349	25466.7625
1760.92903	25403.5625
1764.14244	25408.5625
1767.35375	25377.5625
1770.56294	25313.7625
1773.77002	25214.0625
1776.97499	25107.9625
1780.17785	25057.1625
1783.37861	25021.4625
1786.57727	24970.5625
1789.77382	24923.2625
1792.96828	24873.5625
1796.16064	24806.9625
1799.3509	24716.2625
1802.53907	24638.7625
1805.72514	24558.5625
1808.90913	24517.1625
1812.09102	24432.4625
1815.27083	24366.7625
1818.44856	24350.2625
1821.6242	24278.2625
1824.79776	24245.9625
1827.96924	24238.9625
1831.13864	24249.3625
1834.30597	24258.3625
1837.47122	24246.8625
1840.6344	24227.8625
1843.7955	24207.6625
1846.95454	24231.7625
1850.11151	24231.7625
1853.26642	24168.4625
1856.41926	24147.5625
1859.57004	24124.6625
1862.71876	24103.9625
1865.86542	24050.3625
1869.01003	24018.2625
1872.15258	23949.3625
1875.29308	23939.3625
1878.43152	23911.1625
1881.56792	23882.9625
1884.70227	23877.5625
1887.83457	23840.3625
1890.96482	23788.2625
1894.09304	23740.0625
1897.21921	23733.6625
1900.34335	23750.0625
1903.46544	23700.2625
1906.58551	23646.2625
1909.70353	23597.4625
1912.81953	23536.6625
1915.93349	23478.9625
1919.04543	23432.2625
1922.15534	23361.1625
1925.26322	23254.7625
1928.36908	23232.8625
1931.47292	23191.1625
1934.57473	23105.7625
1937.67453	23018.9625
1940.77232	22947.2625
1943.86808	22902.2625
1946.96184	22835.1625
1950.05358	22826.1625
1953.14331	22718.3625
1956.23103	22656.7625
1959.31675	22583.4625
1962.40046	22487.2625
1965.48217	22394.0625
1968.56188	22334.7625
1971.63959	22301.5625
1974.7153	22179.4625
1977.78901	22098.8625
1980.86073	22014.8625
1983.93046	21921.5625
1986.99819	21896.3625
1990.06394	21848.8625
1993.1277	21800.7625
1996.18947	21750.4625
1999.24925	21657.3625
2002.30706	21617.3625
2005.36288	21499.2625
2008.41672	21454.2625
2011.46859	21371.7625
2014.51848	21347.2625
2017.56639	21286.5625
2020.61233	21211.1625
2023.6563	21183.9625
2026.6983	21117.3625
2029.73833	21085.3625
2032.7764	21017.7625
2035.8125	20970.6625
2038.84664	20926.8625
2041.87881	20893.5625
2044.90903	20831.0625
2047.93729	20839.7625
2050.96359	20812.9625
2053.98794	20747.0625
2057.01034	20773.1625
2060.03078	20769.8625
2063.04927	20716.9625
2066.06582	20732.5625
2069.08042	20695.8625
2072.09307	20662.2625
2075.10378	20625.1625
2078.11255	20622.7625
2081.11938	20609.2625
2084.12426	20558.6625
2087.12722	20603.8625
2090.12824	20567.5625
2093.12732	20573.9625
2096.12447	20588.8625
2099.11969	20554.8625
2102.11299	20577.4625
2105.10435	20565.1625
2108.09379	20570.4625
2111.08131	20557.7625
2114.0669	20571.6625
2117.05057	20610.9625
2120.03233	20602.0625
2123.01216	20579.8625
2125.99008	20609.6625
2128.96609	20613.2625
2131.94018	20599.0625
2134.91236	20608.5625
2137.88263	20622.3625
2140.851	20620.7625
2143.81746	20619.4625
2146.78201	20596.9625
2149.74466	20582.4625
2152.7054	20520.1625
2155.66425	20498.0625
2158.6212	20510.0625
2161.57625	20514.9625
2164.52941	20498.6625
2167.48067	20511.3625
2170.43004	20478.9625
2173.37752	20460.9625
2176.32311	20474.3625
2179.26681	20503.5625
2182.20863	20490.4625
2185.14856	20499.2625
2188.08661	20506.1625
2191.02278	20521.6625
2193.95707	20500.2625
2196.88948	20455.1625
2199.82001	20386.7625
2202.74867	20364.7625
2205.67545	20374.7625
2208.60037	20329.6625
2211.52341	20321.6625
2214.44458	20263.8625
2217.36388	20227.8625
2220.28132	20187.2625
2223.1969	20158.2625
2226.11061	20164.5625
2229.02246	20113.9625
2231.93245	20087.2625
2234.84058	20057.8625
2237.74686	20027.4625
2240.65128	20039.9625
2243.55385	19970.7625
2246.45456	19946.5625
2249.35343	19896.0625
2252.25044	19821.8625
2255.14561	19768.5625
2258.03893	19740.4625
2260.93041	19644.0625
2263.82004	19581.1625
2266.70783	19544.7625
2269.59378	19457.0625
2272.4779	19417.1625
2275.36017	19367.0625
2278.24061	19358.9625
2281.11922	19316.1625
2283.996	19259.7625
2286.87094	19231.1625
2289.74405	19285.8625
2292.61534	19230.0625
2295.4848	19174.1625
2298.35243	19192.7625
2301.21824	19175.6625
2304.08223	19210.3625
2306.94439	19194.9625
2309.80474	19201.5625
2312.66327	19213.2625
2315.51999	19192.7625
2318.37489	19119.0625
2321.22797	19079.4625
2324.07925	19090.2625
2326.92871	19083.5625
2329.77637	19042.4625
2332.62222	18978.6625
2335.46626	19029.0625
2338.3085	18992.6625
2341.14893	18996.8625
2343.98756	19011.8625
2346.8244	19015.2625
2349.65943	18972.9625
2352.49267	18990.3625
2355.32411	19016.9625
2358.15376	18956.0625
2360.98161	18950.2625
2363.80768	18964.5625
2366.63195	18946.0625
2369.45444	18955.6625
2372.27514	18844.8625
2375.09405	18840.4625
2377.91118	18812.2625
2380.72652	18748.9625
2383.54009	18735.3625
2386.35187	18709.8625
2389.16188	18669.7625
2391.97011	18624.7625
2394.77657	18630.4625
2397.58125	18573.9625
2400.38416	18587.9625
2403.18529	18556.7625
2405.98466	18538.3625
2408.78226	18486.7625
2411.57809	18472.5625
2414.37216	18478.8625
2417.16446	18473.4625
2419.955	18415.6625
2422.74378	18414.1625
2425.5308	18332.1625
2428.31606	18357.8625
2431.09956	18362.9625
2433.88131	18351.5625
2436.6613	18357.6625
2439.43954	18316.1625
2442.21603	18334.6625
2444.99077	18325.8625
2447.76377	18339.4625
2450.53501	18308.8625
2453.30451	18304.3625
2456.07226	18306.1625
2458.83827	18294.5625
2461.60254	18312.7625
2464.36507	18265.6625
2467.12586	18273.9625
2469.88492	18262.4625
2472.64224	18308.4625
2475.39782	18318.2625
2478.15167	18353.4625
2480.90379	18315.2625
2483.65417	18321.8625
2486.40283	18364.1625
2489.14976	18360.4625
2491.89497	18360.2625
2494.63845	18367.8625
2497.3802	18358.4625
2500.12024	18393.9625
2502.85855	18342.6625
2505.59514	18316.5625
2508.33002	18354.6625
2511.06318	18323.8625
2513.79462	18315.9625
2516.52435	18280.3625
2519.25237	18319.8625
2521.97867	18279.7625
2524.70327	18259.3625
2527.42616	18264.3625
2530.14734	18273.5625
2532.86681	18256.8625
2535.58458	18270.0625
2538.30065	18250.2625
2541.01501	18225.3625
2543.72768	18235.1625
2546.43864	18221.0625
2549.14791	18214.4625
2551.85548	18206.0625
2554.56136	18179.3625
2557.26554	18165.4625
2559.96803	18154.5625
2562.66883	18171.0625
2565.36794	18135.7625
2568.06536	18104.6625
2570.7611	18122.8625
2573.45514	18120.9625
2576.14751	18103.1625
2578.83819	18083.5625
2581.52719	18066.3625
2584.21451	18069.4625
2586.90015	18077.1625
2589.58411	18074.8625
2592.2664	18097.4625
2594.94701	18080.2625
2597.62594	18095.1625
2600.30321	18051.2625
2602.9788	18055.3625
2605.65273	18072.3625
2608.32498	18077.7625
2610.99557	18100.8625
2613.66449	18119.8625
2616.33175	18057.6625
2618.99734	18108.8625
2621.66128	18066.3625
2624.32355	18100.8625
2626.98416	18068.6625
2629.64311	18082.4625
2632.30041	18062.1625
2634.95605	18050.2625
2637.61004	18038.0625
2640.26238	18022.4625
2642.91306	18020.1625
2645.56209	18021.7625
2648.20948	18025.3625
2650.85521	18026.0625
2653.4993	18108.8625
2656.14175	18086.4625
2658.78255	18111.9625
2661.42171	18095.7625
2664.05923	18156.7625
2666.6951	18112.6625
2669.32934	18154.6625
2671.96194	18182.0625
2674.59291	18178.9625
2677.22224	18182.1625
2679.84993	18197.6625
2682.476	18154.3625
2685.10043	18147.1625
2687.72324	18137.3625
2690.34441	18141.9625
2692.96396	18112.6625
2695.58188	18149.6625
2698.19818	18161.5625
2700.81285	18169.5625
2703.4259	18142.3625
2706.03733	18221.3625
2708.64714	18197.1625
2711.25533	18198.6625
2713.86191	18192.1625
2716.46687	18264.0625
2719.07021	18221.0625
2721.67194	18260.1625
2724.27206	18280.9625
2726.87057	18330.6625
2729.46747	18344.5625
2732.06276	18365.2625
2734.65644	18360.7625
2737.24852	18338.0625
2739.83899	18336.2625
2742.42786	18339.5625
2745.01513	18322.7625
2747.60079	18324.4625
2750.18486	18315.0625
2752.76733	18294.4625
2755.3482	18303.5625
2757.92747	18314.3625
2760.50515	18290.0625
2763.08123	18322.0625
2765.65573	18300.7625
2768.22863	18332.3625
2770.79994	18279.5625
2773.36967	18301.2625
2775.9378	18302.8625
2778.50435	18310.7625
2781.06932	18316.1625
2783.6327	18355.1625
2786.1945	18342.4625
2788.75471	18367.6625
2791.31335	18310.6625
2793.87041	18282.9625
2796.42589	18237.4625
2798.97979	18254.4625
2801.53212	18198.0625
2804.08288	18201.2625
2806.63206	18123.7625
2809.17967	18130.0625
2811.72571	18100.7625
2814.27018	18074.3625
2816.81308	18036.1625
2819.35442	17970.7625
2821.89419	17950.0625
2824.43239	17977.9625
2826.96904	17984.8625
2829.50412	17968.6625
2832.03763	17925.6625
2834.56959	17877.4625
2837.1	17893.9625
2839.62884	17883.2625
2842.15613	17873.8625
2844.68186	17926.4625
2847.20604	17928.0625
2849.72867	17921.1625
2852.24974	17902.3625
2854.76927	17937.1625
2857.28724	17903.8625
2859.80367	17888.4625
2862.31855	17823.9625
2864.83189	17821.5625
2867.34368	17785.5625
2869.85393	17782.2625
2872.36264	17744.8625
2874.8698	17707.3625
2877.37543	17671.0625
2879.87952	17659.7625
2882.38207	17679.9625
2884.88308	17684.3625
2887.38256	17689.2625
2889.88051	17705.6625
2892.37692	17704.9625
2894.8718	17751.0625
2897.36515	17760.7625
2899.85698	17733.6625
2902.34727	17821.0625
2904.83604	17794.8625
2907.32328	17831.9625
2909.809	17809.1625
2912.29319	17853.4625
2914.77587	17810.0625
2917.25702	17879.3625
2919.73665	17875.0625
2922.21476	17810.3625
2924.69136	17829.6625
2927.16644	17815.8625
2929.64	17810.9625
2932.11205	17756.3625
2934.58258	17738.9625
2937.05161	17759.0625
2939.51912	17783.9625
2941.98513	17709.1625
2944.44962	17689.9625
2946.91261	17638.3625
2949.37409	17645.7625
2951.83407	17613.1625
2954.29254	17605.4625
2956.74951	17588.6625
2959.20498	17566.2625
2961.65895	17575.4625
2964.11142	17568.1625
2966.56239	17481.0625
2969.01186	17470.6625
2971.45984	17461.6625
2973.90632	17480.6625
2976.35131	17393.7625
2978.7948	17389.3625
2981.23681	17317.5625
2983.67732	17270.9625
2986.11635	17244.0625
2988.55388	17178.4625
2990.98993	17128.1625
2993.4245	17056.7625
2995.85758	17010.4625
2998.28917	16958.7625
3000.71928	16953.8625
3003.14791	16897.7625
3005.57506	16881.7625
3008.00073	16825.5625
3010.42493	16711.6625
3012.84764	16737.6625
3015.26888	16739.9625
3017.68865	16668.4625
3020.10694	16653.8625
3022.52376	16615.6625
3024.9391	16606.8625
3027.35298	16613.9625
3029.76539	16578.7625
3032.17632	16556.1625
3034.5858	16539.6625
3036.9938	16533.1625
3039.40034	16525.7625
3041.80542	16541.4625
3044.20903	16483.1625
3046.61118	16465.9625
3049.01187	16451.4625
3051.4111	16429.8625
3053.80888	16389.8625
3056.20519	16337.0625
3058.60005	16299.4625
3060.99345	16266.8625
3063.3854	16202.4625
3065.7759	16137.5625
3068.16494	16067.5625
3070.55254	16006.3625
3072.93868	15985.3625
3075.32338	15888.0625
3077.70662	15852.7625
3080.08842	15806.4625
3082.46878	15803.2625
3084.84769	15715.5625
3087.22515	15774.2625
3089.60118	15744.7625
3091.97576	15730.9625
3094.3489	15697.4625
3096.72061	15714.1625
3099.09087	15666.2625
3101.4597	15665.4625
3103.82709	15657.8625
3106.19305	15652.6625
3108.55757	15612.6625
3110.92066	15543.5625
3113.28232	15538.7625
3115.64255	15503.5625
3118.00134	15489.5625
3120.35871	15450.2625
3122.71466	15388.2625
3125.06917	15334.3625
3127.42226	15280.4625
3129.77393	15298.7625
3132.12417	15258.9625
3134.47299	15251.2625
3136.82039	15236.8625
3139.16636	15235.7625
3141.51092	15220.4625
3143.85406	15194.2625
3146.19579	15183.0625
3148.53609	15173.8625
3150.87499	15145.5625
3153.21246	15182.8625
3155.54853	15160.1625
3157.88318	15116.7625
3160.21642	15175.2625
3162.54826	15137.7625
3164.87868	15129.4625
3167.2077	15134.1625
3169.5353	15140.1625
3171.86151	15121.7625
3174.18631	15108.9625
3176.5097	15134.0625
3178.83169	15099.9625
3181.15228	15085.0625
3183.47147	15035.0625
3185.78926	15012.6625
3188.10565	14986.2625
3190.42065	14969.6625
3192.73424	14947.6625
3195.04645	14908.0625
3197.35725	14894.7625
3199.66667	14866.9625
3201.97469	14860.9625
3204.28132	14795.4625
3206.58656	14839.8625
3208.8904	14800.5625
3211.19287	14795.7625
3213.49394	14824.5625
3215.79363	14866.2625
3218.09193	14834.4625
3220.38884	14805.2625
3222.68438	14816.1625
3224.97853	14796.0625
3227.2713	14765.6625
3229.56269	14774.3625
3231.8527	14740.2625
3234.14133	14734.6625
3236.42858	14703.7625
3238.71446	14715.9625
3240.99896	14656.8625
3243.28209	14649.9625
3245.56384	14609.3625
3247.84423	14608.2625
3250.12324	14576.8625
3252.40088	14498.1625
3254.67715	14510.3625
3256.95205	14499.7625
3259.22558	14501.4625
3261.49775	14451.9625
3263.76855	14430.1625
3266.03799	14380.4625
3268.30606	14336.4625
3270.57277	14324.4625
3272.83812	14284.5625
3275.10211	14269.7625
3277.36474	14283.3625
3279.62601	14294.6625
3281.88593	14256.9625
3284.14448	14270.2625
3286.40168	14255.6625
3288.65753	14302.9625
3290.91202	14295.2625
3293.16516	14239.7625
3295.41695	14189.6625
3297.66738	14116.1625
3299.91647	14012.6625
3302.16421	13933.8625
3304.4106	13827.7625
3306.65564	13730.3625
3308.89933	13615.2625
3311.14169	13540.4625
3313.38269	13397.9625
3315.62236	13300.4625
3317.86068	13198.0625
3320.09766	13075.9625
3322.3333	12993.2625
3324.5676	12937.2625
3326.80056	12701.9625
3329.03219	12606.8625
3331.26248	4.5625
3333.49143	-0.7375
3335.71905	-1.1375
