Data from AgNPs_FTO_APTES_UA_5uM_CRN_100uM_R6G_10uM_NaF_0.1M_Addition_RamanShift__23__15-03-06-894.txt Node

Date: Mon Feb 07 15:03:06 GMT 2022
User: TCL
Spectrometer: QEP01345
Trigger mode: 4
Integration Time (sec): 7.000000E0
Scans to average: 10
Electric dark correction enabled: true
Nonlinearity correction enabled: false
Boxcar width: 0
XAxis mode: Raman Shifts
Number of Pixels in Spectrum: 1044
>>>>>Begin Spectral Data<<<<<
46.04893	-1.2375
50.45542	-1.1375
54.85868	-0.9375
59.25871	0.2625
63.6555	67.3625
68.04907	70.8625
72.43941	76.3625
76.82654	76.4625
81.21044	80.5625
85.59113	83.5625
89.96862	89.0625
94.34289	87.0625
98.71396	92.5625
103.08183	94.4625
107.4465	94.4625
111.80798	96.0625
116.16626	103.7625
120.52136	109.8625
124.87327	112.7625
129.222	122.1625
133.56755	130.3625
137.90993	141.6625
142.24913	155.2625
146.58517	180.7625
150.91804	211.9625
155.24774	249.9625
159.57429	318.4625
163.89768	409.4625
168.21792	553.3625
172.53501	760.0625
176.84895	1054.1625
181.15975	1495.8625
185.46741	2099.1625
189.77193	2890.9625
194.07331	3875.8625
198.37157	4981.5625
202.6667	6166.6625
206.9587	7314.8625
211.24758	8457.9625
215.53334	9598.0625
219.81599	10834.5625
224.09553	12174.2625
228.37195	13661.0625
232.64527	15242.1625
236.91549	16957.2625
241.18261	18615.9625
245.44663	20224.5625
249.70755	21698.6625
253.96539	22938.8625
258.22014	24038.9625
262.4718	24988.3625
266.72039	25676.1625
270.96589	26110.4625
275.20832	26285.6625
279.44768	26269.1625
283.68397	26226.9625
287.91719	26165.1625
292.14735	26211.1625
296.37445	26298.0625
300.59849	26384.9625
304.81948	26423.6625
309.03742	26136.8625
313.25231	25625.5625
317.46415	24868.6625
321.67296	24043.1625
325.87872	23344.9625
330.08145	22989.1625
334.28114	22947.7625
338.47781	23116.4625
342.67145	23339.7625
346.86207	23668.6625
351.04966	24130.3625
355.23424	24628.8625
359.4158	25049.1625
363.59435	25292.2625
367.76989	25492.9625
371.94243	25639.2625
376.11196	25756.1625
380.27849	25860.1625
384.44203	26040.9625
388.60257	26194.8625
392.76012	26488.9625
396.91468	26803.2625
401.06626	27215.8625
405.21485	27536.0625
409.36047	27439.0625
413.50311	27075.1625
417.64277	26753.7625
421.77947	26688.6625
425.9132	26869.5625
430.04396	27046.3625
434.17176	27324.2625
438.2966	27633.9625
442.41849	28215.7625
446.53742	29024.3625
450.6534	29993.1625
454.76644	30767.3625
458.87653	31096.6625
462.98368	30954.5625
467.08789	30660.7625
471.18916	30409.4625
475.2875	30381.7625
479.38291	30484.8625
483.4754	30406.9625
487.56496	29942.3625
491.6516	29147.2625
495.73531	28403.2625
499.81612	27930.3625
503.89401	27836.8625
507.96899	27828.9625
512.04106	27699.1625
516.11023	27483.2625
520.1765	27104.7625
524.23987	26839.7625
528.30034	26484.9625
532.35792	26323.9625
536.41261	26085.8625
540.46441	25881.6625
544.51333	25978.7625
548.55936	26384.9625
552.60252	27048.3625
556.64279	27780.0625
560.6802	28378.3625
564.71473	28858.0625
568.7464	29527.1625
572.7752	30349.1625
576.80114	30842.6625
580.82422	31087.5625
584.84444	31291.5625
588.86181	31680.4625
592.87633	32258.8625
596.888	32639.5625
600.89682	32611.1625
604.9028	33048.4625
608.90594	34876.7625
612.90624	36785.9625
616.90371	34415.5625
620.89834	29134.9625
624.89015	26945.9625
628.87913	26826.9625
632.86528	27080.9625
636.84862	27154.4625
640.82913	26749.2625
644.80683	25968.7625
648.78172	25300.8625
652.75379	25047.9625
656.72306	25212.8625
660.68952	25509.3625
664.65319	25444.1625
668.61405	25056.5625
672.57211	24942.7625
676.52738	24975.8625
680.47986	25017.7625
684.42955	24914.4625
688.37646	24865.8625
692.32058	24899.1625
696.26192	25092.8625
700.20048	25367.6625
704.13626	25581.1625
708.06928	25603.2625
711.99952	25487.8625
715.927	25360.4625
719.85171	25359.4625
723.77365	25319.0625
727.69284	25166.1625
731.60928	24932.1625
735.52295	24907.7625
739.43388	24882.4625
743.34206	24946.2625
747.24749	25028.1625
751.15017	25302.0625
755.05012	25816.0625
758.94733	26658.6625
762.8418	28048.9625
766.73354	30127.9625
770.62254	31974.0625
774.50882	32217.8625
778.39237	30544.7625
782.27321	28204.7625
786.15132	26359.6625
790.02671	25258.9625
793.89938	24758.6625
797.76935	24550.7625
801.6366	24555.7625
805.50115	24495.0625
809.36299	24445.6625
813.22213	24319.4625
817.07857	24302.6625
820.93231	24316.5625
824.78336	24184.6625
828.63172	24049.3625
832.47738	23933.6625
836.32036	23943.6625
840.16066	23943.5625
843.99827	23966.7625
847.8332	23894.9625
851.66546	23815.0625
855.49504	23774.9625
859.32195	23759.1625
863.1462	23745.9625
866.96777	23653.5625
870.78668	23603.6625
874.60293	23569.3625
878.41652	23553.6625
882.22745	23558.8625
886.03573	23653.0625
889.84136	23666.1625
893.64433	23601.7625
897.44466	23477.0625
901.24235	23365.4625
905.0374	23314.2625
908.8298	23259.7625
912.61957	23376.6625
916.40671	23614.1625
920.19121	23959.5625
923.97308	24220.3625
927.75233	24160.4625
931.52895	23953.9625
935.30295	23672.8625
939.07433	23240.5625
942.84309	22909.8625
946.60924	22691.8625
950.37278	22603.7625
954.13371	22576.6625
957.89203	22508.9625
961.64774	22514.3625
965.40086	22475.2625
969.15137	22354.0625
972.89929	22243.4625
976.64461	22065.6625
980.38733	22002.3625
984.12747	22062.5625
987.86502	22224.2625
991.59999	22471.6625
995.33237	22865.0625
999.06217	23368.3625
1002.78939	24083.2625
1006.51404	24567.4625
1010.23611	24781.5625
1013.95561	25050.6625
1017.67255	24999.0625
1021.38692	24746.0625
1025.09872	24438.8625
1028.80796	24442.0625
1032.51465	24834.8625
1036.21877	25287.9625
1039.92035	25340.7625
1043.61937	25182.0625
1047.31584	24772.4625
1051.00976	24387.5625
1054.70114	24292.5625
1058.38998	24360.6625
1062.07627	24604.9625
1065.76003	24880.7625
1069.44126	25113.6625
1073.11995	25282.4625
1076.79611	25427.5625
1080.46974	25542.8625
1084.14085	25635.6625
1087.80943	25895.1625
1091.47549	26188.8625
1095.13903	26272.5625
1098.80005	26076.0625
1102.45857	25602.6625
1106.11456	25146.7625
1109.76805	25021.1625
1113.41903	25116.6625
1117.06751	25342.3625
1120.71348	25703.2625
1124.35696	25975.2625
1127.99793	26326.0625
1131.63641	26541.1625
1135.2724	26344.7625
1138.90589	26155.4625
1142.5369	26083.2625
1146.16542	26227.7625
1149.79145	26486.5625
1153.415	26915.6625
1157.03607	27463.9625
1160.65467	28377.2625
1164.27079	29663.5625
1167.88443	31289.9625
1171.49561	33356.8625
1175.10432	35980.9625
1178.71056	39058.7625
1182.31434	41851.1625
1185.91565	43339.4625
1189.51451	43397.1625
1193.11091	42519.2625
1196.70485	41160.8625
1200.29634	39496.2625
1203.88538	38252.2625
1207.47197	37324.2625
1211.05612	36616.8625
1214.63782	35856.3625
1218.21708	35044.2625
1221.79391	34364.9625
1225.36829	33798.5625
1228.94024	33163.6625
1232.50976	32426.7625
1236.07685	31887.5625
1239.6415	31678.8625
1243.20374	31653.6625
1246.76355	31927.6625
1250.32093	32389.0625
1253.8759	33100.8625
1257.42845	34025.0625
1260.97859	34935.4625
1264.52631	35665.1625
1268.07163	36561.8625
1271.61453	37529.3625
1275.15503	38688.8625
1278.69312	40000.8625
1282.22882	41241.2625
1285.76211	42501.3625
1289.29301	44153.2625
1292.82151	46343.1625
1296.34761	49108.9625
1299.87133	52299.8625
1303.39266	55662.6625
1306.9116	58958.4625
1310.42815	61899.0625
1313.94233	63726.4625
1317.45412	64130.2625
1320.96354	63662.7625
1324.47058	63046.9625
1327.97525	62472.9625
1331.47754	62038.8625
1334.97747	61802.5625
1338.47502	61795.7625
1341.97022	61564.3625
1345.46305	60552.5625
1348.95352	58888.2625
1352.44163	57092.3625
1355.92738	56369.9625
1359.41078	57080.0625
1362.89183	58209.0625
1366.37053	57042.3625
1369.84688	52840.1625
1373.32088	47932.9625
1376.79254	44697.8625
1380.26186	43666.0625
1383.72883	44083.0625
1387.19347	44792.8625
1390.65578	45286.2625
1394.11575	45859.1625
1397.57339	47075.5625
1401.0287	48575.2625
1404.48168	49851.2625
1407.93234	50208.6625
1411.38068	49335.3625
1414.82669	47290.2625
1418.27039	44574.9625
1421.71177	41733.9625
1425.15083	39382.9625
1428.58758	38052.5625
1432.02203	37883.8625
1435.45416	38704.1625
1438.88399	39934.9625
1442.31151	41246.9625
1445.73673	42360.7625
1449.15965	43512.9625
1452.58027	44534.2625
1455.9986	45170.1625
1459.41463	45756.5625
1462.82837	46472.8625
1466.23982	47149.4625
1469.64898	47626.4625
1473.05586	47731.7625
1476.46045	47378.2625
1479.86276	46678.0625
1483.26279	45728.3625
1486.66054	44945.3625
1490.05602	44528.0625
1493.44922	44303.4625
1496.84016	44072.9625
1500.22882	44214.6625
1503.61521	44837.3625
1506.99934	45998.1625
1510.38121	47261.8625
1513.76081	47867.1625
1517.13816	47292.0625
1520.51324	46046.8625
1523.88607	44860.1625
1527.25665	44326.3625
1530.62498	44312.0625
1533.99105	44446.6625
1537.35488	44425.4625
1540.71647	44083.4625
1544.07581	43345.1625
1547.4329	42358.2625
1550.78776	41364.3625
1554.14038	40611.7625
1557.49077	40270.7625
1560.83892	40175.3625
1564.18484	40118.4625
1567.52853	40179.0625
1570.86999	40346.8625
1574.20922	40968.8625
1577.54624	41748.6625
1580.88103	42337.3625
1584.2136	43135.2625
1587.54395	44639.6625
1590.87208	47004.0625
1594.19801	49665.0625
1597.52172	52158.6625
1600.84321	52700.8625
1604.16251	50438.4625
1607.47959	46378.9625
1610.79447	41989.8625
1614.10715	37996.9625
1617.41763	34741.4625
1620.7259	32470.8625
1624.03199	31288.4625
1627.33587	31129.1625
1630.63757	32043.7625
1633.93707	34172.3625
1637.23439	37715.3625
1640.52951	42520.5625
1643.82246	47969.1625
1647.11321	52125.3625
1650.40179	53026.7625
1653.68819	49511.8625
1656.97241	43237.6625
1660.25446	36722.0625
1663.53433	31589.3625
1666.81203	28132.6625
1670.08756	25897.0625
1673.36092	24559.0625
1676.63211	23655.6625
1679.90115	23041.8625
1683.16801	22570.1625
1686.43272	22179.7625
1689.69527	21975.6625
1692.95567	21712.4625
1696.2139	21610.3625
1699.46999	21472.6625
1702.72392	21347.2625
1705.97571	21294.7625
1709.22535	21216.2625
1712.47284	21152.8625
1715.71819	21067.4625
1718.96139	20984.3625
1722.20246	20957.7625
1725.44139	20834.9625
1728.67818	20673.7625
1731.91284	20574.3625
1735.14537	20468.2625
1738.37576	20375.9625
1741.60403	20287.3625
1744.83017	20220.5625
1748.05418	20200.3625
1751.27607	20191.2625
1754.49584	20119.1625
1757.71349	20109.6625
1760.92903	20072.7625
1764.14244	20052.3625
1767.35375	20049.9625
1770.56294	19977.7625
1773.77002	19941.3625
1776.97499	19877.7625
1780.17785	19815.0625
1783.37861	19820.1625
1786.57727	19794.3625
1789.77382	19771.4625
1792.96828	19751.0625
1796.16064	19663.1625
1799.3509	19651.4625
1802.53907	19563.0625
1805.72514	19485.4625
1808.90913	19449.2625
1812.09102	19415.5625
1815.27083	19373.2625
1818.44856	19372.3625
1821.6242	19325.7625
1824.79776	19293.9625
1827.96924	19267.8625
1831.13864	19246.1625
1834.30597	19279.5625
1837.47122	19220.5625
1840.6344	19195.5625
1843.7955	19211.8625
1846.95454	19183.5625
1850.11151	19205.7625
1853.26642	19223.6625
1856.41926	19221.8625
1859.57004	19182.5625
1862.71876	19224.0625
1865.86542	19163.4625
1869.01003	19170.1625
1872.15258	19158.7625
1875.29308	19120.3625
1878.43152	19135.7625
1881.56792	19125.6625
1884.70227	19100.7625
1887.83457	19100.8625
1890.96482	19092.8625
1894.09304	19065.7625
1897.21921	19067.9625
1900.34335	19049.5625
1903.46544	19015.6625
1906.58551	19044.7625
1909.70353	19044.7625
1912.81953	19003.1625
1915.93349	18946.0625
1919.04543	18923.1625
1922.15534	18868.8625
1925.26322	18850.5625
1928.36908	18789.7625
1931.47292	18722.6625
1934.57473	18687.9625
1937.67453	18640.7625
1940.77232	18586.9625
1943.86808	18510.8625
1946.96184	18445.9625
1950.05358	18392.8625
1953.14331	18340.9625
1956.23103	18272.7625
1959.31675	18197.5625
1962.40046	18176.6625
1965.48217	18124.9625
1968.56188	18073.6625
1971.63959	17987.9625
1974.7153	17945.1625
1977.78901	17898.3625
1980.86073	17831.4625
1983.93046	17771.4625
1986.99819	17711.6625
1990.06394	17659.1625
1993.1277	17620.6625
1996.18947	17566.4625
1999.24925	17509.8625
2002.30706	17448.4625
2005.36288	17412.4625
2008.41672	17405.1625
2011.46859	17304.0625
2014.51848	17271.2625
2017.56639	17243.6625
2020.61233	17192.6625
2023.6563	17171.0625
2026.6983	17075.1625
2029.73833	17049.0625
2032.7764	17031.8625
2035.8125	17010.7625
2038.84664	16967.6625
2041.87881	16943.0625
2044.90903	16921.5625
2047.93729	16906.3625
2050.96359	16879.7625
2053.98794	16861.8625
2057.01034	16858.4625
2060.03078	16865.0625
2063.04927	16834.1625
2066.06582	16849.8625
2069.08042	16820.8625
2072.09307	16798.2625
2075.10378	16778.9625
2078.11255	16743.3625
2081.11938	16750.8625
2084.12426	16729.6625
2087.12722	16737.3625
2090.12824	16698.0625
2093.12732	16679.1625
2096.12447	16705.3625
2099.11969	16682.4625
2102.11299	16668.6625
2105.10435	16677.4625
2108.09379	16660.7625
2111.08131	16683.2625
2114.0669	16699.1625
2117.05057	16700.2625
2120.03233	16745.0625
2123.01216	16751.4625
2125.99008	16717.9625
2128.96609	16746.8625
2131.94018	16762.8625
2134.91236	16768.3625
2137.88263	16808.0625
2140.851	16786.7625
2143.81746	16827.8625
2146.78201	16801.5625
2149.74466	16821.3625
2152.7054	16790.7625
2155.66425	16764.5625
2158.6212	16729.0625
2161.57625	16721.9625
2164.52941	16743.2625
2167.48067	16747.4625
2170.43004	16711.8625
2173.37752	16708.1625
2176.32311	16709.7625
2179.26681	16726.2625
2182.20863	16715.6625
2185.14856	16729.0625
2188.08661	16701.4625
2191.02278	16723.7625
2193.95707	16719.1625
2196.88948	16732.7625
2199.82001	16673.5625
2202.74867	16681.9625
2205.67545	16657.0625
2208.60037	16633.8625
2211.52341	16627.2625
2214.44458	16659.0625
2217.36388	16601.0625
2220.28132	16598.6625
2223.1969	16546.5625
2226.11061	16479.0625
2229.02246	16488.6625
2231.93245	16448.9625
2234.84058	16400.2625
2237.74686	16350.9625
2240.65128	16331.0625
2243.55385	16327.3625
2246.45456	16289.6625
2249.35343	16267.4625
2252.25044	16256.9625
2255.14561	16237.1625
2258.03893	16200.3625
2260.93041	16158.2625
2263.82004	16118.9625
2266.70783	16076.6625
2269.59378	15997.4625
2272.4779	15964.4625
2275.36017	15947.8625
2278.24061	15891.1625
2281.11922	15897.3625
2283.996	15873.9625
2286.87094	15845.7625
2289.74405	15851.4625
2292.61534	15827.0625
2295.4848	15776.8625
2298.35243	15806.9625
2301.21824	15796.6625
2304.08223	15804.3625
2306.94439	15776.5625
2309.80474	15799.2625
2312.66327	15808.0625
2315.51999	15809.7625
2318.37489	15828.7625
2321.22797	15760.7625
2324.07925	15760.3625
2326.92871	15737.8625
2329.77637	15690.3625
2332.62222	15676.4625
2335.46626	15684.4625
2338.3085	15706.2625
2341.14893	15681.1625
2343.98756	15709.2625
2346.8244	15721.2625
2349.65943	15715.0625
2352.49267	15706.2625
2355.32411	15700.7625
2358.15376	15661.4625
2360.98161	15615.3625
2363.80768	15650.9625
2366.63195	15642.3625
2369.45444	15632.6625
2372.27514	15609.1625
2375.09405	15571.8625
2377.91118	15513.6625
2380.72652	15506.4625
2383.54009	15472.9625
2386.35187	15441.4625
2389.16188	15419.3625
2391.97011	15376.7625
2394.77657	15343.5625
2397.58125	15317.9625
2400.38416	15305.4625
2403.18529	15295.5625
2405.98466	15238.7625
2408.78226	15239.3625
2411.57809	15205.6625
2414.37216	15168.8625
2417.16446	15206.2625
2419.955	15183.1625
2422.74378	15152.7625
2425.5308	15084.9625
2428.31606	15135.5625
2431.09956	15115.3625
2433.88131	15117.0625
2436.6613	15107.8625
2439.43954	15101.5625
2442.21603	15093.0625
2444.99077	15061.6625
2447.76377	15096.1625
2450.53501	15044.4625
2453.30451	15068.0625
2456.07226	15055.7625
2458.83827	15064.7625
2461.60254	15042.3625
2464.36507	15045.1625
2467.12586	15049.2625
2469.88492	15046.3625
2472.64224	15057.7625
2475.39782	15058.5625
2478.15167	15068.9625
2480.90379	15055.7625
2483.65417	15061.4625
2486.40283	15111.7625
2489.14976	15105.1625
2491.89497	15117.1625
2494.63845	15149.9625
2497.3802	15104.3625
2500.12024	15156.3625
2502.85855	15101.3625
2505.59514	15142.4625
2508.33002	15100.0625
2511.06318	15074.7625
2513.79462	15035.2625
2516.52435	15071.8625
2519.25237	15081.1625
2521.97867	15046.3625
2524.70327	14989.9625
2527.42616	15011.0625
2530.14734	15008.0625
2532.86681	15019.1625
2535.58458	15032.6625
2538.30065	14996.1625
2541.01501	15007.1625
2543.72768	14992.0625
2546.43864	14963.8625
2549.14791	14937.2625
2551.85548	14934.6625
2554.56136	14940.7625
2557.26554	14893.8625
2559.96803	14898.7625
2562.66883	14877.9625
2565.36794	14822.3625
2568.06536	14831.0625
2570.7611	14824.6625
2573.45514	14838.3625
2576.14751	14808.9625
2578.83819	14788.1625
2581.52719	14822.8625
2584.21451	14842.4625
2586.90015	14848.6625
2589.58411	14823.0625
2592.2664	14816.9625
2594.94701	14792.1625
2597.62594	14813.6625
2600.30321	14798.7625
2602.9788	14746.2625
2605.65273	14775.0625
2608.32498	14771.9625
2610.99557	14767.3625
2613.66449	14797.2625
2616.33175	14790.1625
2618.99734	14821.8625
2621.66128	14818.5625
2624.32355	14776.2625
2626.98416	14791.5625
2629.64311	14774.4625
2632.30041	14788.7625
2634.95605	14814.8625
2637.61004	14771.7625
2640.26238	14760.4625
2642.91306	14755.5625
2645.56209	14723.0625
2648.20948	14737.1625
2650.85521	14771.6625
2653.4993	14752.3625
2656.14175	14767.4625
2658.78255	14767.3625
2661.42171	14763.1625
2664.05923	14823.2625
2666.6951	14800.4625
2669.32934	14833.3625
2671.96194	14834.3625
2674.59291	14816.9625
2677.22224	14802.9625
2679.84993	14832.3625
2682.476	14798.9625
2685.10043	14781.8625
2687.72324	14758.0625
2690.34441	14739.3625
2692.96396	14724.0625
2695.58188	14734.5625
2698.19818	14753.2625
2700.81285	14775.1625
2703.4259	14813.5625
2706.03733	14844.3625
2708.64714	14821.9625
2711.25533	14821.7625
2713.86191	14831.3625
2716.46687	14858.0625
2719.07021	14846.9625
2721.67194	14858.4625
2724.27206	14862.3625
2726.87057	14876.3625
2729.46747	14862.4625
2732.06276	14920.2625
2734.65644	14885.9625
2737.24852	14889.9625
2739.83899	14882.9625
2742.42786	14877.7625
2745.01513	14847.4625
2747.60079	14848.4625
2750.18486	14833.8625
2752.76733	14848.4625
2755.3482	14819.3625
2757.92747	14862.9625
2760.50515	14848.7625
2763.08123	14859.8625
2765.65573	14862.9625
2768.22863	14852.9625
2770.79994	14851.5625
2773.36967	14894.1625
2775.9378	14859.8625
2778.50435	14867.0625
2781.06932	14878.1625
2783.6327	14902.9625
2786.1945	14898.2625
2788.75471	14868.1625
2791.31335	14850.3625
2793.87041	14851.4625
2796.42589	14827.5625
2798.97979	14802.5625
2801.53212	14775.5625
2804.08288	14731.9625
2806.63206	14720.2625
2809.17967	14668.7625
2811.72571	14670.7625
2814.27018	14624.9625
2816.81308	14593.3625
2819.35442	14585.1625
2821.89419	14546.8625
2824.43239	14566.3625
2826.96904	14537.3625
2829.50412	14523.4625
2832.03763	14478.3625
2834.56959	14483.4625
2837.1	14488.8625
2839.62884	14497.3625
2842.15613	14480.8625
2844.68186	14529.4625
2847.20604	14531.4625
2849.72867	14530.3625
2852.24974	14529.6625
2854.76927	14552.9625
2857.28724	14542.7625
2859.80367	14504.0625
2862.31855	14463.2625
2864.83189	14450.7625
2867.34368	14428.7625
2869.85393	14476.2625
2872.36264	14438.7625
2874.8698	14387.8625
2877.37543	14414.4625
2879.87952	14413.3625
2882.38207	14423.9625
2884.88308	14410.5625
2887.38256	14440.4625
2889.88051	14464.8625
2892.37692	14479.6625
2894.8718	14460.4625
2897.36515	14471.0625
2899.85698	14478.2625
2902.34727	14516.0625
2904.83604	14534.5625
2907.32328	14572.6625
2909.809	14562.6625
2912.29319	14575.9625
2914.77587	14571.5625
2917.25702	14567.5625
2919.73665	14571.9625
2922.21476	14583.3625
2924.69136	14533.6625
2927.16644	14558.1625
2929.64	14535.2625
2932.11205	14499.5625
2934.58258	14462.9625
2937.05161	14477.8625
2939.51912	14476.2625
2941.98513	14497.2625
2944.44962	14435.2625
2946.91261	14366.4625
2949.37409	14390.0625
2951.83407	14347.7625
2954.29254	14343.7625
2956.74951	14315.3625
2959.20498	14297.9625
2961.65895	14273.7625
2964.11142	14283.5625
2966.56239	14255.3625
2969.01186	14233.4625
2971.45984	14206.2625
2973.90632	14201.8625
2976.35131	14151.2625
2978.7948	14156.5625
2981.23681	14129.2625
2983.67732	14085.7625
2986.11635	14026.2625
2988.55388	13983.6625
2990.98993	13981.7625
2993.4245	13937.3625
2995.85758	13887.7625
2998.28917	13813.7625
3000.71928	13826.9625
3003.14791	13772.3625
3005.57506	13763.3625
3008.00073	13695.1625
3010.42493	13605.2625
3012.84764	13671.3625
3015.26888	13650.6625
3017.68865	13623.0625
3020.10694	13609.6625
3022.52376	13565.9625
3024.9391	13575.2625
3027.35298	13541.8625
3029.76539	13542.3625
3032.17632	13523.3625
3034.5858	13491.8625
3036.9938	13517.2625
3039.40034	13493.1625
3041.80542	13521.2625
3044.20903	13459.8625
3046.61118	13492.4625
3049.01187	13434.0625
3051.4111	13451.8625
3053.80888	13436.4625
3056.20519	13374.5625
3058.60005	13347.6625
3060.99345	13329.6625
3063.3854	13252.2625
3065.7759	13213.2625
3068.16494	13185.1625
3070.55254	13113.2625
3072.93868	13091.1625
3075.32338	13063.4625
3077.70662	13011.4625
3080.08842	12994.2625
3082.46878	12987.8625
3084.84769	12939.8625
3087.22515	12937.7625
3089.60118	12920.9625
3091.97576	12923.7625
3094.3489	12923.0625
3096.72061	12921.0625
3099.09087	12891.4625
3101.4597	12895.7625
3103.82709	12886.2625
3106.19305	12887.3625
3108.55757	12855.3625
3110.92066	12829.3625
3113.28232	12811.3625
3115.64255	12762.7625
3118.00134	12763.9625
3120.35871	12716.5625
3122.71466	12700.5625
3125.06917	12680.8625
3127.42226	12621.4625
3129.77393	12617.4625
3132.12417	12563.0625
3134.47299	12583.9625
3136.82039	12569.5625
3139.16636	12555.8625
3141.51092	12555.2625
3143.85406	12566.4625
3146.19579	12553.3625
3148.53609	12559.7625
3150.87499	12543.4625
3153.21246	12544.5625
3155.54853	12537.0625
3157.88318	12516.3625
3160.21642	12526.1625
3162.54826	12569.0625
3164.87868	12531.0625
3167.2077	12555.7625
3169.5353	12572.5625
3171.86151	12538.5625
3174.18631	12538.5625
3176.5097	12536.6625
3178.83169	12514.2625
3181.15228	12508.0625
3183.47147	12485.3625
3185.78926	12490.6625
3188.10565	12459.1625
3190.42065	12450.4625
3192.73424	12437.3625
3195.04645	12426.7625
3197.35725	12406.5625
3199.66667	12387.5625
3201.97469	12430.1625
3204.28132	12414.2625
3206.58656	12449.6625
3208.8904	12437.6625
3211.19287	12421.4625
3213.49394	12435.3625
3215.79363	12446.6625
3218.09193	12414.9625
3220.38884	12416.8625
3222.68438	12449.1625
3224.97853	12430.4625
3227.2713	12422.4625
3229.56269	12366.4625
3231.8527	12392.3625
3234.14133	12345.3625
3236.42858	12319.1625
3238.71446	12313.7625
3240.99896	12295.2625
3243.28209	12293.0625
3245.56384	12258.4625
3247.84423	12247.6625
3250.12324	12215.5625
3252.40088	12226.5625
3254.67715	12222.2625
3256.95205	12211.3625
3259.22558	12208.7625
3261.49775	12158.6625
3263.76855	12157.0625
3266.03799	12126.6625
3268.30606	12104.6625
3270.57277	12080.7625
3272.83812	12037.8625
3275.10211	12012.9625
3277.36474	12000.2625
3279.62601	11970.8625
3281.88593	11958.9625
3284.14448	11986.8625
3286.40168	12005.9625
3288.65753	11993.7625
3290.91202	11977.1625
3293.16516	11949.8625
3295.41695	11927.9625
3297.66738	11834.9625
3299.91647	11773.3625
3302.16421	11701.2625
3304.4106	11651.9625
3306.65564	11587.1625
3308.89933	11492.1625
3311.14169	11419.7625
3313.38269	11361.4625
3315.62236	11260.6625
3317.86068	11167.4625
3320.09766	11067.3625
3322.3333	10992.7625
3324.5676	10962.9625
3326.80056	10800.2625
3329.03219	10714.2625
3331.26248	5.2625
3333.49143	-1.4375
3335.71905	-1.1375
