Data from AgNPs_FTO_APTES_UA_5uM_CRN_500uM_R6G_10uM_NaF_0.1M_Addition_RamanShift__1__16-41-51-810.txt Node

Date: Mon Feb 07 16:41:51 GMT 2022
User: TCL
Spectrometer: QEP01345
Trigger mode: 4
Integration Time (sec): 7.000000E0
Scans to average: 10
Electric dark correction enabled: true
Nonlinearity correction enabled: false
Boxcar width: 0
XAxis mode: Raman Shifts
Number of Pixels in Spectrum: 1044
>>>>>Begin Spectral Data<<<<<
46.04893	-0.4375
50.45542	-0.3375
54.85868	-0.4375
59.25871	-0.7375
63.6555	66.9625
68.04907	72.3625
72.43941	77.9625
76.82654	76.3625
81.21044	85.1625
85.59113	81.6625
89.96862	88.1625
94.34289	90.0625
98.71396	88.7625
103.08183	95.8625
107.4465	98.8625
111.80798	103.1625
116.16626	103.4625
120.52136	108.2625
124.87327	114.0625
129.222	122.9625
133.56755	129.2625
137.90993	143.1625
142.24913	159.6625
146.58517	174.8625
150.91804	207.3625
155.24774	255.1625
159.57429	317.9625
163.89768	413.0625
168.21792	556.8625
172.53501	755.8625
176.84895	1056.3625
181.15975	1494.0625
185.46741	2089.7625
189.77193	2881.4625
194.07331	3879.1625
198.37157	4988.7625
202.6667	6170.2625
206.9587	7324.1625
211.24758	8485.8625
215.53334	9640.5625
219.81599	10865.3625
224.09553	12232.1625
228.37195	13703.7625
232.64527	15292.6625
236.91549	16981.5625
241.18261	18643.6625
245.44663	20211.7625
249.70755	21609.8625
253.96539	22840.1625
258.22014	23890.1625
262.4718	24659.7625
266.72039	25268.5625
270.96589	25638.6625
275.20832	25721.6625
279.44768	25593.9625
283.68397	25385.6625
287.91719	25209.2625
292.14735	25200.8625
296.37445	25251.5625
300.59849	25408.2625
304.81948	25610.5625
309.03742	25645.6625
313.25231	25452.3625
317.46415	24913.1625
321.67296	24204.8625
325.87872	23558.7625
330.08145	23230.3625
334.28114	23157.1625
338.47781	23267.7625
342.67145	23500.8625
346.86207	23862.7625
351.04966	24312.6625
355.23424	24724.9625
359.4158	25095.2625
363.59435	25305.4625
367.76989	25490.5625
371.94243	25649.0625
376.11196	25740.4625
380.27849	25787.7625
384.44203	25964.8625
388.60257	26214.2625
392.76012	26487.7625
396.91468	26803.4625
401.06626	27173.4625
405.21485	27438.1625
409.36047	27301.2625
413.50311	26841.2625
417.64277	26494.0625
421.77947	26472.7625
425.9132	26472.9625
430.04396	26604.6625
434.17176	26779.2625
438.2966	27083.1625
442.41849	27595.3625
446.53742	28444.2625
450.6534	29374.2625
454.76644	29913.0625
458.87653	30085.9625
462.98368	29900.9625
467.08789	29609.7625
471.18916	29334.4625
475.2875	29164.1625
479.38291	29115.3625
483.4754	29067.9625
487.56496	28635.8625
491.6516	27948.3625
495.73531	27219.9625
499.81612	26792.5625
503.89401	26742.9625
507.96899	26766.3625
512.04106	26730.6625
516.11023	26568.9625
520.1765	26379.6625
524.23987	26182.9625
528.30034	25959.4625
532.35792	25742.7625
536.41261	25457.2625
540.46441	25151.5625
544.51333	25162.5625
548.55936	25445.1625
552.60252	26106.0625
556.64279	26950.8625
560.6802	27655.3625
564.71473	28062.4625
568.7464	28702.1625
572.7752	29704.7625
576.80114	30468.8625
580.82422	31079.0625
584.84444	31805.3625
588.86181	33032.7625
592.87633	34080.7625
596.888	33832.1625
600.89682	32380.1625
604.9028	31691.0625
608.90594	33286.5625
612.90624	35601.4625
616.90371	33562.9625
620.89834	28147.6625
624.89015	25695.1625
628.87913	25384.5625
632.86528	25570.1625
636.84862	25652.6625
640.82913	25255.5625
644.80683	24668.9625
648.78172	24308.4625
652.75379	24234.7625
656.72306	24466.0625
660.68952	24834.6625
664.65319	24605.2625
668.61405	24185.7625
672.57211	24100.4625
676.52738	24146.0625
680.47986	24204.9625
684.42955	24048.5625
688.37646	23957.9625
692.32058	24012.8625
696.26192	24285.4625
700.20048	24580.6625
704.13626	24799.6625
708.06928	24902.6625
711.99952	24837.1625
715.927	24835.7625
719.85171	24922.1625
723.77365	24820.2625
727.69284	24499.2625
731.60928	24208.9625
735.52295	24097.8625
739.43388	24126.4625
743.34206	24180.9625
747.24749	24299.9625
751.15017	24565.4625
755.05012	25017.8625
758.94733	25744.5625
762.8418	27104.0625
766.73354	29090.8625
770.62254	30966.1625
774.50882	31337.5625
778.39237	30023.2625
782.27321	27807.0625
786.15132	25888.9625
790.02671	24751.5625
793.89938	24169.1625
797.76935	23928.2625
801.6366	23832.3625
805.50115	23729.6625
809.36299	23636.6625
813.22213	23521.2625
817.07857	23531.9625
820.93231	23432.3625
824.78336	23316.3625
828.63172	23186.0625
832.47738	23106.8625
836.32036	23062.2625
840.16066	23056.3625
843.99827	23057.3625
847.8332	23028.5625
851.66546	22987.6625
855.49504	22986.1625
859.32195	22994.1625
863.1462	22888.1625
866.96777	22842.1625
870.78668	22778.8625
874.60293	22798.7625
878.41652	22807.6625
882.22745	22896.6625
886.03573	22935.4625
889.84136	22896.6625
893.64433	22839.8625
897.44466	22812.5625
901.24235	22711.1625
905.0374	22675.9625
908.8298	22564.8625
912.61957	22642.3625
916.40671	22924.0625
920.19121	23258.2625
923.97308	23481.9625
927.75233	23422.1625
931.52895	23192.0625
935.30295	22790.4625
939.07433	22337.3625
942.84309	22021.1625
946.60924	21807.3625
950.37278	21728.8625
954.13371	21730.5625
957.89203	21730.8625
961.64774	21731.0625
965.40086	21653.7625
969.15137	21609.0625
972.89929	21464.3625
976.64461	21363.2625
980.38733	21302.7625
984.12747	21277.6625
987.86502	21409.9625
991.59999	21528.0625
995.33237	21708.6625
999.06217	21987.8625
1002.78939	22407.7625
1006.51404	22809.3625
1010.23611	23195.1625
1013.95561	23440.9625
1017.67255	23549.0625
1021.38692	23364.5625
1025.09872	22942.6625
1028.80796	22601.8625
1032.51465	22563.3625
1036.21877	22685.9625
1039.92035	22813.8625
1043.61937	22860.4625
1047.31584	22858.1625
1051.00976	22907.6625
1054.70114	22894.1625
1058.38998	23017.0625
1062.07627	23284.2625
1065.76003	23553.2625
1069.44126	23789.7625
1073.11995	24058.4625
1076.79611	24319.5625
1080.46974	24511.4625
1084.14085	24644.5625
1087.80943	24876.3625
1091.47549	25132.7625
1095.13903	25264.1625
1098.80005	25006.5625
1102.45857	24437.2625
1106.11456	23982.8625
1109.76805	23738.6625
1113.41903	23806.7625
1117.06751	24030.5625
1120.71348	24398.0625
1124.35696	24766.2625
1127.99793	25230.8625
1131.63641	25470.9625
1135.2724	25224.5625
1138.90589	25012.0625
1142.5369	24962.4625
1146.16542	25218.7625
1149.79145	25561.1625
1153.415	25941.4625
1157.03607	26461.5625
1160.65467	27330.6625
1164.27079	28618.6625
1167.88443	30321.8625
1171.49561	32131.6625
1175.10432	34392.6625
1178.71056	37351.9625
1182.31434	39888.7625
1185.91565	41006.7625
1189.51451	40584.3625
1193.11091	39281.0625
1196.70485	37760.4625
1200.29634	36321.2625
1203.88538	35386.9625
1207.47197	34854.4625
1211.05612	34333.9625
1214.63782	33682.9625
1218.21708	32680.0625
1221.79391	31676.9625
1225.36829	31056.2625
1228.94024	30555.7625
1232.50976	30039.2625
1236.07685	29557.9625
1239.6415	29203.6625
1243.20374	29211.4625
1246.76355	29450.5625
1250.32093	29798.3625
1253.8759	30306.0625
1257.42845	31075.1625
1260.97859	31931.0625
1264.52631	32748.1625
1268.07163	33592.6625
1271.61453	34499.6625
1275.15503	35479.5625
1278.69312	36622.8625
1282.22882	37921.5625
1285.76211	39570.8625
1289.29301	41667.6625
1292.82151	44206.8625
1296.34761	47171.6625
1299.87133	50247.6625
1303.39266	53415.4625
1306.9116	56131.5625
1310.42815	58330.7625
1313.94233	59581.3625
1317.45412	59252.1625
1320.96354	58197.9625
1324.47058	57120.7625
1327.97525	56077.4625
1331.47754	55201.3625
1334.97747	54545.9625
1338.47502	53692.1625
1341.97022	52716.1625
1345.46305	51841.2625
1348.95352	51305.0625
1352.44163	51337.4625
1355.92738	52641.0625
1359.41078	55050.4625
1362.89183	56944.5625
1366.37053	55930.7625
1369.84688	51127.7625
1373.32088	45349.4625
1376.79254	41632.4625
1380.26186	40574.6625
1383.72883	40907.4625
1387.19347	41216.9625
1390.65578	41221.8625
1394.11575	41346.3625
1397.57339	41978.0625
1401.0287	42809.2625
1404.48168	43159.6625
1407.93234	42758.8625
1411.38068	41415.6625
1414.82669	39554.5625
1418.27039	37406.1625
1421.71177	35440.8625
1425.15083	33844.1625
1428.58758	33029.3625
1432.02203	33280.1625
1435.45416	34233.1625
1438.88399	35412.0625
1442.31151	36340.1625
1445.73673	36911.0625
1449.15965	37423.8625
1452.58027	37790.7625
1455.9986	38009.4625
1459.41463	38228.1625
1462.82837	38641.1625
1466.23982	39104.2625
1469.64898	39627.7625
1473.05586	39804.3625
1476.46045	39730.5625
1479.86276	39367.9625
1483.26279	38942.4625
1486.66054	38568.1625
1490.05602	38714.9625
1493.44922	39128.0625
1496.84016	39791.3625
1500.22882	40794.8625
1503.61521	42318.4625
1506.99934	44090.1625
1510.38121	45647.8625
1513.76081	45985.3625
1517.13816	45055.8625
1520.51324	43278.5625
1523.88607	42053.1625
1527.25665	41576.2625
1530.62498	41577.6625
1533.99105	41454.5625
1537.35488	40909.0625
1540.71647	39919.8625
1544.07581	38563.6625
1547.4329	37249.3625
1550.78776	36069.6625
1554.14038	35241.7625
1557.49077	34833.4625
1560.83892	34657.7625
1564.18484	34748.3625
1567.52853	35073.3625
1570.86999	35683.0625
1574.20922	36644.8625
1577.54624	37615.8625
1580.88103	37980.6625
1584.2136	38358.5625
1587.54395	39450.0625
1590.87208	41241.3625
1594.19801	43432.1625
1597.52172	45404.9625
1600.84321	45821.0625
1604.16251	43673.5625
1607.47959	39871.8625
1610.79447	35885.1625
1614.10715	32464.8625
1617.41763	29831.0625
1620.7259	28138.2625
1624.03199	27367.3625
1627.33587	27467.5625
1630.63757	28492.9625
1633.93707	30500.4625
1637.23439	33841.5625
1640.52951	38865.0625
1643.82246	44906.0625
1647.11321	49963.3625
1650.40179	51159.7625
1653.68819	47425.7625
1656.97241	40499.0625
1660.25446	33748.0625
1663.53433	28774.5625
1666.81203	25537.0625
1670.08756	23513.0625
1673.36092	22275.5625
1676.63211	21524.8625
1679.90115	20970.6625
1683.16801	20570.5625
1686.43272	20257.3625
1689.69527	20027.2625
1692.95567	19834.5625
1696.2139	19679.8625
1699.46999	19564.1625
1702.72392	19458.4625
1705.97571	19387.8625
1709.22535	19340.2625
1712.47284	19282.2625
1715.71819	19244.5625
1718.96139	19197.9625
1722.20246	19136.7625
1725.44139	19028.4625
1728.67818	18895.0625
1731.91284	18800.6625
1735.14537	18654.3625
1738.37576	18587.4625
1741.60403	18492.4625
1744.83017	18441.0625
1748.05418	18363.8625
1751.27607	18348.4625
1754.49584	18299.1625
1757.71349	18281.4625
1760.92903	18261.7625
1764.14244	18245.9625
1767.35375	18241.4625
1770.56294	18168.0625
1773.77002	18080.5625
1776.97499	18049.0625
1780.17785	17992.4625
1783.37861	17944.9625
1786.57727	17941.1625
1789.77382	17887.9625
1792.96828	17860.0625
1796.16064	17799.1625
1799.3509	17775.7625
1802.53907	17711.6625
1805.72514	17681.0625
1808.90913	17600.0625
1812.09102	17582.3625
1815.27083	17509.4625
1818.44856	17455.1625
1821.6242	17429.0625
1824.79776	17404.7625
1827.96924	17386.8625
1831.13864	17382.6625
1834.30597	17349.1625
1837.47122	17365.0625
1840.6344	17333.9625
1843.7955	17312.3625
1846.95454	17298.5625
1850.11151	17266.8625
1853.26642	17220.0625
1856.41926	17239.4625
1859.57004	17210.7625
1862.71876	17198.6625
1865.86542	17162.2625
1869.01003	17145.0625
1872.15258	17121.4625
1875.29308	17108.7625
1878.43152	17076.7625
1881.56792	17069.9625
1884.70227	17056.7625
1887.83457	17035.1625
1890.96482	16976.3625
1894.09304	16953.0625
1897.21921	16935.7625
1900.34335	16890.7625
1903.46544	16868.7625
1906.58551	16861.6625
1909.70353	16814.0625
1912.81953	16783.8625
1915.93349	16746.5625
1919.04543	16715.5625
1922.15534	16681.9625
1925.26322	16618.9625
1928.36908	16610.1625
1931.47292	16573.1625
1934.57473	16521.7625
1937.67453	16530.2625
1940.77232	16426.0625
1943.86808	16382.0625
1946.96184	16323.2625
1950.05358	16272.4625
1953.14331	16222.8625
1956.23103	16163.5625
1959.31675	16115.5625
1962.40046	16055.2625
1965.48217	16001.6625
1968.56188	15953.5625
1971.63959	15878.4625
1974.7153	15846.8625
1977.78901	15817.6625
1980.86073	15754.8625
1983.93046	15680.0625
1986.99819	15633.1625
1990.06394	15616.5625
1993.1277	15527.5625
1996.18947	15482.7625
1999.24925	15443.0625
2002.30706	15400.1625
2005.36288	15340.4625
2008.41672	15278.6625
2011.46859	15224.9625
2014.51848	15208.7625
2017.56639	15130.8625
2020.61233	15089.3625
2023.6563	15042.2625
2026.6983	15034.1625
2029.73833	14958.2625
2032.7764	14940.6625
2035.8125	14906.8625
2038.84664	14851.8625
2041.87881	14847.0625
2044.90903	14808.8625
2047.93729	14778.2625
2050.96359	14781.6625
2053.98794	14739.8625
2057.01034	14724.9625
2060.03078	14706.9625
2063.04927	14746.5625
2066.06582	14719.0625
2069.08042	14725.1625
2072.09307	14689.6625
2075.10378	14654.6625
2078.11255	14636.9625
2081.11938	14656.0625
2084.12426	14609.8625
2087.12722	14589.9625
2090.12824	14588.7625
2093.12732	14599.9625
2096.12447	14576.9625
2099.11969	14558.2625
2102.11299	14557.6625
2105.10435	14559.2625
2108.09379	14554.7625
2111.08131	14588.8625
2114.0669	14533.4625
2117.05057	14580.3625
2120.03233	14580.3625
2123.01216	14592.7625
2125.99008	14571.6625
2128.96609	14595.3625
2131.94018	14604.5625
2134.91236	14603.0625
2137.88263	14606.0625
2140.851	14607.7625
2143.81746	14601.2625
2146.78201	14560.8625
2149.74466	14567.3625
2152.7054	14565.1625
2155.66425	14533.9625
2158.6212	14525.3625
2161.57625	14491.3625
2164.52941	14486.2625
2167.48067	14512.1625
2170.43004	14504.7625
2173.37752	14493.1625
2176.32311	14505.9625
2179.26681	14487.9625
2182.20863	14500.2625
2185.14856	14468.0625
2188.08661	14486.8625
2191.02278	14503.3625
2193.95707	14442.6625
2196.88948	14424.7625
2199.82001	14395.7625
2202.74867	14368.0625
2205.67545	14353.4625
2208.60037	14346.7625
2211.52341	14319.9625
2214.44458	14265.3625
2217.36388	14214.6625
2220.28132	14196.6625
2223.1969	14166.3625
2226.11061	14164.0625
2229.02246	14155.7625
2231.93245	14122.0625
2234.84058	14079.5625
2237.74686	14046.1625
2240.65128	14024.4625
2243.55385	13982.0625
2246.45456	14017.1625
2249.35343	13976.2625
2252.25044	13943.0625
2255.14561	13897.4625
2258.03893	13837.5625
2260.93041	13811.0625
2263.82004	13794.1625
2266.70783	13740.1625
2269.59378	13725.5625
2272.4779	13672.3625
2275.36017	13650.7625
2278.24061	13615.7625
2281.11922	13586.0625
2283.996	13581.7625
2286.87094	13554.8625
2289.74405	13509.4625
2292.61534	13476.7625
2295.4848	13475.9625
2298.35243	13474.0625
2301.21824	13469.0625
2304.08223	13485.3625
2306.94439	13515.4625
2309.80474	13466.7625
2312.66327	13468.9625
2315.51999	13445.8625
2318.37489	13431.8625
2321.22797	13402.9625
2324.07925	13344.8625
2326.92871	13337.7625
2329.77637	13331.8625
2332.62222	13300.7625
2335.46626	13286.2625
2338.3085	13277.6625
2341.14893	13255.9625
2343.98756	13271.6625
2346.8244	13230.8625
2349.65943	13239.9625
2352.49267	13212.1625
2355.32411	13220.3625
2358.15376	13235.7625
2360.98161	13240.7625
2363.80768	13231.0625
2366.63195	13227.6625
2369.45444	13196.3625
2372.27514	13180.7625
2375.09405	13157.4625
2377.91118	13095.3625
2380.72652	13090.8625
2383.54009	13060.3625
2386.35187	13074.2625
2389.16188	13013.9625
2391.97011	12944.2625
2394.77657	12928.4625
2397.58125	12904.3625
2400.38416	12883.7625
2403.18529	12841.2625
2405.98466	12850.9625
2408.78226	12829.8625
2411.57809	12832.1625
2414.37216	12805.6625
2417.16446	12817.5625
2419.955	12783.1625
2422.74378	12772.6625
2425.5308	12771.4625
2428.31606	12730.4625
2431.09956	12726.7625
2433.88131	12700.0625
2436.6613	12715.6625
2439.43954	12703.5625
2442.21603	12714.5625
2444.99077	12687.5625
2447.76377	12668.5625
2450.53501	12668.2625
2453.30451	12666.2625
2456.07226	12651.0625
2458.83827	12616.4625
2461.60254	12619.2625
2464.36507	12627.5625
2467.12586	12616.5625
2469.88492	12613.2625
2472.64224	12613.1625
2475.39782	12596.9625
2478.15167	12627.2625
2480.90379	12584.7625
2483.65417	12623.1625
2486.40283	12605.8625
2489.14976	12643.5625
2491.89497	12595.1625
2494.63845	12630.3625
2497.3802	12642.9625
2500.12024	12604.1625
2502.85855	12595.1625
2505.59514	12582.1625
2508.33002	12576.5625
2511.06318	12545.5625
2513.79462	12541.0625
2516.52435	12507.9625
2519.25237	12483.6625
2521.97867	12460.6625
2524.70327	12447.2625
2527.42616	12419.4625
2530.14734	12428.1625
2532.86681	12421.9625
2535.58458	12419.7625
2538.30065	12417.6625
2541.01501	12395.8625
2543.72768	12380.0625
2546.43864	12366.1625
2549.14791	12336.6625
2551.85548	12356.5625
2554.56136	12339.3625
2557.26554	12310.0625
2559.96803	12276.0625
2562.66883	12288.5625
2565.36794	12234.2625
2568.06536	12250.5625
2570.7611	12256.3625
2573.45514	12224.2625
2576.14751	12206.1625
2578.83819	12185.0625
2581.52719	12218.8625
2584.21451	12173.9625
2586.90015	12169.6625
2589.58411	12169.7625
2592.2664	12160.3625
2594.94701	12141.8625
2597.62594	12137.5625
2600.30321	12089.7625
2602.9788	12097.0625
2605.65273	12089.5625
2608.32498	12108.0625
2610.99557	12122.4625
2613.66449	12115.0625
2616.33175	12084.3625
2618.99734	12074.5625
2621.66128	12051.3625
2624.32355	12062.5625
2626.98416	12007.3625
2629.64311	12005.0625
2632.30041	12037.8625
2634.95605	11988.2625
2637.61004	11984.7625
2640.26238	11969.7625
2642.91306	11973.4625
2645.56209	11956.3625
2648.20948	11978.7625
2650.85521	11988.9625
2653.4993	11954.4625
2656.14175	11983.4625
2658.78255	12008.5625
2661.42171	11998.6625
2664.05923	11982.9625
2666.6951	11991.2625
2669.32934	12012.2625
2671.96194	11989.2625
2674.59291	11995.7625
2677.22224	11961.3625
2679.84993	11976.4625
2682.476	11938.0625
2685.10043	11967.5625
2687.72324	11931.1625
2690.34441	11943.5625
2692.96396	11930.9625
2695.58188	11946.8625
2698.19818	11944.5625
2700.81285	11955.1625
2703.4259	11970.3625
2706.03733	11965.4625
2708.64714	11952.7625
2711.25533	11983.1625
2713.86191	11978.4625
2716.46687	12007.2625
2719.07021	11978.1625
2721.67194	12016.8625
2724.27206	11984.6625
2726.87057	12009.1625
2729.46747	12032.1625
2732.06276	12045.1625
2734.65644	11998.8625
2737.24852	12028.3625
2739.83899	11988.7625
2742.42786	12003.7625
2745.01513	11988.7625
2747.60079	11961.7625
2750.18486	11941.4625
2752.76733	11931.0625
2755.3482	11921.9625
2757.92747	11905.0625
2760.50515	11897.2625
2763.08123	11928.6625
2765.65573	11880.2625
2768.22863	11918.5625
2770.79994	11888.9625
2773.36967	11884.5625
2775.9378	11879.0625
2778.50435	11899.0625
2781.06932	11859.0625
2783.6327	11882.0625
2786.1945	11849.5625
2788.75471	11866.3625
2791.31335	11841.6625
2793.87041	11840.3625
2796.42589	11807.8625
2798.97979	11832.4625
2801.53212	11758.4625
2804.08288	11734.6625
2806.63206	11726.3625
2809.17967	11705.3625
2811.72571	11671.8625
2814.27018	11642.0625
2816.81308	11645.5625
2819.35442	11630.5625
2821.89419	11588.5625
2824.43239	11621.5625
2826.96904	11607.7625
2829.50412	11601.9625
2832.03763	11529.6625
2834.56959	11556.1625
2837.1	11525.6625
2839.62884	11553.7625
2842.15613	11577.9625
2844.68186	11624.6625
2847.20604	11675.7625
2849.72867	11684.5625
2852.24974	11676.1625
2854.76927	11669.1625
2857.28724	11663.5625
2859.80367	11634.6625
2862.31855	11611.6625
2864.83189	11593.0625
2867.34368	11554.2625
2869.85393	11566.1625
2872.36264	11564.8625
2874.8698	11575.7625
2877.37543	11555.6625
2879.87952	11550.5625
2882.38207	11531.0625
2884.88308	11519.1625
2887.38256	11533.1625
2889.88051	11524.0625
2892.37692	11501.6625
2894.8718	11503.6625
2897.36515	11510.7625
2899.85698	11549.4625
2902.34727	11568.1625
2904.83604	11536.0625
2907.32328	11575.7625
2909.809	11564.7625
2912.29319	11571.9625
2914.77587	11567.9625
2917.25702	11554.8625
2919.73665	11541.1625
2922.21476	11546.7625
2924.69136	11546.9625
2927.16644	11554.4625
2929.64	11557.3625
2932.11205	11493.6625
2934.58258	11469.9625
2937.05161	11454.3625
2939.51912	11463.3625
2941.98513	11434.2625
2944.44962	11417.7625
2946.91261	11371.0625
2949.37409	11372.4625
2951.83407	11365.0625
2954.29254	11338.0625
2956.74951	11337.2625
2959.20498	11305.2625
2961.65895	11297.4625
2964.11142	11275.0625
2966.56239	11247.8625
2969.01186	11249.9625
2971.45984	11219.0625
2973.90632	11201.1625
2976.35131	11167.8625
2978.7948	11155.5625
2981.23681	11099.3625
2983.67732	11086.6625
2986.11635	11046.0625
2988.55388	11008.5625
2990.98993	10977.2625
2993.4245	10958.6625
2995.85758	10920.5625
2998.28917	10896.2625
3000.71928	10895.5625
3003.14791	10856.3625
3005.57506	10834.6625
3008.00073	10791.6625
3010.42493	10794.8625
3012.84764	10777.4625
3015.26888	10774.9625
3017.68865	10708.2625
3020.10694	10712.1625
3022.52376	10661.9625
3024.9391	10651.2625
3027.35298	10644.1625
3029.76539	10641.9625
3032.17632	10615.2625
3034.5858	10597.2625
3036.9938	10606.4625
3039.40034	10610.5625
3041.80542	10613.1625
3044.20903	10574.5625
3046.61118	10572.9625
3049.01187	10526.8625
3051.4111	10518.1625
3053.80888	10485.4625
3056.20519	10470.2625
3058.60005	10441.0625
3060.99345	10426.0625
3063.3854	10371.5625
3065.7759	10340.7625
3068.16494	10331.5625
3070.55254	10273.1625
3072.93868	10234.9625
3075.32338	10220.1625
3077.70662	10182.4625
3080.08842	10142.5625
3082.46878	10153.8625
3084.84769	10117.4625
3087.22515	10128.1625
3089.60118	10117.0625
3091.97576	10101.2625
3094.3489	10108.4625
3096.72061	10107.0625
3099.09087	10083.0625
3101.4597	10079.0625
3103.82709	10070.8625
3106.19305	10051.2625
3108.55757	10045.4625
3110.92066	10003.7625
3113.28232	9999.9625
3115.64255	9952.2625
3118.00134	9935.5625
3120.35871	9939.0625
3122.71466	9928.7625
3125.06917	9915.7625
3127.42226	9869.5625
3129.77393	9892.7625
3132.12417	9861.1625
3134.47299	9851.1625
3136.82039	9819.9625
3139.16636	9845.9625
3141.51092	9823.0625
3143.85406	9828.7625
3146.19579	9796.9625
3148.53609	9808.9625
3150.87499	9802.5625
3153.21246	9819.4625
3155.54853	9832.9625
3157.88318	9823.2625
3160.21642	9849.3625
3162.54826	9808.6625
3164.87868	9817.2625
3167.2077	9831.9625
3169.5353	9819.3625
3171.86151	9834.4625
3174.18631	9822.4625
3176.5097	9786.2625
3178.83169	9768.4625
3181.15228	9785.6625
3183.47147	9744.7625
3185.78926	9742.0625
3188.10565	9714.5625
3190.42065	9709.7625
3192.73424	9709.0625
3195.04645	9700.2625
3197.35725	9675.5625
3199.66667	9636.3625
3201.97469	9668.5625
3204.28132	9651.3625
3206.58656	9670.5625
3208.8904	9673.7625
3211.19287	9678.6625
3213.49394	9659.6625
3215.79363	9665.1625
3218.09193	9683.1625
3220.38884	9672.2625
3222.68438	9669.4625
3224.97853	9634.1625
3227.2713	9650.3625
3229.56269	9635.2625
3231.8527	9635.4625
3234.14133	9629.6625
3236.42858	9588.4625
3238.71446	9586.5625
3240.99896	9551.6625
3243.28209	9542.4625
3245.56384	9524.5625
3247.84423	9524.1625
3250.12324	9500.8625
3252.40088	9483.3625
3254.67715	9487.2625
3256.95205	9442.0625
3259.22558	9445.0625
3261.49775	9422.5625
3263.76855	9405.8625
3266.03799	9366.9625
3268.30606	9375.5625
3270.57277	9358.8625
3272.83812	9328.9625
3275.10211	9321.7625
3277.36474	9303.0625
3279.62601	9310.8625
3281.88593	9282.6625
3284.14448	9300.5625
3286.40168	9301.6625
3288.65753	9290.7625
3290.91202	9297.9625
3293.16516	9244.7625
3295.41695	9239.1625
3297.66738	9190.6625
3299.91647	9141.4625
3302.16421	9072.4625
3304.4106	9003.4625
3306.65564	8954.5625
3308.89933	8903.3625
3311.14169	8813.1625
3313.38269	8757.6625
3315.62236	8684.8625
3317.86068	8593.5625
3320.09766	8528.6625
3322.3333	8485.0625
3324.5676	8438.5625
3326.80056	8284.5625
3329.03219	8257.7625
3331.26248	2.2625
3333.49143	1.3625
3335.71905	-1.6375
