Data from AgNPs_FTO_APTES_UA_5uM_CRN_10uM_R6G_10uM_NaF_0.1M_Addition_RamanShift__17__12-43-06-733.txt Node

Date: Mon Feb 07 12:43:06 GMT 2022
User: TCL
Spectrometer: QEP01345
Trigger mode: 4
Integration Time (sec): 7.000000E0
Scans to average: 10
Electric dark correction enabled: true
Nonlinearity correction enabled: false
Boxcar width: 0
XAxis mode: Raman Shifts
Number of Pixels in Spectrum: 1044
>>>>>Begin Spectral Data<<<<<
46.04893	-1.4
50.45542	-0.6
54.85868	-0.7
59.25871	-0.2
63.6555	84.7
68.04907	89.2
72.43941	95.4
76.82654	98.2
81.21044	98.5
85.59113	103.7
89.96862	109.3
94.34289	108.7
98.71396	116.5
103.08183	116.7
107.4465	120.8
111.80798	125.4
116.16626	130.2
120.52136	131.4
124.87327	140.1
129.222	152.3
133.56755	161.6
137.90993	176.6
142.24913	193.5
146.58517	222.6
150.91804	261.5
155.24774	312.6
159.57429	397.1
163.89768	511.8
168.21792	683.4
172.53501	938.6
176.84895	1310
181.15975	1837.9
185.46741	2594.8
189.77193	3568.3
194.07331	4758.5
198.37157	6112.6
202.6667	7535.1
206.9587	8944.7
211.24758	10298.3
215.53334	11701.2
219.81599	13158.7
224.09553	14797.3
228.37195	16604.5
232.64527	18580.2
236.91549	20679.1
241.18261	22726.4
245.44663	24644.3
249.70755	26368.6
253.96539	27859.5
258.22014	29141.6
262.4718	30236.5
266.72039	30990.3
270.96589	31523.7
275.20832	31736.3
279.44768	31709.4
283.68397	31686.4
287.91719	31617.9
292.14735	31694.5
296.37445	31761.8
300.59849	31915.2
304.81948	31948.8
309.03742	31748.2
313.25231	31127.1
317.46415	30194.8
321.67296	29160.2
325.87872	28242.5
330.08145	27711.3
334.28114	27592
338.47781	27715.6
342.67145	28011.6
346.86207	28433
351.04966	28965.3
355.23424	29503.6
359.4158	29965.5
363.59435	30304.7
367.76989	30483.6
371.94243	30580.9
376.11196	30651.4
380.27849	30776.2
384.44203	30959.3
388.60257	31240.8
392.76012	31588.6
396.91468	32058.9
401.06626	32576.3
405.21485	32912.1
409.36047	32677.8
413.50311	32138.3
417.64277	31803.5
421.77947	31722.7
425.9132	31877.9
430.04396	32059.2
434.17176	32304.1
438.2966	32500
442.41849	33044
446.53742	33896.4
450.6534	34899.5
454.76644	35686.4
458.87653	36108.9
462.98368	36172
467.08789	35827.1
471.18916	35568.9
475.2875	35319.6
479.38291	35375.8
483.4754	35250.4
487.56496	34832.7
491.6516	34038.5
495.73531	33278.6
499.81612	32783.7
503.89401	32781.2
507.96899	32845.4
512.04106	32707.9
516.11023	32365.9
520.1765	31884
524.23987	31365.3
528.30034	30881.4
532.35792	30505.1
536.41261	30115.8
540.46441	29898.1
544.51333	29990.1
548.55936	30594.2
552.60252	31511.5
556.64279	32494.7
560.6802	33125.3
564.71473	33689.1
568.7464	34448
572.7752	35448.8
576.80114	36375.9
580.82422	37116.9
584.84444	37605.6
588.86181	37975
592.87633	38312.2
596.888	38377.2
600.89682	38187.7
604.9028	38936.1
608.90594	41619.2
612.90624	44106
616.90371	40876.5
620.89834	34194.8
624.89015	31331.4
628.87913	31189.7
632.86528	31479
636.84862	31317.7
640.82913	30733.3
644.80683	29754.2
648.78172	28954.2
652.75379	28680.1
656.72306	28884.5
660.68952	29351.5
664.65319	29201.3
668.61405	28670.6
672.57211	28519
676.52738	28512
680.47986	28471.1
684.42955	28310.6
688.37646	28252.7
692.32058	28370.1
696.26192	28695
700.20048	29067.2
704.13626	29340.8
708.06928	29369.4
711.99952	29217.9
715.927	29057.7
719.85171	29120.7
723.77365	28999.2
727.69284	28660.2
731.60928	28273.2
735.52295	28082.6
739.43388	28061.5
743.34206	28121.7
747.24749	28320.8
751.15017	28662.5
755.05012	29303.8
758.94733	30404.5
762.8418	32250.8
766.73354	35047.4
770.62254	37416
774.50882	37560.1
778.39237	35444.8
782.27321	32502
786.15132	30233
790.02671	28887.4
793.89938	28252.3
797.76935	27965.2
801.6366	27946
805.50115	27888.4
809.36299	27664.2
813.22213	27443.4
817.07857	27341.6
820.93231	27160.6
824.78336	27040.1
828.63172	26836.8
832.47738	26737.6
836.32036	26726.2
840.16066	26854.9
843.99827	26975.9
847.8332	26893
851.66546	26724.9
855.49504	26675.1
859.32195	26611.9
863.1462	26532.9
866.96777	26410.1
870.78668	26320.3
874.60293	26260
878.41652	26193.6
882.22745	26325.3
886.03573	26374.1
889.84136	26367.2
893.64433	26268.1
897.44466	26172.8
901.24235	26049.2
905.0374	25973
908.8298	25902.7
912.61957	25989.1
916.40671	26326.2
920.19121	26868.3
923.97308	27219.8
927.75233	27198.7
931.52895	26886.8
935.30295	26385.8
939.07433	25805.8
942.84309	25310.7
946.60924	25092.9
950.37278	25043.3
954.13371	25006.5
957.89203	24899.3
961.64774	24907.1
965.40086	24843.4
969.15137	24777.8
972.89929	24613.6
976.64461	24448.7
980.38733	24433.1
984.12747	24524.9
987.86502	24727.8
991.59999	25091.1
995.33237	25570.8
999.06217	26451.4
1002.78939	27351.5
1006.51404	27904.8
1010.23611	28192.8
1013.95561	28486.7
1017.67255	28539.7
1021.38692	28178.3
1025.09872	27771.9
1028.80796	27876.2
1032.51465	28600.7
1036.21877	29371.5
1039.92035	29472.4
1043.61937	29133.1
1047.31584	28452.7
1051.00976	27780.4
1054.70114	27537.9
1058.38998	27712.2
1062.07627	28022.5
1065.76003	28313.2
1069.44126	28614.6
1073.11995	28989
1076.79611	29288.9
1080.46974	29509.1
1084.14085	29750.3
1087.80943	30184
1091.47549	30515.2
1095.13903	30697.6
1098.80005	30347.6
1102.45857	29615.3
1106.11456	28822.8
1109.76805	28491.7
1113.41903	28469.5
1117.06751	28707.2
1120.71348	28993.4
1124.35696	29307.4
1127.99793	29682.1
1131.63641	29916.1
1135.2724	29922.3
1138.90589	29856.4
1142.5369	29859
1146.16542	30062.6
1149.79145	30414.8
1153.415	30958.2
1157.03607	31722.4
1160.65467	32899
1164.27079	34708.1
1167.88443	37050.8
1171.49561	39754.4
1175.10432	43233
1178.71056	47384
1182.31434	51282.9
1185.91565	53546.2
1189.51451	53836.5
1193.11091	52579
1196.70485	50391.1
1200.29634	47813.8
1203.88538	45872
1207.47197	44704.9
1211.05612	43861.5
1214.63782	42939.1
1218.21708	41824.7
1221.79391	40809.7
1225.36829	40106.7
1228.94024	39357.6
1232.50976	38460.1
1236.07685	37756
1239.6415	37390.9
1243.20374	37321.2
1246.76355	37557.7
1250.32093	38205.5
1253.8759	39192.1
1257.42845	40503.5
1260.97859	41876.1
1264.52631	43216.2
1268.07163	44726.9
1271.61453	46269.9
1275.15503	48001.2
1278.69312	49872.4
1282.22882	51610.4
1285.76211	53419.1
1289.29301	55460.5
1292.82151	58096.5
1296.34761	61618.3
1299.87133	65800.6
1303.39266	70091.5
1306.9116	74368.1
1310.42815	78064.2
1313.94233	80187.7
1317.45412	80460.3
1320.96354	79724.8
1324.47058	78970.5
1327.97525	78393.7
1331.47754	77917.1
1334.97747	77682.5
1338.47502	77297.9
1341.97022	76662.5
1345.46305	75351.2
1348.95352	73295.2
1352.44163	71094.1
1355.92738	70010.7
1359.41078	70815.1
1362.89183	71920.3
1366.37053	70343
1369.84688	65264.6
1373.32088	59154.6
1376.79254	54849.6
1380.26186	53438.5
1383.72883	53836.9
1387.19347	54453.2
1390.65578	54650
1394.11575	55016.2
1397.57339	55947.5
1401.0287	57276.3
1404.48168	58230.6
1407.93234	58140.3
1411.38068	56594.2
1414.82669	53999.7
1418.27039	50811
1421.71177	47796.9
1425.15083	45486.2
1428.58758	44281.7
1432.02203	44373.2
1435.45416	45603
1438.88399	47435.8
1442.31151	49025.6
1445.73673	50333.6
1449.15965	51521.3
1452.58027	52490.6
1455.9986	53121.4
1459.41463	53719.2
1462.82837	54604.5
1466.23982	55496.6
1469.64898	56154.5
1473.05586	56133.2
1476.46045	55722.9
1479.86276	54738.7
1483.26279	53633.8
1486.66054	52940.9
1490.05602	52706.4
1493.44922	52712.7
1496.84016	53054.3
1500.22882	53780.9
1503.61521	55196.8
1506.99934	56923.2
1510.38121	58622.8
1513.76081	59233.2
1517.13816	58525.7
1520.51324	57113.3
1523.88607	55826.5
1527.25665	55182
1530.62498	55092.2
1533.99105	55157.6
1537.35488	54795.3
1540.71647	54007.5
1544.07581	52630.4
1547.4329	50946.7
1550.78776	49625.7
1554.14038	48754.2
1557.49077	48248.9
1560.83892	48021.2
1564.18484	47835
1567.52853	47826.9
1570.86999	48159.9
1574.20922	49078.9
1577.54624	50148
1580.88103	50893.6
1584.2136	51854.8
1587.54395	53695.1
1590.87208	56513.6
1594.19801	59861.8
1597.52172	62919.3
1600.84321	63385.5
1604.16251	60052.9
1607.47959	54824.4
1610.79447	49492.6
1614.10715	44580
1617.41763	40479.6
1620.7259	37578.9
1624.03199	35989.5
1627.33587	35891
1630.63757	37186.4
1633.93707	40287.5
1637.23439	45181.2
1640.52951	51793.7
1643.82246	58954.4
1647.11321	64072.5
1650.40179	64521.7
1653.68819	59545
1656.97241	51226.4
1660.25446	42705.2
1663.53433	36153.5
1666.81203	31815.2
1670.08756	29015.2
1673.36092	27287.7
1676.63211	26143.1
1679.90115	25373.6
1683.16801	24731.3
1686.43272	24294.7
1689.69527	23987.6
1692.95567	23738.2
1696.2139	23551.1
1699.46999	23376.4
1702.72392	23186.2
1705.97571	23125.5
1709.22535	23013.1
1712.47284	22972.3
1715.71819	22868.9
1718.96139	22762.5
1722.20246	22658.1
1725.44139	22534.6
1728.67818	22362
1731.91284	22196.1
1735.14537	22034.2
1738.37576	21889.6
1741.60403	21798.1
1744.83017	21737.4
1748.05418	21638.6
1751.27607	21612.9
1754.49584	21562.5
1757.71349	21506.7
1760.92903	21472
1764.14244	21417.1
1767.35375	21424.9
1770.56294	21352
1773.77002	21280.1
1776.97499	21214.5
1780.17785	21174.9
1783.37861	21110.6
1786.57727	21062.2
1789.77382	21046.1
1792.96828	20997.5
1796.16064	20922.9
1799.3509	20881.5
1802.53907	20846.5
1805.72514	20754.6
1808.90913	20719.7
1812.09102	20687.6
1815.27083	20603.5
1818.44856	20558.6
1821.6242	20524.2
1824.79776	20488.8
1827.96924	20515
1831.13864	20488.5
1834.30597	20526.4
1837.47122	20510.5
1840.6344	20562
1843.7955	20514.3
1846.95454	20531.3
1850.11151	20536.1
1853.26642	20543.1
1856.41926	20514.3
1859.57004	20533.8
1862.71876	20507.3
1865.86542	20461
1869.01003	20428
1872.15258	20400.6
1875.29308	20386
1878.43152	20389.6
1881.56792	20362.7
1884.70227	20351.1
1887.83457	20330.7
1890.96482	20337.6
1894.09304	20279.7
1897.21921	20233.5
1900.34335	20244.2
1903.46544	20215.1
1906.58551	20195
1909.70353	20152.6
1912.81953	20107.9
1915.93349	20070.3
1919.04543	20008.3
1922.15534	19929.4
1925.26322	19872.8
1928.36908	19822.3
1931.47292	19784.6
1934.57473	19660.9
1937.67453	19617
1940.77232	19504.3
1943.86808	19430.7
1946.96184	19387.8
1950.05358	19351
1953.14331	19272.7
1956.23103	19180.2
1959.31675	19148.6
1962.40046	19033.6
1965.48217	19000.5
1968.56188	18959.3
1971.63959	18925
1974.7153	18853.5
1977.78901	18746.2
1980.86073	18657.9
1983.93046	18628.8
1986.99819	18545.2
1990.06394	18521.9
1993.1277	18490.2
1996.18947	18408.1
1999.24925	18376.8
2002.30706	18285
2005.36288	18245.5
2008.41672	18178.3
2011.46859	18124.3
2014.51848	18086.5
2017.56639	18024
2020.61233	17960.3
2023.6563	17918.4
2026.6983	17872.5
2029.73833	17835.1
2032.7764	17806.5
2035.8125	17792.4
2038.84664	17752.4
2041.87881	17748.2
2044.90903	17686.3
2047.93729	17686.4
2050.96359	17652.6
2053.98794	17621.9
2057.01034	17596.9
2060.03078	17611.4
2063.04927	17599.9
2066.06582	17603.4
2069.08042	17598.3
2072.09307	17554.5
2075.10378	17530.9
2078.11255	17508.3
2081.11938	17471.6
2084.12426	17456.6
2087.12722	17460.3
2090.12824	17441.2
2093.12732	17426.3
2096.12447	17434.9
2099.11969	17420.4
2102.11299	17445.9
2105.10435	17466.6
2108.09379	17430.1
2111.08131	17426.9
2114.0669	17459.4
2117.05057	17485.4
2120.03233	17452.1
2123.01216	17451.4
2125.99008	17462.8
2128.96609	17481
2131.94018	17511.5
2134.91236	17493.8
2137.88263	17487.9
2140.851	17538.7
2143.81746	17536.4
2146.78201	17509.3
2149.74466	17497.8
2152.7054	17482
2155.66425	17480.2
2158.6212	17458.9
2161.57625	17472.6
2164.52941	17404.9
2167.48067	17436.7
2170.43004	17429.7
2173.37752	17457.6
2176.32311	17430.8
2179.26681	17433.3
2182.20863	17461.3
2185.14856	17458.7
2188.08661	17447.8
2191.02278	17476.5
2193.95707	17458.8
2196.88948	17435.7
2199.82001	17372.3
2202.74867	17342.4
2205.67545	17354.5
2208.60037	17352.4
2211.52341	17326
2214.44458	17333.2
2217.36388	17302.3
2220.28132	17276.1
2223.1969	17186
2226.11061	17181.6
2229.02246	17153.7
2231.93245	17123.1
2234.84058	17076
2237.74686	17011.5
2240.65128	17015.5
2243.55385	16961.5
2246.45456	16929.2
2249.35343	16932.1
2252.25044	16883.6
2255.14561	16848.1
2258.03893	16817.9
2260.93041	16749.8
2263.82004	16762
2266.70783	16719.5
2269.59378	16626.9
2272.4779	16615.1
2275.36017	16553.5
2278.24061	16514.7
2281.11922	16514
2283.996	16510.2
2286.87094	16468.4
2289.74405	16443.1
2292.61534	16439.9
2295.4848	16394.7
2298.35243	16400.9
2301.21824	16414.9
2304.08223	16450.1
2306.94439	16417.7
2309.80474	16449.3
2312.66327	16454.3
2315.51999	16427.2
2318.37489	16452.7
2321.22797	16431.4
2324.07925	16428.6
2326.92871	16358.7
2329.77637	16373.2
2332.62222	16325.3
2335.46626	16342.3
2338.3085	16376
2341.14893	16352.1
2343.98756	16375.6
2346.8244	16379.8
2349.65943	16393
2352.49267	16394.5
2355.32411	16422.4
2358.15376	16381.4
2360.98161	16381.7
2363.80768	16372.5
2366.63195	16328.6
2369.45444	16326.9
2372.27514	16291.2
2375.09405	16256.8
2377.91118	16216.6
2380.72652	16163.4
2383.54009	16138.9
2386.35187	16123.7
2389.16188	16046.6
2391.97011	16053.3
2394.77657	16033.2
2397.58125	16005.2
2400.38416	15982.1
2403.18529	15940.9
2405.98466	15954.9
2408.78226	15887.1
2411.57809	15863.4
2414.37216	15850.7
2417.16446	15825
2419.955	15811.8
2422.74378	15796.8
2425.5308	15760.7
2428.31606	15769.6
2431.09956	15779.9
2433.88131	15752.8
2436.6613	15791.5
2439.43954	15726.4
2442.21603	15741.6
2444.99077	15750.3
2447.76377	15766.1
2450.53501	15719.8
2453.30451	15753.9
2456.07226	15734.6
2458.83827	15725.6
2461.60254	15742.5
2464.36507	15719.3
2467.12586	15734.2
2469.88492	15769.2
2472.64224	15763.3
2475.39782	15781
2478.15167	15805.4
2480.90379	15804.1
2483.65417	15811.9
2486.40283	15835.9
2489.14976	15850.1
2491.89497	15842.6
2494.63845	15882.1
2497.3802	15867
2500.12024	15898
2502.85855	15865.1
2505.59514	15835.5
2508.33002	15851
2511.06318	15823.5
2513.79462	15814.3
2516.52435	15805.4
2519.25237	15845.1
2521.97867	15797.5
2524.70327	15831.4
2527.42616	15794.6
2530.14734	15798.2
2532.86681	15801.5
2535.58458	15815.5
2538.30065	15796
2541.01501	15803.4
2543.72768	15791.5
2546.43864	15786
2549.14791	15753.2
2551.85548	15739.8
2554.56136	15714.4
2557.26554	15671.2
2559.96803	15722.9
2562.66883	15663.5
2565.36794	15636.5
2568.06536	15611.8
2570.7611	15650.9
2573.45514	15658.8
2576.14751	15632.5
2578.83819	15637.6
2581.52719	15638.3
2584.21451	15632.7
2586.90015	15652.3
2589.58411	15646.3
2592.2664	15628.6
2594.94701	15663.7
2597.62594	15681.9
2600.30321	15646.5
2602.9788	15638.5
2605.65273	15635.1
2608.32498	15670.3
2610.99557	15651.5
2613.66449	15683.1
2616.33175	15642.1
2618.99734	15681.3
2621.66128	15676.5
2624.32355	15674.5
2626.98416	15717.1
2629.64311	15714.4
2632.30041	15730.7
2634.95605	15696.9
2637.61004	15697.2
2640.26238	15697.4
2642.91306	15674.7
2645.56209	15633.3
2648.20948	15640.1
2650.85521	15661.7
2653.4993	15688.2
2656.14175	15670.9
2658.78255	15683.4
2661.42171	15689.4
2664.05923	15723
2666.6951	15704.8
2669.32934	15756
2671.96194	15757.3
2674.59291	15748.7
2677.22224	15755.3
2679.84993	15758.5
2682.476	15748.8
2685.10043	15737.8
2687.72324	15710.1
2690.34441	15664.5
2692.96396	15678
2695.58188	15678.4
2698.19818	15655.6
2700.81285	15665.9
2703.4259	15663
2706.03733	15722.5
2708.64714	15659.6
2711.25533	15674.3
2713.86191	15688.8
2716.46687	15716.6
2719.07021	15741.2
2721.67194	15758.5
2724.27206	15772.2
2726.87057	15777.8
2729.46747	15794.2
2732.06276	15838.3
2734.65644	15794.1
2737.24852	15799.2
2739.83899	15786.3
2742.42786	15792.3
2745.01513	15767.3
2747.60079	15791.1
2750.18486	15750.7
2752.76733	15796.9
2755.3482	15767.4
2757.92747	15755.3
2760.50515	15777.3
2763.08123	15777.9
2765.65573	15809.1
2768.22863	15792.9
2770.79994	15762.1
2773.36967	15773.4
2775.9378	15793.9
2778.50435	15808.6
2781.06932	15786.9
2783.6327	15827.8
2786.1945	15831.9
2788.75471	15788.5
2791.31335	15787.7
2793.87041	15741.1
2796.42589	15700.1
2798.97979	15703
2801.53212	15674.4
2804.08288	15678.3
2806.63206	15611.5
2809.17967	15598.5
2811.72571	15557.5
2814.27018	15546.7
2816.81308	15502.2
2819.35442	15483.3
2821.89419	15464.4
2824.43239	15478.4
2826.96904	15507.7
2829.50412	15474.4
2832.03763	15398.2
2834.56959	15423.6
2837.1	15381.3
2839.62884	15402.6
2842.15613	15371.2
2844.68186	15434.4
2847.20604	15450.7
2849.72867	15445.4
2852.24974	15420.9
2854.76927	15442.1
2857.28724	15417.2
2859.80367	15433.4
2862.31855	15358.8
2864.83189	15342.7
2867.34368	15339.4
2869.85393	15332.4
2872.36264	15330.3
2874.8698	15296.6
2877.37543	15299.2
2879.87952	15317.6
2882.38207	15309.3
2884.88308	15310
2887.38256	15352
2889.88051	15334.8
2892.37692	15342.5
2894.8718	15373.2
2897.36515	15399.2
2899.85698	15384
2902.34727	15450
2904.83604	15428
2907.32328	15483.9
2909.809	15509.2
2912.29319	15531.6
2914.77587	15550.7
2917.25702	15534.6
2919.73665	15505.2
2922.21476	15510.7
2924.69136	15487.8
2927.16644	15495.7
2929.64	15437
2932.11205	15390.8
2934.58258	15357.7
2937.05161	15367.7
2939.51912	15385.8
2941.98513	15355.3
2944.44962	15334.6
2946.91261	15251.7
2949.37409	15269.8
2951.83407	15239.8
2954.29254	15233.6
2956.74951	15213.9
2959.20498	15227.7
2961.65895	15167.2
2964.11142	15158.5
2966.56239	15121.5
2969.01186	15119.5
2971.45984	15063.6
2973.90632	15085.8
2976.35131	15022.7
2978.7948	15003.4
2981.23681	14944
2983.67732	14946.9
2986.11635	14906.6
2988.55388	14849.3
2990.98993	14816.6
2993.4245	14760.1
2995.85758	14722.2
2998.28917	14649.5
3000.71928	14655.3
3003.14791	14597.5
3005.57506	14617.7
3008.00073	14559.5
3010.42493	14451.2
3012.84764	14491.5
3015.26888	14488.3
3017.68865	14425.6
3020.10694	14422
3022.52376	14378.4
3024.9391	14400.6
3027.35298	14371.1
3029.76539	14370.6
3032.17632	14344.5
3034.5858	14324.5
3036.9938	14324.6
3039.40034	14337.4
3041.80542	14326.5
3044.20903	14281.4
3046.61118	14254.5
3049.01187	14216.2
3051.4111	14256.3
3053.80888	14251.9
3056.20519	14193
3058.60005	14197.7
3060.99345	14123.5
3063.3854	14096
3065.7759	14014.9
3068.16494	13980.7
3070.55254	13922.1
3072.93868	13904.7
3075.32338	13859.9
3077.70662	13837.4
3080.08842	13793.3
3082.46878	13765
3084.84769	13721
3087.22515	13720.4
3089.60118	13735.5
3091.97576	13710.9
3094.3489	13703.8
3096.72061	13703.1
3099.09087	13706.5
3101.4597	13692.3
3103.82709	13682.2
3106.19305	13660.3
3108.55757	13642.5
3110.92066	13581.9
3113.28232	13544.5
3115.64255	13542.2
3118.00134	13534.5
3120.35871	13473.9
3122.71466	13445.4
3125.06917	13424.1
3127.42226	13399.9
3129.77393	13387.7
3132.12417	13344.2
3134.47299	13362.8
3136.82039	13343.4
3139.16636	13359
3141.51092	13316.8
3143.85406	13308.1
3146.19579	13321.6
3148.53609	13307.3
3150.87499	13307.8
3153.21246	13326.3
3155.54853	13329.9
3157.88318	13309.7
3160.21642	13333.6
3162.54826	13336.1
3164.87868	13346.6
3167.2077	13316.5
3169.5353	13319.4
3171.86151	13299.8
3174.18631	13314.1
3176.5097	13333.4
3178.83169	13295.4
3181.15228	13279.9
3183.47147	13271.2
3185.78926	13251.9
3188.10565	13232.7
3190.42065	13229
3192.73424	13182.3
3195.04645	13202.1
3197.35725	13171.2
3199.66667	13155.4
3201.97469	13163
3204.28132	13179.4
3206.58656	13177.2
3208.8904	13161.1
3211.19287	13200.7
3213.49394	13179.2
3215.79363	13191.5
3218.09193	13181.1
3220.38884	13133.7
3222.68438	13197.6
3224.97853	13164.3
3227.2713	13152
3229.56269	13149.6
3231.8527	13158.3
3234.14133	13098.3
3236.42858	13089.3
3238.71446	13088.1
3240.99896	13039.4
3243.28209	13034.7
3245.56384	13027
3247.84423	13003.1
3250.12324	12972.5
3252.40088	12943.8
3254.67715	12969.7
3256.95205	12953
3259.22558	12939.4
3261.49775	12925.3
3263.76855	12900.2
3266.03799	12868
3268.30606	12843.8
3270.57277	12820.6
3272.83812	12780.1
3275.10211	12778.2
3277.36474	12726.3
3279.62601	12757.8
3281.88593	12719.7
3284.14448	12750.9
3286.40168	12773.1
3288.65753	12740.8
3290.91202	12726.6
3293.16516	12684.3
3295.41695	12663.8
3297.66738	12609.2
3299.91647	12562.5
3302.16421	12435.6
3304.4106	12387.9
3306.65564	12303.8
3308.89933	12218.4
3311.14169	12133.7
3313.38269	12043.4
3315.62236	11978.9
3317.86068	11876.1
3320.09766	11772.5
3322.3333	11701.8
3324.5676	11633.1
3326.80056	11439.9
3329.03219	11360.7
3331.26248	3.2
3333.49143	0.7
3335.71905	-1.8
