Data from AgNPs_FTO_APTES_UA_5uM_CRN_100uM_R6G_10uM_NaF_0.1M_Addition_RamanShift__15__14-53-46-883.txt Node

Date: Mon Feb 07 14:53:46 GMT 2022
User: TCL
Spectrometer: QEP01345
Trigger mode: 4
Integration Time (sec): 7.000000E0
Scans to average: 10
Electric dark correction enabled: true
Nonlinearity correction enabled: false
Boxcar width: 0
XAxis mode: Raman Shifts
Number of Pixels in Spectrum: 1044
>>>>>Begin Spectral Data<<<<<
46.04893	-0.6375
50.45542	-0.4375
54.85868	-0.3375
59.25871	0.6625
63.6555	57.8625
68.04907	64.3625
72.43941	68.6625
76.82654	70.6625
81.21044	71.4625
85.59113	74.1625
89.96862	78.6625
94.34289	77.8625
98.71396	81.9625
103.08183	85.6625
107.4465	87.4625
111.80798	89.5625
116.16626	91.9625
120.52136	97.9625
124.87327	102.5625
129.222	109.2625
133.56755	120.5625
137.90993	131.7625
142.24913	142.4625
146.58517	166.2625
150.91804	191.2625
155.24774	228.8625
159.57429	290.0625
163.89768	378.1625
168.21792	510.2625
172.53501	692.7625
176.84895	974.5625
181.15975	1379.5625
185.46741	1941.7625
189.77193	2691.6625
194.07331	3621.2625
198.37157	4659.3625
202.6667	5762.8625
206.9587	6882.0625
211.24758	7946.1625
215.53334	9002.0625
219.81599	10141.6625
224.09553	11334.3625
228.37195	12668.2625
232.64527	14168.4625
236.91549	15705.7625
241.18261	17247.3625
245.44663	18781.7625
249.70755	20147.2625
253.96539	21374.9625
258.22014	22386.5625
262.4718	23252.6625
266.72039	23884.7625
270.96589	24226.0625
275.20832	24360.5625
279.44768	24364.0625
283.68397	24312.4625
287.91719	24191.3625
292.14735	24179.0625
296.37445	24246.6625
300.59849	24318.0625
304.81948	24329.8625
309.03742	24165.5625
313.25231	23749.1625
317.46415	23156.8625
321.67296	22460.7625
325.87872	21890.1625
330.08145	21632.1625
334.28114	21578.5625
338.47781	21704.4625
342.67145	21876.0625
346.86207	22169.4625
351.04966	22487.0625
355.23424	22807.8625
359.4158	23090.4625
363.59435	23279.7625
367.76989	23443.3625
371.94243	23533.3625
376.11196	23611.4625
380.27849	23690.4625
384.44203	23778.7625
388.60257	23937.3625
392.76012	24194.5625
396.91468	24486.4625
401.06626	24843.1625
405.21485	25140.7625
409.36047	25055.9625
413.50311	24758.2625
417.64277	24491.7625
421.77947	24406.9625
425.9132	24432.9625
430.04396	24571.7625
434.17176	24703.9625
438.2966	24860.8625
442.41849	25131.9625
446.53742	25598.9625
450.6534	26122.0625
454.76644	26521.7625
458.87653	26760.6625
462.98368	26859.2625
467.08789	26793.1625
471.18916	26730.4625
475.2875	26642.3625
479.38291	26625.0625
483.4754	26541.1625
487.56496	26333.9625
491.6516	25882.3625
495.73531	25431.2625
499.81612	25176.9625
503.89401	25232.7625
507.96899	25275.6625
512.04106	25298.7625
516.11023	25231.3625
520.1765	25020.7625
524.23987	24719.9625
528.30034	24464.8625
532.35792	24245.1625
536.41261	24072.5625
540.46441	23932.4625
544.51333	23987.7625
548.55936	24337.4625
552.60252	24867.0625
556.64279	25389.3625
560.6802	25792.6625
564.71473	26083.1625
568.7464	26548.1625
572.7752	27244.1625
576.80114	27878.6625
580.82422	28346.8625
584.84444	28645.2625
588.86181	28710.5625
592.87633	28548.8625
596.888	28279.6625
600.89682	28106.1625
604.9028	28514.0625
608.90594	29919.3625
612.90624	31521.3625
616.90371	29868.5625
620.89834	26128.1625
624.89015	24396.2625
628.87913	24268.0625
632.86528	24480.7625
636.84862	24625.0625
640.82913	24430.3625
644.80683	23959.0625
648.78172	23589.3625
652.75379	23463.0625
656.72306	23603.0625
660.68952	23852.4625
664.65319	23795.2625
668.61405	23589.8625
672.57211	23539.9625
676.52738	23606.4625
680.47986	23656.4625
684.42955	23589.1625
688.37646	23473.2625
692.32058	23444.9625
696.26192	23651.6625
700.20048	23868.3625
704.13626	24017.9625
708.06928	24129.9625
711.99952	24085.9625
715.927	23980.4625
719.85171	23953.5625
723.77365	23852.5625
727.69284	23571.7625
731.60928	23368.3625
735.52295	23224.9625
739.43388	23147.2625
743.34206	23222.5625
747.24749	23282.6625
751.15017	23506.2625
755.05012	23873.0625
758.94733	24471.5625
762.8418	25548.1625
766.73354	27090.8625
770.62254	28572.1625
774.50882	28819.9625
778.39237	27689.8625
782.27321	25967.8625
786.15132	24628.2625
790.02671	23738.7625
793.89938	23305.2625
797.76935	23098.3625
801.6366	23011.0625
805.50115	22956.6625
809.36299	22829.1625
813.22213	22738.2625
817.07857	22746.3625
820.93231	22698.0625
824.78336	22676.0625
828.63172	22590.3625
832.47738	22452.5625
836.32036	22401.5625
840.16066	22432.7625
843.99827	22412.4625
847.8332	22386.8625
851.66546	22369.2625
855.49504	22372.8625
859.32195	22360.0625
863.1462	22326.6625
866.96777	22301.5625
870.78668	22263.3625
874.60293	22259.1625
878.41652	22219.5625
882.22745	22275.7625
886.03573	22304.0625
889.84136	22355.2625
893.64433	22321.9625
897.44466	22224.2625
901.24235	22170.6625
905.0374	22143.9625
908.8298	22118.0625
912.61957	22163.1625
916.40671	22385.9625
920.19121	22644.0625
923.97308	22762.6625
927.75233	22677.2625
931.52895	22463.3625
935.30295	22176.0625
939.07433	21836.4625
942.84309	21586.4625
946.60924	21408.2625
950.37278	21311.2625
954.13371	21272.7625
957.89203	21274.6625
961.64774	21236.4625
965.40086	21220.5625
969.15137	21147.1625
972.89929	21045.4625
976.64461	20987.7625
980.38733	20910.4625
984.12747	20922.2625
987.86502	21016.4625
991.59999	21095.9625
995.33237	21228.1625
999.06217	21431.7625
1002.78939	21666.1625
1006.51404	21858.7625
1010.23611	22043.1625
1013.95561	22245.0625
1017.67255	22296.1625
1021.38692	22177.5625
1025.09872	21995.1625
1028.80796	21877.2625
1032.51465	21975.9625
1036.21877	22136.1625
1039.92035	22190.2625
1043.61937	22239.4625
1047.31584	22213.0625
1051.00976	22213.1625
1054.70114	22325.7625
1058.38998	22471.5625
1062.07627	22744.9625
1065.76003	23061.3625
1069.44126	23280.7625
1073.11995	23521.8625
1076.79611	23675.2625
1080.46974	23746.5625
1084.14085	23795.5625
1087.80943	23947.7625
1091.47549	24161.8625
1095.13903	24264.5625
1098.80005	24166.4625
1102.45857	23748.1625
1106.11456	23329.4625
1109.76805	22979.2625
1113.41903	22906.3625
1117.06751	23027.2625
1120.71348	23227.3625
1124.35696	23414.6625
1127.99793	23696.8625
1131.63641	23865.6625
1135.2724	23752.5625
1138.90589	23673.9625
1142.5369	23601.0625
1146.16542	23748.6625
1149.79145	23893.0625
1153.415	24162.6625
1157.03607	24531.6625
1160.65467	25116.1625
1164.27079	25993.5625
1167.88443	27064.4625
1171.49561	28291.4625
1175.10432	29818.1625
1178.71056	31719.2625
1182.31434	33532.4625
1185.91565	34754.5625
1189.51451	35179.2625
1193.11091	34866.8625
1196.70485	33961.4625
1200.29634	32806.0625
1203.88538	31828.9625
1207.47197	31112.7625
1211.05612	30608.7625
1214.63782	30042.1625
1218.21708	29316.3625
1221.79391	28464.0625
1225.36829	27823.5625
1228.94024	27339.6625
1232.50976	26985.1625
1236.07685	26842.0625
1239.6415	26722.6625
1243.20374	26817.4625
1246.76355	26957.2625
1250.32093	27278.4625
1253.8759	27733.3625
1257.42845	28304.9625
1260.97859	28975.3625
1264.52631	29571.8625
1268.07163	30176.3625
1271.61453	30795.7625
1275.15503	31539.0625
1278.69312	32217.2625
1282.22882	32962.3625
1285.76211	33808.8625
1289.29301	34853.5625
1292.82151	36254.3625
1296.34761	37855.4625
1299.87133	39761.5625
1303.39266	41540.4625
1306.9116	43142.8625
1310.42815	44469.9625
1313.94233	45107.7625
1317.45412	45020.8625
1320.96354	44851.4625
1324.47058	44844.3625
1327.97525	44959.7625
1331.47754	45056.5625
1334.97747	45153.7625
1338.47502	45331.3625
1341.97022	45606.5625
1345.46305	45582.1625
1348.95352	45303.1625
1352.44163	44581.5625
1355.92738	43998.7625
1359.41078	43969.6625
1362.89183	44218.7625
1366.37053	43314.8625
1369.84688	40609.5625
1373.32088	37431.5625
1376.79254	35242.9625
1380.26186	34368.8625
1383.72883	34336.6625
1387.19347	34526.1625
1390.65578	34555.9625
1394.11575	34432.0625
1397.57339	34545.8625
1401.0287	34729.9625
1404.48168	34828.3625
1407.93234	34578.1625
1411.38068	33824.7625
1414.82669	32686.7625
1418.27039	31317.6625
1421.71177	29991.2625
1425.15083	28952.6625
1428.58758	28413.6625
1432.02203	28322.9625
1435.45416	28837.2625
1438.88399	29526.4625
1442.31151	30064.1625
1445.73673	30625.6625
1449.15965	31160.5625
1452.58027	31688.7625
1455.9986	32040.0625
1459.41463	32407.4625
1462.82837	32804.1625
1466.23982	33168.2625
1469.64898	33458.2625
1473.05586	33558.0625
1476.46045	33442.9625
1479.86276	33273.7625
1483.26279	33014.4625
1486.66054	32970.3625
1490.05602	33080.9625
1493.44922	33429.8625
1496.84016	34028.2625
1500.22882	34989.7625
1503.61521	36328.4625
1506.99934	37767.6625
1510.38121	38967.2625
1513.76081	39315.9625
1517.13816	38807.1625
1520.51324	37777.7625
1523.88607	36809.5625
1527.25665	36302.8625
1530.62498	36049.8625
1533.99105	35782.4625
1537.35488	35361.2625
1540.71647	34713.6625
1544.07581	33863.6625
1547.4329	32924.6625
1550.78776	32211.8625
1554.14038	31728.1625
1557.49077	31549.2625
1560.83892	31517.2625
1564.18484	31557.6625
1567.52853	31738.3625
1570.86999	31955.4625
1574.20922	32438.3625
1577.54624	32891.5625
1580.88103	33032.1625
1584.2136	33080.8625
1587.54395	33437.3625
1590.87208	34239.5625
1594.19801	35381.5625
1597.52172	36387.6625
1600.84321	36544.2625
1604.16251	35408.6625
1607.47959	33453.6625
1610.79447	31396.3625
1614.10715	29361.4625
1617.41763	27530.0625
1620.7259	26121.2625
1624.03199	25224.9625
1627.33587	24963.4625
1630.63757	25281.3625
1633.93707	26377.2625
1637.23439	28212.9625
1640.52951	30966.2625
1643.82246	34244.9625
1647.11321	37164.9625
1650.40179	38374.9625
1653.68819	37097.4625
1656.97241	33759.9625
1660.25446	29871.3625
1663.53433	26496.0625
1666.81203	23981.5625
1670.08756	22328.7625
1673.36092	21236.9625
1676.63211	20556.5625
1679.90115	20029.5625
1683.16801	19676.6625
1686.43272	19396.6625
1689.69527	19167.5625
1692.95567	19037.6625
1696.2139	18915.4625
1699.46999	18839.7625
1702.72392	18740.8625
1705.97571	18698.1625
1709.22535	18600.7625
1712.47284	18526.5625
1715.71819	18520.5625
1718.96139	18442.6625
1722.20246	18390.2625
1725.44139	18289.5625
1728.67818	18215.5625
1731.91284	18096.5625
1735.14537	17988.2625
1738.37576	17941.4625
1741.60403	17828.0625
1744.83017	17799.9625
1748.05418	17755.1625
1751.27607	17737.2625
1754.49584	17715.0625
1757.71349	17717.8625
1760.92903	17690.0625
1764.14244	17660.1625
1767.35375	17613.4625
1770.56294	17551.5625
1773.77002	17531.9625
1776.97499	17444.7625
1780.17785	17402.7625
1783.37861	17368.7625
1786.57727	17341.4625
1789.77382	17311.6625
1792.96828	17254.9625
1796.16064	17215.5625
1799.3509	17198.6625
1802.53907	17126.6625
1805.72514	17051.6625
1808.90913	17023.4625
1812.09102	16971.0625
1815.27083	16900.8625
1818.44856	16892.4625
1821.6242	16858.0625
1824.79776	16824.2625
1827.96924	16795.0625
1831.13864	16830.8625
1834.30597	16811.4625
1837.47122	16759.5625
1840.6344	16757.5625
1843.7955	16726.0625
1846.95454	16718.5625
1850.11151	16676.5625
1853.26642	16678.8625
1856.41926	16677.9625
1859.57004	16646.8625
1862.71876	16654.4625
1865.86542	16632.2625
1869.01003	16579.7625
1872.15258	16571.1625
1875.29308	16516.2625
1878.43152	16499.7625
1881.56792	16481.9625
1884.70227	16452.5625
1887.83457	16415.2625
1890.96482	16377.5625
1894.09304	16342.3625
1897.21921	16315.7625
1900.34335	16291.9625
1903.46544	16282.4625
1906.58551	16257.1625
1909.70353	16248.5625
1912.81953	16203.5625
1915.93349	16162.3625
1919.04543	16137.6625
1922.15534	16097.3625
1925.26322	16073.1625
1928.36908	15994.7625
1931.47292	15985.7625
1934.57473	15969.6625
1937.67453	15882.4625
1940.77232	15864.0625
1943.86808	15819.2625
1946.96184	15757.8625
1950.05358	15692.7625
1953.14331	15708.4625
1956.23103	15660.4625
1959.31675	15560.5625
1962.40046	15530.0625
1965.48217	15510.2625
1968.56188	15452.4625
1971.63959	15413.2625
1974.7153	15363.2625
1977.78901	15292.2625
1980.86073	15253.2625
1983.93046	15166.0625
1986.99819	15122.9625
1990.06394	15104.4625
1993.1277	15041.1625
1996.18947	14985.2625
1999.24925	14951.0625
2002.30706	14888.3625
2005.36288	14844.9625
2008.41672	14831.0625
2011.46859	14755.8625
2014.51848	14726.7625
2017.56639	14664.6625
2020.61233	14619.0625
2023.6563	14611.8625
2026.6983	14529.5625
2029.73833	14496.8625
2032.7764	14438.9625
2035.8125	14432.7625
2038.84664	14377.0625
2041.87881	14371.1625
2044.90903	14354.1625
2047.93729	14287.9625
2050.96359	14295.4625
2053.98794	14258.5625
2057.01034	14264.3625
2060.03078	14229.9625
2063.04927	14214.4625
2066.06582	14224.2625
2069.08042	14216.2625
2072.09307	14174.7625
2075.10378	14153.7625
2078.11255	14136.5625
2081.11938	14160.9625
2084.12426	14143.4625
2087.12722	14129.5625
2090.12824	14102.7625
2093.12732	14092.0625
2096.12447	14103.1625
2099.11969	14117.5625
2102.11299	14099.8625
2105.10435	14095.1625
2108.09379	14101.7625
2111.08131	14100.7625
2114.0669	14098.0625
2117.05057	14130.9625
2120.03233	14127.2625
2123.01216	14122.4625
2125.99008	14145.8625
2128.96609	14132.5625
2131.94018	14164.5625
2134.91236	14154.7625
2137.88263	14140.7625
2140.851	14160.2625
2143.81746	14193.2625
2146.78201	14168.6625
2149.74466	14183.8625
2152.7054	14129.2625
2155.66425	14104.6625
2158.6212	14119.2625
2161.57625	14078.8625
2164.52941	14095.4625
2167.48067	14094.5625
2170.43004	14076.8625
2173.37752	14048.5625
2176.32311	14062.6625
2179.26681	14054.6625
2182.20863	14053.9625
2185.14856	14053.3625
2188.08661	14043.0625
2191.02278	14027.8625
2193.95707	14053.7625
2196.88948	14024.9625
2199.82001	13983.0625
2202.74867	14004.7625
2205.67545	13973.2625
2208.60037	13919.7625
2211.52341	13903.5625
2214.44458	13886.7625
2217.36388	13893.4625
2220.28132	13830.2625
2223.1969	13804.6625
2226.11061	13785.4625
2229.02246	13764.7625
2231.93245	13726.8625
2234.84058	13662.4625
2237.74686	13624.1625
2240.65128	13654.7625
2243.55385	13614.4625
2246.45456	13554.3625
2249.35343	13549.0625
2252.25044	13540.6625
2255.14561	13507.0625
2258.03893	13527.5625
2260.93041	13458.6625
2263.82004	13434.3625
2266.70783	13399.3625
2269.59378	13326.8625
2272.4779	13291.5625
2275.36017	13292.6625
2278.24061	13273.6625
2281.11922	13213.2625
2283.996	13171.3625
2286.87094	13186.7625
2289.74405	13165.2625
2292.61534	13127.8625
2295.4848	13097.7625
2298.35243	13088.1625
2301.21824	13092.6625
2304.08223	13070.6625
2306.94439	13047.4625
2309.80474	13062.0625
2312.66327	13059.2625
2315.51999	13047.3625
2318.37489	13041.4625
2321.22797	12990.0625
2324.07925	12970.4625
2326.92871	12950.1625
2329.77637	12923.3625
2332.62222	12893.0625
2335.46626	12906.5625
2338.3085	12881.3625
2341.14893	12874.2625
2343.98756	12879.7625
2346.8244	12872.1625
2349.65943	12842.8625
2352.49267	12824.8625
2355.32411	12848.8625
2358.15376	12796.3625
2360.98161	12803.0625
2363.80768	12806.5625
2366.63195	12810.2625
2369.45444	12801.6625
2372.27514	12754.9625
2375.09405	12747.7625
2377.91118	12720.5625
2380.72652	12646.7625
2383.54009	12646.2625
2386.35187	12655.7625
2389.16188	12569.7625
2391.97011	12591.5625
2394.77657	12537.1625
2397.58125	12499.3625
2400.38416	12455.6625
2403.18529	12472.1625
2405.98466	12440.2625
2408.78226	12407.3625
2411.57809	12413.2625
2414.37216	12402.2625
2417.16446	12388.4625
2419.955	12351.2625
2422.74378	12371.5625
2425.5308	12338.5625
2428.31606	12324.0625
2431.09956	12337.3625
2433.88131	12305.1625
2436.6613	12316.6625
2439.43954	12322.9625
2442.21603	12279.5625
2444.99077	12275.0625
2447.76377	12269.2625
2450.53501	12236.1625
2453.30451	12238.0625
2456.07226	12191.4625
2458.83827	12202.6625
2461.60254	12201.6625
2464.36507	12178.6625
2467.12586	12141.2625
2469.88492	12172.4625
2472.64224	12158.2625
2475.39782	12163.5625
2478.15167	12178.2625
2480.90379	12143.0625
2483.65417	12137.4625
2486.40283	12157.5625
2489.14976	12138.7625
2491.89497	12149.3625
2494.63845	12157.4625
2497.3802	12133.9625
2500.12024	12127.1625
2502.85855	12119.3625
2505.59514	12104.9625
2508.33002	12087.6625
2511.06318	12088.5625
2513.79462	12062.5625
2516.52435	12049.5625
2519.25237	12058.6625
2521.97867	12013.8625
2524.70327	12004.9625
2527.42616	11963.2625
2530.14734	11981.3625
2532.86681	11975.1625
2535.58458	11974.7625
2538.30065	11949.2625
2541.01501	11912.2625
2543.72768	11911.3625
2546.43864	11891.2625
2549.14791	11872.6625
2551.85548	11839.2625
2554.56136	11828.5625
2557.26554	11823.2625
2559.96803	11784.3625
2562.66883	11769.7625
2565.36794	11735.9625
2568.06536	11751.1625
2570.7611	11706.7625
2573.45514	11693.9625
2576.14751	11669.9625
2578.83819	11645.7625
2581.52719	11641.7625
2584.21451	11637.9625
2586.90015	11619.8625
2589.58411	11615.2625
2592.2664	11573.4625
2594.94701	11559.8625
2597.62594	11540.1625
2600.30321	11528.3625
2602.9788	11518.0625
2605.65273	11524.2625
2608.32498	11517.7625
2610.99557	11495.5625
2613.66449	11502.4625
2616.33175	11484.5625
2618.99734	11497.6625
2621.66128	11474.8625
2624.32355	11453.2625
2626.98416	11454.9625
2629.64311	11407.2625
2632.30041	11409.2625
2634.95605	11399.3625
2637.61004	11360.3625
2640.26238	11367.1625
2642.91306	11351.7625
2645.56209	11335.7625
2648.20948	11353.4625
2650.85521	11363.7625
2653.4993	11381.1625
2656.14175	11355.5625
2658.78255	11351.8625
2661.42171	11354.0625
2664.05923	11363.7625
2666.6951	11345.1625
2669.32934	11358.2625
2671.96194	11372.2625
2674.59291	11364.5625
2677.22224	11371.6625
2679.84993	11363.8625
2682.476	11324.7625
2685.10043	11307.6625
2687.72324	11321.8625
2690.34441	11332.6625
2692.96396	11280.1625
2695.58188	11319.2625
2698.19818	11292.8625
2700.81285	11300.5625
2703.4259	11342.9625
2706.03733	11407.1625
2708.64714	11318.7625
2711.25533	11341.7625
2713.86191	11339.0625
2716.46687	11356.7625
2719.07021	11328.5625
2721.67194	11346.7625
2724.27206	11352.7625
2726.87057	11352.8625
2729.46747	11327.4625
2732.06276	11358.5625
2734.65644	11344.7625
2737.24852	11332.7625
2739.83899	11322.3625
2742.42786	11310.9625
2745.01513	11282.2625
2747.60079	11283.8625
2750.18486	11272.5625
2752.76733	11264.7625
2755.3482	11216.7625
2757.92747	11201.2625
2760.50515	11232.2625
2763.08123	11216.6625
2765.65573	11201.3625
2768.22863	11190.2625
2770.79994	11186.5625
2773.36967	11207.6625
2775.9378	11175.9625
2778.50435	11184.9625
2781.06932	11144.7625
2783.6327	11165.2625
2786.1945	11176.3625
2788.75471	11133.7625
2791.31335	11147.0625
2793.87041	11117.6625
2796.42589	11062.4625
2798.97979	11086.2625
2801.53212	11042.5625
2804.08288	11015.3625
2806.63206	10978.5625
2809.17967	10971.5625
2811.72571	10956.2625
2814.27018	10903.0625
2816.81308	10894.0625
2819.35442	10876.7625
2821.89419	10864.2625
2824.43239	10876.7625
2826.96904	10839.9625
2829.50412	10848.3625
2832.03763	10832.5625
2834.56959	10795.5625
2837.1	10796.3625
2839.62884	10821.8625
2842.15613	10814.5625
2844.68186	10839.6625
2847.20604	10844.9625
2849.72867	10883.2625
2852.24974	10871.2625
2854.76927	10862.8625
2857.28724	10859.6625
2859.80367	10831.1625
2862.31855	10804.5625
2864.83189	10786.3625
2867.34368	10780.2625
2869.85393	10782.8625
2872.36264	10740.6625
2874.8698	10731.6625
2877.37543	10708.1625
2879.87952	10702.7625
2882.38207	10701.7625
2884.88308	10715.8625
2887.38256	10723.3625
2889.88051	10723.1625
2892.37692	10719.6625
2894.8718	10703.8625
2897.36515	10703.2625
2899.85698	10698.9625
2902.34727	10737.1625
2904.83604	10759.0625
2907.32328	10758.9625
2909.809	10741.0625
2912.29319	10752.9625
2914.77587	10747.0625
2917.25702	10754.0625
2919.73665	10749.4625
2922.21476	10730.4625
2924.69136	10737.1625
2927.16644	10747.8625
2929.64	10720.2625
2932.11205	10693.3625
2934.58258	10678.7625
2937.05161	10682.1625
2939.51912	10688.2625
2941.98513	10655.7625
2944.44962	10635.1625
2946.91261	10597.9625
2949.37409	10609.4625
2951.83407	10573.8625
2954.29254	10569.9625
2956.74951	10531.9625
2959.20498	10529.9625
2961.65895	10505.6625
2964.11142	10534.1625
2966.56239	10489.7625
2969.01186	10478.2625
2971.45984	10483.3625
2973.90632	10463.6625
2976.35131	10454.8625
2978.7948	10411.1625
2981.23681	10402.8625
2983.67732	10375.8625
2986.11635	10355.2625
2988.55388	10321.1625
2990.98993	10301.8625
2993.4245	10295.7625
2995.85758	10262.8625
2998.28917	10187.3625
3000.71928	10194.5625
3003.14791	10166.3625
3005.57506	10152.3625
3008.00073	10104.9625
3010.42493	10001.1625
3012.84764	10095.9625
3015.26888	10100.0625
3017.68865	10017.0625
3020.10694	10034.0625
3022.52376	10020.8625
3024.9391	10003.6625
3027.35298	9983.4625
3029.76539	9981.2625
3032.17632	9950.0625
3034.5858	9918.6625
3036.9938	9931.9625
3039.40034	9932.8625
3041.80542	9946.0625
3044.20903	9897.0625
3046.61118	9905.4625
3049.01187	9880.6625
3051.4111	9877.4625
3053.80888	9835.0625
3056.20519	9812.1625
3058.60005	9778.6625
3060.99345	9775.0625
3063.3854	9744.7625
3065.7759	9712.1625
3068.16494	9716.1625
3070.55254	9657.0625
3072.93868	9639.2625
3075.32338	9612.6625
3077.70662	9602.9625
3080.08842	9584.2625
3082.46878	9565.4625
3084.84769	9515.3625
3087.22515	9552.4625
3089.60118	9521.3625
3091.97576	9537.0625
3094.3489	9516.9625
3096.72061	9510.0625
3099.09087	9530.4625
3101.4597	9500.3625
3103.82709	9527.5625
3106.19305	9489.9625
3108.55757	9504.6625
3110.92066	9451.0625
3113.28232	9441.2625
3115.64255	9446.5625
3118.00134	9385.9625
3120.35871	9394.4625
3122.71466	9363.2625
3125.06917	9339.7625
3127.42226	9307.4625
3129.77393	9300.9625
3132.12417	9301.6625
3134.47299	9317.7625
3136.82039	9293.1625
3139.16636	9300.3625
3141.51092	9292.3625
3143.85406	9278.9625
3146.19579	9295.3625
3148.53609	9280.3625
3150.87499	9281.5625
3153.21246	9281.6625
3155.54853	9311.1625
3157.88318	9284.0625
3160.21642	9320.3625
3162.54826	9302.8625
3164.87868	9298.9625
3167.2077	9270.8625
3169.5353	9305.1625
3171.86151	9282.3625
3174.18631	9290.6625
3176.5097	9292.2625
3178.83169	9248.4625
3181.15228	9259.0625
3183.47147	9245.8625
3185.78926	9243.2625
3188.10565	9219.3625
3190.42065	9200.9625
3192.73424	9172.2625
3195.04645	9173.6625
3197.35725	9176.0625
3199.66667	9147.4625
3201.97469	9148.3625
3204.28132	9161.6625
3206.58656	9152.8625
3208.8904	9199.2625
3211.19287	9182.1625
3213.49394	9156.1625
3215.79363	9186.7625
3218.09193	9192.5625
3220.38884	9174.8625
3222.68438	9190.2625
3224.97853	9194.5625
3227.2713	9168.0625
3229.56269	9133.4625
3231.8527	9133.2625
3234.14133	9107.7625
3236.42858	9064.3625
3238.71446	9077.5625
3240.99896	9047.7625
3243.28209	9061.8625
3245.56384	9024.2625
3247.84423	8996.7625
3250.12324	9000.7625
3252.40088	9006.5625
3254.67715	8996.5625
3256.95205	8990.1625
3259.22558	8984.9625
3261.49775	8974.4625
3263.76855	8943.1625
3266.03799	8940.3625
3268.30606	8896.1625
3270.57277	8894.5625
3272.83812	8882.3625
3275.10211	8849.6625
3277.36474	8835.7625
3279.62601	8827.9625
3281.88593	8795.8625
3284.14448	8830.2625
3286.40168	8798.8625
3288.65753	8797.6625
3290.91202	8796.3625
3293.16516	8794.0625
3295.41695	8741.5625
3297.66738	8707.5625
3299.91647	8648.6625
3302.16421	8604.4625
3304.4106	8572.6625
3306.65564	8518.5625
3308.89933	8469.2625
3311.14169	8406.3625
3313.38269	8336.1625
3315.62236	8285.1625
3317.86068	8221.8625
3320.09766	8159.4625
3322.3333	8091.0625
3324.5676	8044.8625
3326.80056	7934.9625
3329.03219	7871.1625
3331.26248	3.9625
3333.49143	-2.0375
3335.71905	-1.0375
