Data from AgNPs_FTO_APTES_UA_5uM_CRN_500uM_R6G_10uM_NaF_0.1M_Addition_RamanShift__12__16-54-41-825.txt Node

Date: Mon Feb 07 16:54:41 GMT 2022
User: TCL
Spectrometer: QEP01345
Trigger mode: 4
Integration Time (sec): 7.000000E0
Scans to average: 10
Electric dark correction enabled: true
Nonlinearity correction enabled: false
Boxcar width: 0
XAxis mode: Raman Shifts
Number of Pixels in Spectrum: 1044
>>>>>Begin Spectral Data<<<<<
46.04893	-0.2375
50.45542	-1.3375
54.85868	-0.5375
59.25871	-0.9375
63.6555	60.1625
68.04907	63.6625
72.43941	68.6625
76.82654	68.2625
81.21044	69.5625
85.59113	70.0625
89.96862	75.3625
94.34289	77.3625
98.71396	81.0625
103.08183	81.1625
107.4465	87.0625
111.80798	87.7625
116.16626	88.0625
120.52136	94.1625
124.87327	99.9625
129.222	104.6625
133.56755	107.0625
137.90993	119.3625
142.24913	135.2625
146.58517	152.1625
150.91804	172.0625
155.24774	215.7625
159.57429	271.8625
163.89768	342.0625
168.21792	470.0625
172.53501	635.9625
176.84895	891.0625
181.15975	1252.4625
185.46741	1759.1625
189.77193	2439.4625
194.07331	3272.8625
198.37157	4226.5625
202.6667	5248.7625
206.9587	6210.7625
211.24758	7213.9625
215.53334	8183.2625
219.81599	9188.7625
224.09553	10293.9625
228.37195	11522.4625
232.64527	12851.5625
236.91549	14279.0625
241.18261	15688.0625
245.44663	17070.4625
249.70755	18317.1625
253.96539	19451.9625
258.22014	20353.8625
262.4718	21081.4625
266.72039	21608.3625
270.96589	21882.3625
275.20832	21974.0625
279.44768	21917.5625
283.68397	21771.6625
287.91719	21698.5625
292.14735	21677.2625
296.37445	21647.3625
300.59849	21737.2625
304.81948	21812.5625
309.03742	21735.6625
313.25231	21547.9625
317.46415	21097.6625
321.67296	20587.1625
325.87872	20106.1625
330.08145	19850.3625
334.28114	19831.7625
338.47781	19901.8625
342.67145	20057.8625
346.86207	20292.3625
351.04966	20521.1625
355.23424	20747.5625
359.4158	20940.5625
363.59435	21079.5625
367.76989	21212.1625
371.94243	21278.1625
376.11196	21399.9625
380.27849	21369.7625
384.44203	21473.0625
388.60257	21613.5625
392.76012	21836.6625
396.91468	22144.1625
401.06626	22506.3625
405.21485	22748.5625
409.36047	22690.0625
413.50311	22462.4625
417.64277	22291.2625
421.77947	22266.1625
425.9132	22377.0625
430.04396	22495.8625
434.17176	22663.4625
438.2966	22815.8625
442.41849	23098.7625
446.53742	23498.4625
450.6534	24051.8625
454.76644	24390.8625
458.87653	24598.8625
462.98368	24599.9625
467.08789	24546.7625
471.18916	24418.8625
475.2875	24307.3625
479.38291	24266.3625
483.4754	24200.4625
487.56496	23994.9625
491.6516	23651.9625
495.73531	23256.6625
499.81612	22952.1625
503.89401	22938.6625
507.96899	22999.8625
512.04106	22977.0625
516.11023	22916.4625
520.1765	22752.9625
524.23987	22565.8625
528.30034	22288.9625
532.35792	22093.4625
536.41261	21910.5625
540.46441	21782.1625
544.51333	21847.3625
548.55936	22114.8625
552.60252	22569.3625
556.64279	23075.6625
560.6802	23481.8625
564.71473	23841.4625
568.7464	24348.3625
572.7752	25147.7625
576.80114	26050.4625
580.82422	26762.4625
584.84444	27310.4625
588.86181	27825.8625
592.87633	28287.2625
596.888	28097.3625
600.89682	27257.1625
604.9028	26808.3625
608.90594	27389.7625
612.90624	28252.1625
616.90371	26643.8625
620.89834	23628.2625
624.89015	22346.5625
628.87913	22316.0625
632.86528	22578.7625
636.84862	22689.7625
640.82913	22368.2625
644.80683	21951.9625
648.78172	21611.8625
652.75379	21493.0625
656.72306	21605.6625
660.68952	21804.5625
664.65319	21721.0625
668.61405	21591.3625
672.57211	21554.7625
676.52738	21587.2625
680.47986	21596.9625
684.42955	21582.0625
688.37646	21485.5625
692.32058	21525.6625
696.26192	21678.2625
700.20048	21837.3625
704.13626	22020.0625
708.06928	22165.9625
711.99952	22196.2625
715.927	22136.0625
719.85171	22077.6625
723.77365	21893.2625
727.69284	21645.5625
731.60928	21401.1625
735.52295	21286.8625
739.43388	21199.9625
743.34206	21239.0625
747.24749	21317.7625
751.15017	21578.6625
755.05012	21941.3625
758.94733	22462.3625
762.8418	23402.1625
766.73354	24753.3625
770.62254	25975.7625
774.50882	26115.2625
778.39237	25121.7625
782.27321	23642.9625
786.15132	22488.7625
790.02671	21765.9625
793.89938	21319.5625
797.76935	21132.3625
801.6366	20966.1625
805.50115	20917.2625
809.36299	20837.6625
813.22213	20737.7625
817.07857	20767.5625
820.93231	20763.8625
824.78336	20687.8625
828.63172	20576.6625
832.47738	20543.5625
836.32036	20462.2625
840.16066	20420.3625
843.99827	20410.9625
847.8332	20406.7625
851.66546	20454.5625
855.49504	20430.0625
859.32195	20452.1625
863.1462	20405.3625
866.96777	20396.6625
870.78668	20327.6625
874.60293	20346.2625
878.41652	20349.9625
882.22745	20394.2625
886.03573	20416.8625
889.84136	20448.1625
893.64433	20410.1625
897.44466	20340.3625
901.24235	20337.9625
905.0374	20302.6625
908.8298	20283.7625
912.61957	20382.4625
916.40671	20600.1625
920.19121	20933.4625
923.97308	21132.9625
927.75233	21002.1625
931.52895	20733.9625
935.30295	20409.7625
939.07433	20048.3625
942.84309	19777.3625
946.60924	19581.3625
950.37278	19463.7625
954.13371	19405.4625
957.89203	19429.6625
961.64774	19438.2625
965.40086	19409.0625
969.15137	19353.9625
972.89929	19245.7625
976.64461	19139.6625
980.38733	19091.7625
984.12747	19054.9625
987.86502	19080.6625
991.59999	19157.0625
995.33237	19187.7625
999.06217	19366.8625
1002.78939	19494.6625
1006.51404	19726.9625
1010.23611	19993.6625
1013.95561	20153.2625
1017.67255	20256.6625
1021.38692	20175.4625
1025.09872	19993.3625
1028.80796	19811.1625
1032.51465	19706.5625
1036.21877	19708.4625
1039.92035	19846.7625
1043.61937	19894.5625
1047.31584	20002.8625
1051.00976	20092.7625
1054.70114	20215.6625
1058.38998	20379.5625
1062.07627	20651.1625
1065.76003	20976.7625
1069.44126	21223.5625
1073.11995	21501.3625
1076.79611	21664.0625
1080.46974	21725.9625
1084.14085	21765.9625
1087.80943	21852.8625
1091.47549	22064.1625
1095.13903	22184.3625
1098.80005	22055.8625
1102.45857	21621.5625
1106.11456	21151.4625
1109.76805	20833.4625
1113.41903	20750.1625
1117.06751	20830.9625
1120.71348	21018.5625
1124.35696	21247.7625
1127.99793	21570.7625
1131.63641	21780.5625
1135.2724	21711.5625
1138.90589	21573.7625
1142.5369	21579.4625
1146.16542	21703.7625
1149.79145	21965.5625
1153.415	22252.0625
1157.03607	22579.9625
1160.65467	23127.1625
1164.27079	23946.4625
1167.88443	24954.9625
1171.49561	26049.2625
1175.10432	27285.7625
1178.71056	28816.2625
1182.31434	30335.5625
1185.91565	31292.6625
1189.51451	31589.6625
1193.11091	31400.4625
1196.70485	30718.5625
1200.29634	29885.7625
1203.88538	29165.3625
1207.47197	28763.7625
1211.05612	28469.6625
1214.63782	28045.6625
1218.21708	27352.7625
1221.79391	26412.2625
1225.36829	25627.0625
1228.94024	25103.8625
1232.50976	24795.3625
1236.07685	24620.6625
1239.6415	24475.3625
1243.20374	24481.5625
1246.76355	24601.9625
1250.32093	24882.6625
1253.8759	25254.1625
1257.42845	25784.4625
1260.97859	26431.0625
1264.52631	27029.8625
1268.07163	27681.6625
1271.61453	28228.1625
1275.15503	28930.0625
1278.69312	29726.1625
1282.22882	30562.6625
1285.76211	31535.9625
1289.29301	32690.8625
1292.82151	34141.5625
1296.34761	35792.2625
1299.87133	37560.4625
1303.39266	39226.8625
1306.9116	40635.8625
1310.42815	41550.7625
1313.94233	41880.6625
1317.45412	41662.6625
1320.96354	41384.7625
1324.47058	41117.8625
1327.97525	41126.6625
1331.47754	41173.7625
1334.97747	41252.4625
1338.47502	41272.8625
1341.97022	41330.1625
1345.46305	41372.8625
1348.95352	41260.5625
1352.44163	40837.9625
1355.92738	40606.3625
1359.41078	40785.5625
1362.89183	41030.0625
1366.37053	40197.3625
1369.84688	37836.6625
1373.32088	34828.1625
1376.79254	32676.4625
1380.26186	31891.0625
1383.72883	31866.9625
1387.19347	31978.4625
1390.65578	31935.4625
1394.11575	31906.9625
1397.57339	31971.0625
1401.0287	32159.9625
1404.48168	32195.1625
1407.93234	31870.3625
1411.38068	31092.0625
1414.82669	29886.8625
1418.27039	28516.1625
1421.71177	27346.6625
1425.15083	26311.1625
1428.58758	25777.6625
1432.02203	25808.2625
1435.45416	26234.3625
1438.88399	26844.7625
1442.31151	27375.8625
1445.73673	27696.5625
1449.15965	28129.0625
1452.58027	28553.3625
1455.9986	28880.3625
1459.41463	29262.4625
1462.82837	29590.6625
1466.23982	29997.1625
1469.64898	30344.6625
1473.05586	30583.3625
1476.46045	30504.9625
1479.86276	30414.8625
1483.26279	30253.8625
1486.66054	30156.3625
1490.05602	30348.0625
1493.44922	30725.0625
1496.84016	31313.2625
1500.22882	32172.0625
1503.61521	33290.7625
1506.99934	34401.8625
1510.38121	35146.9625
1513.76081	35400.6625
1517.13816	34975.4625
1520.51324	34450.4625
1523.88607	34152.0625
1527.25665	34054.8625
1530.62498	33952.1625
1533.99105	33717.2625
1537.35488	33134.3625
1540.71647	32302.4625
1544.07581	31310.8625
1547.4329	30277.3625
1550.78776	29419.7625
1554.14038	28843.6625
1557.49077	28525.2625
1560.83892	28297.0625
1564.18484	28347.2625
1567.52853	28409.0625
1570.86999	28710.9625
1574.20922	29203.2625
1577.54624	29711.5625
1580.88103	29837.5625
1584.2136	29963.5625
1587.54395	30317.7625
1590.87208	31203.5625
1594.19801	32414.2625
1597.52172	33560.5625
1600.84321	33737.6625
1604.16251	32575.2625
1607.47959	30587.3625
1610.79447	28575.0625
1614.10715	26557.6625
1617.41763	24813.4625
1620.7259	23491.5625
1624.03199	22750.3625
1627.33587	22555.7625
1630.63757	22923.5625
1633.93707	23935.2625
1637.23439	25797.3625
1640.52951	28602.1625
1643.82246	32128.4625
1647.11321	35395.9625
1650.40179	36810.8625
1653.68819	35619.5625
1656.97241	32205.6625
1660.25446	28180.4625
1663.53433	24680.0625
1666.81203	22169.7625
1670.08756	20412.6625
1673.36092	19306.7625
1676.63211	18647.1625
1679.90115	18133.1625
1683.16801	17774.7625
1686.43272	17497.4625
1689.69527	17314.6625
1692.95567	17143.1625
1696.2139	17014.0625
1699.46999	16891.6625
1702.72392	16806.2625
1705.97571	16749.9625
1709.22535	16708.3625
1712.47284	16644.7625
1715.71819	16637.8625
1718.96139	16567.4625
1722.20246	16528.6625
1725.44139	16422.2625
1728.67818	16331.6625
1731.91284	16273.2625
1735.14537	16152.2625
1738.37576	16088.0625
1741.60403	15992.2625
1744.83017	15929.8625
1748.05418	15874.8625
1751.27607	15861.7625
1754.49584	15813.5625
1757.71349	15827.9625
1760.92903	15784.1625
1764.14244	15792.6625
1767.35375	15775.4625
1770.56294	15736.3625
1773.77002	15669.0625
1776.97499	15618.8625
1780.17785	15570.5625
1783.37861	15544.4625
1786.57727	15495.9625
1789.77382	15496.2625
1792.96828	15419.7625
1796.16064	15370.0625
1799.3509	15330.4625
1802.53907	15313.8625
1805.72514	15253.1625
1808.90913	15199.4625
1812.09102	15144.5625
1815.27083	15109.4625
1818.44856	15051.8625
1821.6242	15034.2625
1824.79776	15019.0625
1827.96924	15018.6625
1831.13864	14995.9625
1834.30597	14972.7625
1837.47122	14935.8625
1840.6344	14909.1625
1843.7955	14891.2625
1846.95454	14874.8625
1850.11151	14864.5625
1853.26642	14845.0625
1856.41926	14823.9625
1859.57004	14792.3625
1862.71876	14752.6625
1865.86542	14748.6625
1869.01003	14745.6625
1872.15258	14682.6625
1875.29308	14669.4625
1878.43152	14628.2625
1881.56792	14623.7625
1884.70227	14599.2625
1887.83457	14570.6625
1890.96482	14549.1625
1894.09304	14491.1625
1897.21921	14502.6625
1900.34335	14444.5625
1903.46544	14430.1625
1906.58551	14393.6625
1909.70353	14388.4625
1912.81953	14331.2625
1915.93349	14321.6625
1919.04543	14290.2625
1922.15534	14241.6625
1925.26322	14174.8625
1928.36908	14180.7625
1931.47292	14153.9625
1934.57473	14126.6625
1937.67453	14107.2625
1940.77232	14054.7625
1943.86808	13999.6625
1946.96184	13938.2625
1950.05358	13896.4625
1953.14331	13846.9625
1956.23103	13761.2625
1959.31675	13738.4625
1962.40046	13694.1625
1965.48217	13656.4625
1968.56188	13617.7625
1971.63959	13541.5625
1974.7153	13513.5625
1977.78901	13463.1625
1980.86073	13431.6625
1983.93046	13393.3625
1986.99819	13335.2625
1990.06394	13284.0625
1993.1277	13235.7625
1996.18947	13157.2625
1999.24925	13119.1625
2002.30706	13088.6625
2005.36288	13062.4625
2008.41672	12993.9625
2011.46859	12969.0625
2014.51848	12939.8625
2017.56639	12878.0625
2020.61233	12818.8625
2023.6563	12779.6625
2026.6983	12713.1625
2029.73833	12709.6625
2032.7764	12661.0625
2035.8125	12638.8625
2038.84664	12611.6625
2041.87881	12560.9625
2044.90903	12530.6625
2047.93729	12514.1625
2050.96359	12515.1625
2053.98794	12468.0625
2057.01034	12467.2625
2060.03078	12422.6625
2063.04927	12440.8625
2066.06582	12434.3625
2069.08042	12420.4625
2072.09307	12422.9625
2075.10378	12356.9625
2078.11255	12341.4625
2081.11938	12365.4625
2084.12426	12340.7625
2087.12722	12326.6625
2090.12824	12298.8625
2093.12732	12332.4625
2096.12447	12317.5625
2099.11969	12283.5625
2102.11299	12276.4625
2105.10435	12282.6625
2108.09379	12266.9625
2111.08131	12283.1625
2114.0669	12299.6625
2117.05057	12301.4625
2120.03233	12287.3625
2123.01216	12312.6625
2125.99008	12298.8625
2128.96609	12302.5625
2131.94018	12303.8625
2134.91236	12307.0625
2137.88263	12311.6625
2140.851	12316.5625
2143.81746	12295.2625
2146.78201	12278.5625
2149.74466	12274.9625
2152.7054	12273.1625
2155.66425	12230.9625
2158.6212	12219.3625
2161.57625	12190.1625
2164.52941	12195.0625
2167.48067	12182.5625
2170.43004	12151.6625
2173.37752	12167.5625
2176.32311	12162.4625
2179.26681	12183.9625
2182.20863	12155.0625
2185.14856	12178.1625
2188.08661	12138.1625
2191.02278	12177.4625
2193.95707	12136.7625
2196.88948	12104.7625
2199.82001	12081.3625
2202.74867	12067.7625
2205.67545	12050.0625
2208.60037	11997.4625
2211.52341	11972.5625
2214.44458	11935.9625
2217.36388	11921.5625
2220.28132	11904.0625
2223.1969	11858.8625
2226.11061	11837.9625
2229.02246	11823.3625
2231.93245	11805.7625
2234.84058	11756.6625
2237.74686	11745.7625
2240.65128	11734.1625
2243.55385	11709.2625
2246.45456	11711.9625
2249.35343	11670.1625
2252.25044	11632.8625
2255.14561	11611.0625
2258.03893	11554.3625
2260.93041	11543.2625
2263.82004	11503.2625
2266.70783	11490.4625
2269.59378	11423.1625
2272.4779	11413.1625
2275.36017	11369.7625
2278.24061	11352.3625
2281.11922	11310.7625
2283.996	11311.1625
2286.87094	11292.3625
2289.74405	11217.6625
2292.61534	11212.8625
2295.4848	11189.7625
2298.35243	11195.8625
2301.21824	11186.5625
2304.08223	11192.6625
2306.94439	11203.7625
2309.80474	11179.7625
2312.66327	11161.6625
2315.51999	11107.4625
2318.37489	11115.8625
2321.22797	11053.4625
2324.07925	11051.7625
2326.92871	11044.0625
2329.77637	11024.7625
2332.62222	10988.6625
2335.46626	10992.5625
2338.3085	10943.4625
2341.14893	10945.5625
2343.98756	10938.4625
2346.8244	10889.5625
2349.65943	10928.5625
2352.49267	10892.4625
2355.32411	10878.3625
2358.15376	10896.6625
2360.98161	10873.6625
2363.80768	10895.6625
2366.63195	10889.7625
2369.45444	10845.0625
2372.27514	10832.1625
2375.09405	10806.7625
2377.91118	10780.7625
2380.72652	10780.9625
2383.54009	10741.8625
2386.35187	10692.2625
2389.16188	10708.0625
2391.97011	10648.4625
2394.77657	10619.0625
2397.58125	10573.5625
2400.38416	10570.0625
2403.18529	10531.2625
2405.98466	10542.7625
2408.78226	10521.9625
2411.57809	10519.6625
2414.37216	10490.3625
2417.16446	10492.5625
2419.955	10480.2625
2422.74378	10469.1625
2425.5308	10459.6625
2428.31606	10434.4625
2431.09956	10392.0625
2433.88131	10388.1625
2436.6613	10411.7625
2439.43954	10388.4625
2442.21603	10368.7625
2444.99077	10361.4625
2447.76377	10348.1625
2450.53501	10311.5625
2453.30451	10317.3625
2456.07226	10308.6625
2458.83827	10280.4625
2461.60254	10285.7625
2464.36507	10253.0625
2467.12586	10283.3625
2469.88492	10237.2625
2472.64224	10254.6625
2475.39782	10244.8625
2478.15167	10224.6625
2480.90379	10212.4625
2483.65417	10203.8625
2486.40283	10198.1625
2489.14976	10228.0625
2491.89497	10209.3625
2494.63845	10210.4625
2497.3802	10203.2625
2500.12024	10181.7625
2502.85855	10172.1625
2505.59514	10153.2625
2508.33002	10125.5625
2511.06318	10140.1625
2513.79462	10113.6625
2516.52435	10076.0625
2519.25237	10100.5625
2521.97867	10065.8625
2524.70327	10038.2625
2527.42616	10042.1625
2530.14734	10031.8625
2532.86681	10022.2625
2535.58458	10021.9625
2538.30065	9985.0625
2541.01501	9983.9625
2543.72768	9956.5625
2546.43864	9935.2625
2549.14791	9929.7625
2551.85548	9906.9625
2554.56136	9869.9625
2557.26554	9858.0625
2559.96803	9859.0625
2562.66883	9813.3625
2565.36794	9821.8625
2568.06536	9823.7625
2570.7611	9804.3625
2573.45514	9777.4625
2576.14751	9765.3625
2578.83819	9736.0625
2581.52719	9727.8625
2584.21451	9710.1625
2586.90015	9672.1625
2589.58411	9684.1625
2592.2664	9676.7625
2594.94701	9648.9625
2597.62594	9622.2625
2600.30321	9607.9625
2602.9788	9597.4625
2605.65273	9603.6625
2608.32498	9588.9625
2610.99557	9596.3625
2613.66449	9559.6625
2616.33175	9552.2625
2618.99734	9551.2625
2621.66128	9535.8625
2624.32355	9542.7625
2626.98416	9511.1625
2629.64311	9480.9625
2632.30041	9475.7625
2634.95605	9472.6625
2637.61004	9446.3625
2640.26238	9441.1625
2642.91306	9406.2625
2645.56209	9401.2625
2648.20948	9442.2625
2650.85521	9436.3625
2653.4993	9427.0625
2656.14175	9411.8625
2658.78255	9445.0625
2661.42171	9427.7625
2664.05923	9435.0625
2666.6951	9389.2625
2669.32934	9432.2625
2671.96194	9409.7625
2674.59291	9396.9625
2677.22224	9409.6625
2679.84993	9396.0625
2682.476	9375.6625
2685.10043	9375.0625
2687.72324	9375.6625
2690.34441	9354.6625
2692.96396	9345.6625
2695.58188	9377.6625
2698.19818	9376.4625
2700.81285	9379.3625
2703.4259	9393.9625
2706.03733	9368.1625
2708.64714	9351.4625
2711.25533	9375.7625
2713.86191	9350.1625
2716.46687	9381.5625
2719.07021	9359.1625
2721.67194	9365.1625
2724.27206	9352.0625
2726.87057	9377.0625
2729.46747	9370.1625
2732.06276	9353.6625
2734.65644	9361.6625
2737.24852	9346.9625
2739.83899	9336.0625
2742.42786	9322.4625
2745.01513	9332.1625
2747.60079	9299.2625
2750.18486	9276.8625
2752.76733	9290.7625
2755.3482	9239.0625
2757.92747	9254.6625
2760.50515	9261.0625
2763.08123	9249.5625
2765.65573	9204.1625
2768.22863	9194.6625
2770.79994	9207.1625
2773.36967	9195.2625
2775.9378	9191.6625
2778.50435	9205.2625
2781.06932	9185.1625
2783.6327	9171.7625
2786.1945	9156.5625
2788.75471	9162.9625
2791.31335	9144.5625
2793.87041	9132.6625
2796.42589	9109.3625
2798.97979	9089.2625
2801.53212	9066.0625
2804.08288	9056.3625
2806.63206	9027.3625
2809.17967	9011.0625
2811.72571	8994.0625
2814.27018	8974.5625
2816.81308	8963.3625
2819.35442	8935.3625
2821.89419	8914.6625
2824.43239	8920.2625
2826.96904	8908.6625
2829.50412	8899.2625
2832.03763	8860.9625
2834.56959	8852.5625
2837.1	8860.5625
2839.62884	8877.4625
2842.15613	8872.1625
2844.68186	8941.0625
2847.20604	8941.6625
2849.72867	8972.3625
2852.24974	8957.5625
2854.76927	8944.8625
2857.28724	8942.1625
2859.80367	8917.5625
2862.31855	8892.9625
2864.83189	8866.4625
2867.34368	8861.5625
2869.85393	8824.7625
2872.36264	8841.8625
2874.8698	8841.6625
2877.37543	8813.7625
2879.87952	8806.1625
2882.38207	8793.9625
2884.88308	8803.8625
2887.38256	8789.5625
2889.88051	8786.5625
2892.37692	8780.7625
2894.8718	8784.8625
2897.36515	8784.3625
2899.85698	8764.0625
2902.34727	8810.5625
2904.83604	8798.5625
2907.32328	8824.1625
2909.809	8784.3625
2912.29319	8806.8625
2914.77587	8797.6625
2917.25702	8770.9625
2919.73665	8748.6625
2922.21476	8765.9625
2924.69136	8760.4625
2927.16644	8766.8625
2929.64	8737.4625
2932.11205	8748.2625
2934.58258	8719.0625
2937.05161	8726.9625
2939.51912	8703.6625
2941.98513	8694.5625
2944.44962	8664.0625
2946.91261	8621.3625
2949.37409	8639.4625
2951.83407	8605.0625
2954.29254	8577.7625
2956.74951	8596.4625
2959.20498	8581.3625
2961.65895	8556.7625
2964.11142	8560.0625
2966.56239	8525.9625
2969.01186	8520.2625
2971.45984	8511.4625
2973.90632	8471.7625
2976.35131	8453.4625
2978.7948	8422.6625
2981.23681	8398.8625
2983.67732	8395.4625
2986.11635	8370.5625
2988.55388	8347.7625
2990.98993	8331.1625
2993.4245	8277.6625
2995.85758	8253.3625
2998.28917	8252.9625
3000.71928	8225.0625
3003.14791	8198.0625
3005.57506	8193.0625
3008.00073	8166.0625
3010.42493	8138.0625
3012.84764	8132.0625
3015.26888	8135.7625
3017.68865	8082.1625
3020.10694	8085.3625
3022.52376	8051.7625
3024.9391	8062.6625
3027.35298	8040.9625
3029.76539	8026.4625
3032.17632	7999.3625
3034.5858	7989.3625
3036.9938	7999.7625
3039.40034	7985.3625
3041.80542	7978.6625
3044.20903	7953.3625
3046.61118	7970.3625
3049.01187	7941.8625
3051.4111	7917.7625
3053.80888	7905.2625
3056.20519	7881.2625
3058.60005	7851.8625
3060.99345	7848.2625
3063.3854	7822.0625
3065.7759	7786.5625
3068.16494	7765.2625
3070.55254	7739.2625
3072.93868	7745.3625
3075.32338	7698.4625
3077.70662	7688.2625
3080.08842	7643.6625
3082.46878	7655.2625
3084.84769	7630.6625
3087.22515	7637.5625
3089.60118	7625.0625
3091.97576	7609.8625
3094.3489	7613.2625
3096.72061	7620.7625
3099.09087	7613.5625
3101.4597	7609.0625
3103.82709	7607.0625
3106.19305	7575.1625
3108.55757	7579.3625
3110.92066	7542.3625
3113.28232	7529.3625
3115.64255	7503.9625
3118.00134	7500.3625
3120.35871	7485.7625
3122.71466	7479.7625
3125.06917	7448.8625
3127.42226	7424.8625
3129.77393	7449.8625
3132.12417	7406.1625
3134.47299	7421.7625
3136.82039	7415.0625
3139.16636	7433.2625
3141.51092	7405.8625
3143.85406	7406.0625
3146.19579	7413.8625
3148.53609	7410.2625
3150.87499	7380.4625
3153.21246	7412.0625
3155.54853	7415.3625
3157.88318	7431.9625
3160.21642	7429.7625
3162.54826	7432.1625
3164.87868	7423.9625
3167.2077	7422.8625
3169.5353	7413.2625
3171.86151	7423.7625
3174.18631	7401.1625
3176.5097	7406.9625
3178.83169	7388.7625
3181.15228	7375.8625
3183.47147	7358.4625
3185.78926	7356.7625
3188.10565	7344.7625
3190.42065	7338.9625
3192.73424	7306.7625
3195.04645	7322.4625
3197.35725	7303.2625
3199.66667	7268.7625
3201.97469	7288.6625
3204.28132	7288.5625
3206.58656	7302.5625
3208.8904	7301.9625
3211.19287	7296.8625
3213.49394	7287.1625
3215.79363	7294.1625
3218.09193	7277.0625
3220.38884	7267.3625
3222.68438	7258.1625
3224.97853	7276.4625
3227.2713	7264.0625
3229.56269	7254.0625
3231.8527	7264.5625
3234.14133	7235.3625
3236.42858	7220.5625
3238.71446	7222.1625
3240.99896	7194.5625
3243.28209	7149.7625
3245.56384	7143.3625
3247.84423	7159.6625
3250.12324	7142.4625
3252.40088	7130.3625
3254.67715	7115.0625
3256.95205	7106.0625
3259.22558	7084.4625
3261.49775	7094.7625
3263.76855	7080.8625
3266.03799	7054.6625
3268.30606	7036.0625
3270.57277	7015.5625
3272.83812	7011.0625
3275.10211	6982.2625
3277.36474	6978.6625
3279.62601	6990.4625
3281.88593	6956.2625
3284.14448	6963.3625
3286.40168	6959.1625
3288.65753	7002.7625
3290.91202	6965.7625
3293.16516	6957.4625
3295.41695	6914.9625
3297.66738	6872.6625
3299.91647	6830.1625
3302.16421	6771.2625
3304.4106	6721.2625
3306.65564	6706.3625
3308.89933	6656.4625
3311.14169	6611.6625
3313.38269	6543.2625
3315.62236	6502.1625
3317.86068	6422.9625
3320.09766	6389.5625
3322.3333	6341.8625
3324.5676	6299.8625
3326.80056	6198.2625
3329.03219	6164.4625
3331.26248	3.3625
3333.49143	0.8625
3335.71905	-1.1375
