Data from AgNP_FTO_APTES_UA_100uM_CRN_10uM_R6G_10uM_NaF_0.1M_Addition_RamanShift__4__15-21-40-400.txt Node

Date: Thu Mar 24 15:21:40 GMT 2022
User: TCL
Spectrometer: QEP01345
Trigger mode: 4
Integration Time (sec): 7.000000E0
Scans to average: 10
Electric dark correction enabled: true
Nonlinearity correction enabled: false
Boxcar width: 0
XAxis mode: Raman Shifts
Number of Pixels in Spectrum: 1044
>>>>>Begin Spectral Data<<<<<
46.04893	-0.7625
50.45542	1.1375
54.85868	-0.0625
59.25871	-0.6625
63.6555	-0.6625
68.04907	1.5375
72.43941	-0.1625
76.82654	-3.2625
81.21044	2.0375
85.59113	1.5375
89.96862	0.7375
94.34289	-1.4625
98.71396	0.5375
103.08183	-0.8625
107.4465	-2.3625
111.80798	0.3375
116.16626	0.2375
120.52136	-2.5625
124.87327	-5.4625
129.222	0.9375
133.56755	1.6375
137.90993	-3.2625
142.24913	2.9375
146.58517	-3.2625
150.91804	0.0375
155.24774	-1.9625
159.57429	-1.3625
163.89768	-4.0625
168.21792	-1.0625
172.53501	-1.1625
176.84895	0.7375
181.15975	0.9375
185.46741	-2.8625
189.77193	-1.8625
194.07331	-5.1625
198.37157	-1.7625
202.6667	-3.0625
206.9587	-11.5625
211.24758	-4.7625
215.53334	-2.6625
219.81599	-6.3625
224.09553	0.8375
228.37195	-3.7625
232.64527	-3.6625
236.91549	-7.0625
241.18261	-3.7625
245.44663	-3.3625
249.70755	-4.9625
253.96539	-7.6625
258.22014	-3.8625
262.4718	-7.0625
266.72039	-6.4625
270.96589	-4.2625
275.20832	-5.5625
279.44768	-3.8625
283.68397	-2.6625
287.91719	-1.0625
292.14735	-7.1625
296.37445	-5.0625
300.59849	-4.7625
304.81948	-6.7625
309.03742	-5.8625
313.25231	-3.8625
317.46415	-3.2625
321.67296	-0.3625
325.87872	-3.9625
330.08145	-5.1625
334.28114	-5.7625
338.47781	-5.6625
342.67145	-4.8625
346.86207	-8.2625
351.04966	-2.3625
355.23424	-6.5625
359.4158	-1.0625
363.59435	-5.3625
367.76989	-2.3625
371.94243	-5.9625
376.11196	-3.0625
380.27849	-1.3625
384.44203	-5.6625
388.60257	-0.9625
392.76012	-2.1625
396.91468	-2.8625
401.06626	-7.0625
405.21485	-3.1625
409.36047	-2.0625
413.50311	-1.5625
417.64277	-2.4625
421.77947	0.0375
425.9132	2.6375
430.04396	3.8375
434.17176	3.0375
438.2966	1.9375
442.41849	0.1375
446.53742	1.0375
450.6534	-0.3625
454.76644	-2.8625
458.87653	-2.9625
462.98368	-1.0625
467.08789	-2.3625
471.18916	-7.2625
475.2875	-8.1625
479.38291	-2.7625
483.4754	-3.3625
487.56496	-2.4625
491.6516	3.2375
495.73531	-4.8625
499.81612	-6.3625
503.89401	-2.8625
507.96899	-2.6625
512.04106	-2.5625
516.11023	0.5375
520.1765	-4.9625
524.23987	-1.9625
528.30034	1.3375
532.35792	-0.5625
536.41261	-3.1625
540.46441	-4.7625
544.51333	-1.7625
548.55936	-0.8625
552.60252	-6.9625
556.64279	-3.5625
560.6802	-4.7625
564.71473	-6.7625
568.7464	-5.0625
572.7752	-5.5625
576.80114	-5.0625
580.82422	-8.8625
584.84444	-6.7625
588.86181	-2.1625
592.87633	-5.4625
596.888	-4.0625
600.89682	-5.1625
604.9028	-2.6625
608.90594	-7.5625
612.90624	-3.3625
616.90371	-4.5625
620.89834	-5.2625
624.89015	-1.2625
628.87913	-8.0625
632.86528	-5.1625
636.84862	-2.4625
640.82913	-2.4625
644.80683	-4.1625
648.78172	-1.8625
652.75379	-3.3625
656.72306	-5.9625
660.68952	-3.8625
664.65319	-4.8625
668.61405	-6.5625
672.57211	-4.1625
676.52738	-6.3625
680.47986	-4.5625
684.42955	-5.0625
688.37646	-1.3625
692.32058	-1.1625
696.26192	-2.5625
700.20048	0.9375
704.13626	4.3375
708.06928	-0.0625
711.99952	3.4375
715.927	0.1375
719.85171	2.4375
723.77365	-3.1625
727.69284	-0.2625
731.60928	-0.2625
735.52295	-7.4625
739.43388	-3.3625
743.34206	-5.8625
747.24749	-5.1625
751.15017	-3.3625
755.05012	-5.1625
758.94733	-2.4625
762.8418	-3.2625
766.73354	-6.3625
770.62254	-1.9625
774.50882	-4.3625
778.39237	-3.5625
782.27321	-3.2625
786.15132	-5.2625
790.02671	-9.2625
793.89938	-7.2625
797.76935	-4.8625
801.6366	-4.8625
805.50115	-2.6625
809.36299	-4.5625
813.22213	-4.8625
817.07857	-4.5625
820.93231	-6.3625
824.78336	-7.9625
828.63172	-4.2625
832.47738	-1.6625
836.32036	-2.6625
840.16066	-3.8625
843.99827	-2.7625
847.8332	-3.6625
851.66546	-4.1625
855.49504	-8.7625
859.32195	-1.1625
863.1462	-4.5625
866.96777	-3.9625
870.78668	-5.5625
874.60293	-5.6625
878.41652	-4.6625
882.22745	-5.4625
886.03573	-3.6625
889.84136	-4.5625
893.64433	-7.5625
897.44466	-2.1625
901.24235	-6.5625
905.0374	-4.8625
908.8298	-0.3625
912.61957	-6.1625
916.40671	-7.3625
920.19121	-7.0625
923.97308	-2.1625
927.75233	-1.7625
931.52895	-7.7625
935.30295	-10.3625
939.07433	-8.8625
942.84309	-7.8625
946.60924	-10.4625
950.37278	-4.9625
954.13371	-3.4625
957.89203	-5.1625
961.64774	-0.5625
965.40086	-3.5625
969.15137	-3.3625
972.89929	-1.2625
976.64461	-3.6625
980.38733	-6.2625
984.12747	-9.3625
987.86502	-6.6625
991.59999	-9.1625
995.33237	-2.0625
999.06217	-6.9625
1002.78939	-4.0625
1006.51404	-4.4625
1010.23611	-10.5625
1013.95561	-5.2625
1017.67255	-10.1625
1021.38692	-4.5625
1025.09872	-4.6625
1028.80796	-8.7625
1032.51465	-6.2625
1036.21877	-4.5625
1039.92035	-2.5625
1043.61937	-7.2625
1047.31584	-4.0625
1051.00976	-7.3625
1054.70114	-4.4625
1058.38998	-7.6625
1062.07627	-6.3625
1065.76003	-5.7625
1069.44126	-5.3625
1073.11995	-8.3625
1076.79611	-2.8625
1080.46974	-4.4625
1084.14085	-3.2625
1087.80943	-4.7625
1091.47549	-6.5625
1095.13903	-4.3625
1098.80005	-9.2625
1102.45857	-6.8625
1106.11456	-5.3625
1109.76805	-4.1625
1113.41903	-4.5625
1117.06751	-4.4625
1120.71348	-0.7625
1124.35696	-0.2625
1127.99793	-0.6625
1131.63641	-6.0625
1135.2724	-4.1625
1138.90589	-5.8625
1142.5369	-2.1625
1146.16542	-2.3625
1149.79145	-7.5625
1153.415	-6.9625
1157.03607	-6.1625
1160.65467	-6.0625
1164.27079	-4.2625
1167.88443	-9.0625
1171.49561	-3.4625
1175.10432	-1.9625
1178.71056	-6.6625
1182.31434	-3.4625
1185.91565	-2.4625
1189.51451	-2.4625
1193.11091	-4.1625
1196.70485	-5.9625
1200.29634	-7.3625
1203.88538	-4.6625
1207.47197	-6.9625
1211.05612	-3.9625
1214.63782	-5.5625
1218.21708	-5.2625
1221.79391	-8.5625
1225.36829	-4.5625
1228.94024	-4.7625
1232.50976	-6.0625
1236.07685	-2.0625
1239.6415	-3.4625
1243.20374	-1.6625
1246.76355	1.4375
1250.32093	-0.7625
1253.8759	3.1375
1257.42845	0.3375
1260.97859	2.1375
1264.52631	0.5375
1268.07163	2.6375
1271.61453	2.2375
1275.15503	1.4375
1278.69312	-1.3625
1282.22882	-1.9625
1285.76211	-1.1625
1289.29301	-5.4625
1292.82151	-3.1625
1296.34761	-4.2625
1299.87133	-2.1625
1303.39266	-4.1625
1306.9116	-5.6625
1310.42815	-8.5625
1313.94233	-6.8625
1317.45412	-6.6625
1320.96354	-10.1625
1324.47058	-7.4625
1327.97525	-8.9625
1331.47754	-12.8625
1334.97747	-6.6625
1338.47502	-4.3625
1341.97022	-7.2625
1345.46305	-7.8625
1348.95352	-8.8625
1352.44163	-5.9625
1355.92738	-8.7625
1359.41078	-7.2625
1362.89183	-7.2625
1366.37053	-1.6625
1369.84688	-6.8625
1373.32088	-5.7625
1376.79254	0.7375
1380.26186	-3.7625
1383.72883	-2.6625
1387.19347	4.8375
1390.65578	2.5375
1394.11575	-2.0625
1397.57339	0.5375
1401.0287	-5.0625
1404.48168	-3.5625
1407.93234	-6.6625
1411.38068	-5.8625
1414.82669	-7.7625
1418.27039	-8.6625
1421.71177	-5.3625
1425.15083	-9.0625
1428.58758	-5.3625
1432.02203	-7.9625
1435.45416	-6.2625
1438.88399	-6.1625
1442.31151	-9.9625
1445.73673	-3.9625
1449.15965	-7.1625
1452.58027	-8.1625
1455.9986	-6.6625
1459.41463	-6.2625
1462.82837	-7.1625
1466.23982	-7.4625
1469.64898	-9.1625
1473.05586	-5.5625
1476.46045	-10.4625
1479.86276	-9.0625
1483.26279	-9.3625
1486.66054	-10.0625
1490.05602	-7.8625
1493.44922	-7.2625
1496.84016	-8.6625
1500.22882	-8.8625
1503.61521	-7.5625
1506.99934	-7.7625
1510.38121	-7.2625
1513.76081	-5.9625
1517.13816	-5.5625
1520.51324	-7.3625
1523.88607	-5.4625
1527.25665	-6.8625
1530.62498	-4.1625
1533.99105	-3.6625
1537.35488	-8.8625
1540.71647	-7.0625
1544.07581	-8.5625
1547.4329	-7.6625
1550.78776	-11.5625
1554.14038	-6.9625
1557.49077	-7.2625
1560.83892	-7.8625
1564.18484	-4.9625
1567.52853	-2.7625
1570.86999	-6.7625
1574.20922	-4.9625
1577.54624	-8.6625
1580.88103	-5.2625
1584.2136	-7.2625
1587.54395	-6.0625
1590.87208	-10.8625
1594.19801	-6.9625
1597.52172	-3.9625
1600.84321	-2.4625
1604.16251	-4.1625
1607.47959	-4.3625
1610.79447	-9.7625
1614.10715	-3.4625
1617.41763	-3.4625
1620.7259	-3.2625
1624.03199	0.3375
1627.33587	-0.9625
1630.63757	1.9375
1633.93707	4.4375
1637.23439	-0.8625
1640.52951	7.8375
1643.82246	7.6375
1647.11321	11.0375
1650.40179	16.0375
1653.68819	14.4375
1656.97241	18.7375
1660.25446	19.5375
1663.53433	15.2375
1666.81203	15.9375
1670.08756	16.3375
1673.36092	10.6375
1676.63211	4.8375
1679.90115	3.0375
1683.16801	7.5375
1686.43272	1.8375
1689.69527	3.6375
1692.95567	11.5375
1696.2139	24.2375
1699.46999	39.8375
1702.72392	34.0375
1705.97571	23.7375
1709.22535	13.2375
1712.47284	7.9375
1715.71819	1.7375
1718.96139	-10.7625
1722.20246	-5.2625
1725.44139	-3.5625
1728.67818	-3.1625
1731.91284	-3.1625
1735.14537	-5.2625
1738.37576	-3.5625
1741.60403	-2.6625
1744.83017	-2.9625
1748.05418	5.0375
1751.27607	4.3375
1754.49584	10.1375
1757.71349	13.7375
1760.92903	19.5375
1764.14244	25.2375
1767.35375	18.4375
1770.56294	24.3375
1773.77002	15.8375
1776.97499	8.2375
1780.17785	5.5375
1783.37861	-1.5625
1786.57727	-1.7625
1789.77382	-6.3625
1792.96828	-4.4625
1796.16064	-6.1625
1799.3509	-5.6625
1802.53907	-7.2625
1805.72514	-8.2625
1808.90913	-6.6625
1812.09102	-5.1625
1815.27083	-8.8625
1818.44856	-4.6625
1821.6242	-7.5625
1824.79776	-8.1625
1827.96924	-9.6625
1831.13864	-8.1625
1834.30597	-7.2625
1837.47122	-4.9625
1840.6344	-5.2625
1843.7955	-7.8625
1846.95454	-3.9625
1850.11151	-9.0625
1853.26642	-6.4625
1856.41926	-4.8625
1859.57004	-7.1625
1862.71876	-4.5625
1865.86542	-7.9625
1869.01003	-3.3625
1872.15258	-5.9625
1875.29308	-7.4625
1878.43152	-7.9625
1881.56792	-7.1625
1884.70227	-8.4625
1887.83457	-6.1625
1890.96482	-7.7625
1894.09304	-6.9625
1897.21921	-4.0625
1900.34335	-4.5625
1903.46544	-3.6625
1906.58551	-7.9625
1909.70353	-5.8625
1912.81953	-10.2625
1915.93349	-7.0625
1919.04543	-5.3625
1922.15534	-2.9625
1925.26322	-3.5625
1928.36908	-6.7625
1931.47292	-6.9625
1934.57473	-7.9625
1937.67453	-8.4625
1940.77232	-5.6625
1943.86808	-6.5625
1946.96184	-9.4625
1950.05358	-6.0625
1953.14331	-9.2625
1956.23103	-4.8625
1959.31675	-6.3625
1962.40046	-8.8625
1965.48217	-6.4625
1968.56188	-11.2625
1971.63959	-8.1625
1974.7153	-6.6625
1977.78901	-7.1625
1980.86073	-6.3625
1983.93046	-7.7625
1986.99819	-6.4625
1990.06394	-9.0625
1993.1277	-9.9625
1996.18947	-6.0625
1999.24925	-7.0625
2002.30706	-5.9625
2005.36288	-5.6625
2008.41672	-4.7625
2011.46859	-5.1625
2014.51848	-3.7625
2017.56639	-6.9625
2020.61233	-8.5625
2023.6563	-4.9625
2026.6983	-8.0625
2029.73833	-5.3625
2032.7764	-6.7625
2035.8125	-6.4625
2038.84664	-4.6625
2041.87881	-7.3625
2044.90903	-3.8625
2047.93729	-3.6625
2050.96359	-8.2625
2053.98794	-6.4625
2057.01034	-9.6625
2060.03078	-5.7625
2063.04927	-6.1625
2066.06582	-5.3625
2069.08042	-7.4625
2072.09307	-9.6625
2075.10378	-7.7625
2078.11255	-9.2625
2081.11938	-4.7625
2084.12426	-6.5625
2087.12722	-7.6625
2090.12824	-4.9625
2093.12732	-6.2625
2096.12447	-4.6625
2099.11969	-9.0625
2102.11299	-4.8625
2105.10435	-3.6625
2108.09379	-6.0625
2111.08131	-5.9625
2114.0669	-2.8625
2117.05057	-5.6625
2120.03233	-4.1625
2123.01216	-6.4625
2125.99008	-10.4625
2128.96609	-9.1625
2131.94018	-6.7625
2134.91236	-4.7625
2137.88263	-4.3625
2140.851	-7.8625
2143.81746	-6.0625
2146.78201	-4.4625
2149.74466	-4.4625
2152.7054	-6.4625
2155.66425	-5.1625
2158.6212	-7.0625
2161.57625	-2.8625
2164.52941	-5.8625
2167.48067	-6.3625
2170.43004	-6.8625
2173.37752	-3.4625
2176.32311	-6.7625
2179.26681	-5.1625
2182.20863	-8.2625
2185.14856	-4.7625
2188.08661	-6.0625
2191.02278	-5.9625
2193.95707	-8.3625
2196.88948	-5.0625
2199.82001	-4.6625
2202.74867	-2.9625
2205.67545	-3.7625
2208.60037	-8.3625
2211.52341	-7.5625
2214.44458	-7.3625
2217.36388	-9.4625
2220.28132	-5.2625
2223.1969	-8.0625
2226.11061	-7.9625
2229.02246	-6.6625
2231.93245	-7.5625
2234.84058	-4.9625
2237.74686	-4.8625
2240.65128	-2.9625
2243.55385	-2.0625
2246.45456	-7.3625
2249.35343	-6.6625
2252.25044	-5.3625
2255.14561	-5.4625
2258.03893	-5.5625
2260.93041	-5.4625
2263.82004	-6.5625
2266.70783	-9.3625
2269.59378	-5.3625
2272.4779	-5.4625
2275.36017	-5.4625
2278.24061	-8.6625
2281.11922	-6.2625
2283.996	-9.1625
2286.87094	-8.8625
2289.74405	-6.2625
2292.61534	-5.4625
2295.4848	-3.9625
2298.35243	-5.2625
2301.21824	-4.0625
2304.08223	-5.2625
2306.94439	-6.8625
2309.80474	-7.1625
2312.66327	-6.7625
2315.51999	-9.3625
2318.37489	-5.8625
2321.22797	-5.4625
2324.07925	-7.4625
2326.92871	-5.8625
2329.77637	-1.6625
2332.62222	-5.3625
2335.46626	-7.9625
2338.3085	-6.4625
2341.14893	-4.0625
2343.98756	-5.3625
2346.8244	-3.8625
2349.65943	-5.2625
2352.49267	-6.2625
2355.32411	-5.2625
2358.15376	-3.7625
2360.98161	-5.6625
2363.80768	-6.6625
2366.63195	-6.9625
2369.45444	-8.0625
2372.27514	-3.2625
2375.09405	-4.6625
2377.91118	-7.1625
2380.72652	-8.3625
2383.54009	-8.5625
2386.35187	-5.9625
2389.16188	-9.5625
2391.97011	-4.6625
2394.77657	-5.4625
2397.58125	-7.5625
2400.38416	-2.7625
2403.18529	-6.7625
2405.98466	-4.7625
2408.78226	-7.1625
2411.57809	-4.2625
2414.37216	-6.8625
2417.16446	-5.0625
2419.955	-6.4625
2422.74378	-5.4625
2425.5308	-4.9625
2428.31606	-7.7625
2431.09956	-3.9625
2433.88131	-6.0625
2436.6613	-10.1625
2439.43954	-5.1625
2442.21603	-5.0625
2444.99077	-6.8625
2447.76377	-7.5625
2450.53501	-5.5625
2453.30451	-5.2625
2456.07226	-7.9625
2458.83827	-5.3625
2461.60254	-8.1625
2464.36507	-5.3625
2467.12586	-6.2625
2469.88492	-7.2625
2472.64224	-6.4625
2475.39782	-2.4625
2478.15167	-3.0625
2480.90379	-5.4625
2483.65417	-7.8625
2486.40283	-5.3625
2489.14976	-2.7625
2491.89497	-3.9625
2494.63845	-5.4625
2497.3802	-1.5625
2500.12024	-2.6625
2502.85855	-4.7625
2505.59514	-5.2625
2508.33002	-6.9625
2511.06318	-4.6625
2513.79462	-3.7625
2516.52435	-4.8625
2519.25237	-5.5625
2521.97867	-5.6625
2524.70327	-2.9625
2527.42616	-3.3625
2530.14734	-5.0625
2532.86681	-5.2625
2535.58458	-7.5625
2538.30065	-12.0625
2541.01501	-7.3625
2543.72768	-5.7625
2546.43864	-6.4625
2549.14791	-5.4625
2551.85548	-9.6625
2554.56136	-2.3625
2557.26554	-8.6625
2559.96803	-7.4625
2562.66883	-6.5625
2565.36794	-6.3625
2568.06536	-3.8625
2570.7611	-5.9625
2573.45514	-4.8625
2576.14751	-6.6625
2578.83819	-6.1625
2581.52719	-6.7625
2584.21451	-3.6625
2586.90015	-6.4625
2589.58411	-6.1625
2592.2664	-5.2625
2594.94701	-3.8625
2597.62594	-4.6625
2600.30321	-4.8625
2602.9788	-4.4625
2605.65273	-4.1625
2608.32498	-5.1625
2610.99557	-6.8625
2613.66449	-8.3625
2616.33175	-6.0625
2618.99734	-7.4625
2621.66128	-6.5625
2624.32355	-6.3625
2626.98416	-4.9625
2629.64311	-8.1625
2632.30041	-4.4625
2634.95605	-5.0625
2637.61004	-5.3625
2640.26238	-5.2625
2642.91306	-4.2625
2645.56209	-7.3625
2648.20948	-5.2625
2650.85521	0.7375
2653.4993	-5.5625
2656.14175	-3.5625
2658.78255	-2.1625
2661.42171	-0.2625
2664.05923	-2.9625
2666.6951	-4.8625
2669.32934	-2.4625
2671.96194	-8.4625
2674.59291	-3.8625
2677.22224	-7.2625
2679.84993	-6.2625
2682.476	-6.7625
2685.10043	-6.0625
2687.72324	-7.1625
2690.34441	-6.5625
2692.96396	-5.6625
2695.58188	-7.9625
2698.19818	-1.9625
2700.81285	-2.7625
2703.4259	4.4375
2706.03733	11.5375
2708.64714	0.3375
2711.25533	-0.4625
2713.86191	-2.9625
2716.46687	-2.2625
2719.07021	-4.3625
2721.67194	-4.3625
2724.27206	-3.8625
2726.87057	-3.6625
2729.46747	-2.9625
2732.06276	-0.8625
2734.65644	-6.7625
2737.24852	-6.3625
2739.83899	-5.8625
2742.42786	-1.6625
2745.01513	-5.6625
2747.60079	-3.8625
2750.18486	-4.6625
2752.76733	-5.4625
2755.3482	-5.4625
2757.92747	-5.6625
2760.50515	-2.6625
2763.08123	-5.8625
2765.65573	-4.1625
2768.22863	-3.4625
2770.79994	-7.0625
2773.36967	-7.0625
2775.9378	-6.1625
2778.50435	-6.5625
2781.06932	-5.7625
2783.6327	-4.9625
2786.1945	-5.7625
2788.75471	-4.6625
2791.31335	-6.4625
2793.87041	-6.1625
2796.42589	-8.7625
2798.97979	-4.4625
2801.53212	-7.2625
2804.08288	-6.3625
2806.63206	-5.9625
2809.17967	-6.1625
2811.72571	-7.4625
2814.27018	-2.4625
2816.81308	-4.3625
2819.35442	-5.3625
2821.89419	-5.9625
2824.43239	-3.5625
2826.96904	-7.7625
2829.50412	-3.7625
2832.03763	-5.0625
2834.56959	-4.6625
2837.1	-3.4625
2839.62884	-3.6625
2842.15613	-6.3625
2844.68186	-6.7625
2847.20604	-5.2625
2849.72867	-6.2625
2852.24974	-5.0625
2854.76927	1.3375
2857.28724	0.1375
2859.80367	-3.3625
2862.31855	-3.8625
2864.83189	-6.0625
2867.34368	-5.7625
2869.85393	-6.0625
2872.36264	-6.1625
2874.8698	-5.0625
2877.37543	-7.3625
2879.87952	-4.3625
2882.38207	-5.2625
2884.88308	-7.4625
2887.38256	-3.7625
2889.88051	-7.5625
2892.37692	-5.4625
2894.8718	-2.5625
2897.36515	-5.9625
2899.85698	-4.3625
2902.34727	-4.7625
2904.83604	-6.5625
2907.32328	-4.3625
2909.809	-6.3625
2912.29319	-5.3625
2914.77587	-7.4625
2917.25702	-6.5625
2919.73665	-4.1625
2922.21476	-4.1625
2924.69136	-0.8625
2927.16644	-2.5625
2929.64	-4.6625
2932.11205	-7.1625
2934.58258	-4.8625
2937.05161	-7.4625
2939.51912	-10.6625
2941.98513	-0.7625
2944.44962	-3.3625
2946.91261	-4.7625
2949.37409	-8.4625
2951.83407	-4.5625
2954.29254	-3.6625
2956.74951	-4.1625
2959.20498	-6.5625
2961.65895	-6.3625
2964.11142	-6.8625
2966.56239	0.5375
2969.01186	-4.1625
2971.45984	-4.0625
2973.90632	-6.8625
2976.35131	-6.4625
2978.7948	-5.2625
2981.23681	-5.4625
2983.67732	-4.9625
2986.11635	-7.5625
2988.55388	-4.6625
2990.98993	-6.6625
2993.4245	-4.3625
2995.85758	-0.5625
2998.28917	0.6375
3000.71928	-6.0625
3003.14791	-2.9625
3005.57506	-5.4625
3008.00073	-5.7625
3010.42493	-5.4625
3012.84764	-4.5625
3015.26888	-6.0625
3017.68865	-2.6625
3020.10694	-0.9625
3022.52376	-6.3625
3024.9391	-7.8625
3027.35298	-2.8625
3029.76539	-2.9625
3032.17632	-7.3625
3034.5858	-2.5625
3036.9938	-2.7625
3039.40034	-3.8625
3041.80542	-2.9625
3044.20903	-3.8625
3046.61118	-4.8625
3049.01187	-4.0625
3051.4111	-2.8625
3053.80888	-1.9625
3056.20519	-5.7625
3058.60005	-6.6625
3060.99345	-1.5625
3063.3854	-5.5625
3065.7759	-6.9625
3068.16494	-3.0625
3070.55254	-5.9625
3072.93868	-4.4625
3075.32338	-3.3625
3077.70662	-5.7625
3080.08842	-5.6625
3082.46878	-4.3625
3084.84769	-5.7625
3087.22515	-5.3625
3089.60118	-4.3625
3091.97576	-4.8625
3094.3489	-4.9625
3096.72061	-7.4625
3099.09087	-4.1625
3101.4597	-1.5625
3103.82709	-4.5625
3106.19305	-5.6625
3108.55757	-3.9625
3110.92066	-4.9625
3113.28232	-2.6625
3115.64255	-2.9625
3118.00134	-3.2625
3120.35871	-4.9625
3122.71466	-3.1625
3125.06917	-5.9625
3127.42226	-2.1625
3129.77393	-4.9625
3132.12417	-5.0625
3134.47299	-6.6625
3136.82039	-1.7625
3139.16636	-5.0625
3141.51092	-4.6625
3143.85406	-4.7625
3146.19579	-5.8625
3148.53609	-5.8625
3150.87499	-4.7625
3153.21246	-1.7625
3155.54853	-4.0625
3157.88318	-5.0625
3160.21642	-7.3625
3162.54826	-4.5625
3164.87868	-2.4625
3167.2077	-3.5625
3169.5353	-6.7625
3171.86151	-3.6625
3174.18631	-6.2625
3176.5097	-4.6625
3178.83169	-3.4625
3181.15228	-6.0625
3183.47147	-3.5625
3185.78926	-4.7625
3188.10565	-3.9625
3190.42065	-5.1625
3192.73424	-5.8625
3195.04645	-5.7625
3197.35725	-6.4625
3199.66667	-6.6625
3201.97469	-3.4625
3204.28132	-1.0625
3206.58656	-3.5625
3208.8904	-5.2625
3211.19287	-5.9625
3213.49394	-4.9625
3215.79363	-3.8625
3218.09193	-3.0625
3220.38884	1.3375
3222.68438	-1.4625
3224.97853	-2.0625
3227.2713	-6.1625
3229.56269	-6.1625
3231.8527	-1.4625
3234.14133	-1.7625
3236.42858	-1.2625
3238.71446	-2.0625
3240.99896	-6.7625
3243.28209	-6.1625
3245.56384	0.3375
3247.84423	-5.5625
3250.12324	-5.5625
3252.40088	-5.9625
3254.67715	-4.0625
3256.95205	-1.1625
3259.22558	-2.3625
3261.49775	-3.4625
3263.76855	-4.9625
3266.03799	-4.1625
3268.30606	-1.3625
3270.57277	-5.2625
3272.83812	-5.7625
3275.10211	-1.8625
3277.36474	-2.1625
3279.62601	-2.1625
3281.88593	-3.3625
3284.14448	-2.2625
3286.40168	-3.2625
3288.65753	-3.0625
3290.91202	-4.4625
3293.16516	-0.4625
3295.41695	-5.6625
3297.66738	-2.1625
3299.91647	-2.4625
3302.16421	-4.5625
3304.4106	-1.7625
3306.65564	-0.1625
3308.89933	-5.4625
3311.14169	-3.8625
3313.38269	-2.8625
3315.62236	-0.6625
3317.86068	-4.0625
3320.09766	-1.0625
3322.3333	-4.1625
3324.5676	0.2375
3326.80056	-0.0625
3329.03219	2.6375
3331.26248	0.7375
3333.49143	-1.7625
3335.71905	1.3375
