Data from AgNP_FTO_APTES_UA_100uM_CRN_0uM_R6G_10uM_NaF_0.1M_Addition_RamanShift__25__11-14-20-113.txt Node

Date: Thu Mar 24 11:14:20 GMT 2022
User: TCL
Spectrometer: QEP01345
Trigger mode: 4
Integration Time (sec): 7.000000E0
Scans to average: 10
Electric dark correction enabled: true
Nonlinearity correction enabled: false
Boxcar width: 0
XAxis mode: Raman Shifts
Number of Pixels in Spectrum: 1044
>>>>>Begin Spectral Data<<<<<
46.04893	-2.3375
50.45542	-0.4375
54.85868	-0.4375
59.25871	-0.0375
63.6555	34.3625
68.04907	40.1625
72.43941	37.3625
76.82654	37.2625
81.21044	40.5625
85.59113	45.5625
89.96862	49.3625
94.34289	44.1625
98.71396	50.2625
103.08183	46.6625
107.4465	50.2625
111.80798	52.2625
116.16626	52.1625
120.52136	53.4625
124.87327	55.1625
129.222	56.7625
133.56755	65.4625
137.90993	67.8625
142.24913	76.4625
146.58517	83.0625
150.91804	92.1625
155.24774	114.0625
159.57429	140.7625
163.89768	183.4625
168.21792	250.9625
172.53501	339.1625
176.84895	471.7625
181.15975	659.8625
185.46741	918.2625
189.77193	1280.9625
194.07331	1717.6625
198.37157	2209.1625
202.6667	2748.7625
206.9587	3266.3625
211.24758	3798.3625
215.53334	4305.8625
219.81599	4858.4625
224.09553	5461.8625
228.37195	6161.1625
232.64527	6920.6625
236.91549	7683.3625
241.18261	8484.4625
245.44663	9197.7625
249.70755	9774.6625
253.96539	10253.4625
258.22014	10614.5625
262.4718	10882.8625
266.72039	11067.0625
270.96589	11135.9625
275.20832	11084.7625
279.44768	10953.5625
283.68397	10815.5625
287.91719	10673.6625
292.14735	10603.0625
296.37445	10583.6625
300.59849	10635.4625
304.81948	10727.5625
309.03742	10837.2625
313.25231	10876.5625
317.46415	10786.5625
321.67296	10595.2625
325.87872	10363.1625
330.08145	10260.7625
334.28114	10226.2625
338.47781	10255.0625
342.67145	10361.5625
346.86207	10554.1625
351.04966	10780.0625
355.23424	11010.6625
359.4158	11159.1625
363.59435	11260.9625
367.76989	11251.2625
371.94243	11226.5625
376.11196	11153.7625
380.27849	11158.1625
384.44203	11167.4625
388.60257	11228.1625
392.76012	11311.3625
396.91468	11488.7625
401.06626	11652.0625
405.21485	11800.2625
409.36047	11612.8625
413.50311	11302.7625
417.64277	11073.9625
421.77947	11019.1625
425.9132	11046.9625
430.04396	11112.3625
434.17176	11191.5625
438.2966	11273.1625
442.41849	11476.4625
446.53742	11811.7625
450.6534	12136.6625
454.76644	12355.8625
458.87653	12324.9625
462.98368	12217.6625
467.08789	12094.2625
471.18916	11919.6625
475.2875	11678.0625
479.38291	11477.4625
483.4754	11343.7625
487.56496	11221.1625
491.6516	11105.1625
495.73531	10990.9625
499.81612	10900.5625
503.89401	10958.6625
507.96899	11006.2625
512.04106	11009.1625
516.11023	10952.1625
520.1765	10860.4625
524.23987	10848.5625
528.30034	10830.1625
532.35792	10765.2625
536.41261	10579.0625
540.46441	10355.4625
544.51333	10227.3625
548.55936	10290.8625
552.60252	10471.8625
556.64279	10788.4625
560.6802	11030.0625
564.71473	11208.6625
568.7464	11449.2625
572.7752	11966.2625
576.80114	12530.1625
580.82422	13043.1625
584.84444	13619.4625
588.86181	14578.0625
592.87633	15813.0625
596.888	16482.6625
600.89682	15745.9625
604.9028	14675.6625
608.90594	15068.6625
612.90624	16085.7625
616.90371	15097.1625
620.89834	12298.6625
624.89015	10920.4625
628.87913	10762.3625
632.86528	10921.6625
636.84862	10996.1625
640.82913	10748.1625
644.80683	10300.9625
648.78172	10033.9625
652.75379	10000.2625
656.72306	10185.5625
660.68952	10451.6625
664.65319	10367.7625
668.61405	10071.4625
672.57211	9967.0625
676.52738	9961.7625
680.47986	9962.2625
684.42955	9880.7625
688.37646	9828.5625
692.32058	9832.5625
696.26192	9985.6625
700.20048	10164.3625
704.13626	10315.7625
708.06928	10393.3625
711.99952	10392.4625
715.927	10388.1625
719.85171	10351.0625
723.77365	10249.5625
727.69284	10074.6625
731.60928	9897.9625
735.52295	9887.7625
739.43388	9943.2625
743.34206	10032.2625
747.24749	10103.1625
751.15017	10248.4625
755.05012	10477.9625
758.94733	10820.1625
762.8418	11607.4625
766.73354	12861.2625
770.62254	14066.9625
774.50882	14298.6625
778.39237	13455.4625
782.27321	12278.1625
786.15132	11278.6625
790.02671	10565.5625
793.89938	10217.4625
797.76935	10020.8625
801.6366	9867.5625
805.50115	9807.2625
809.36299	9752.4625
813.22213	9657.2625
817.07857	9600.4625
820.93231	9562.6625
824.78336	9528.7625
828.63172	9486.3625
832.47738	9465.0625
836.32036	9464.8625
840.16066	9438.8625
843.99827	9461.5625
847.8332	9467.8625
851.66546	9498.4625
855.49504	9508.5625
859.32195	9520.7625
863.1462	9466.7625
866.96777	9426.7625
870.78668	9415.4625
874.60293	9421.6625
878.41652	9397.0625
882.22745	9471.4625
886.03573	9524.0625
889.84136	9513.3625
893.64433	9529.4625
897.44466	9517.3625
901.24235	9520.5625
905.0374	9502.7625
908.8298	9441.7625
912.61957	9421.8625
916.40671	9484.7625
920.19121	9658.1625
923.97308	9838.3625
927.75233	9995.8625
931.52895	9883.1625
935.30295	9623.2625
939.07433	9295.5625
942.84309	9084.6625
946.60924	8958.9625
950.37278	8904.6625
954.13371	8909.5625
957.89203	8892.7625
961.64774	8879.3625
965.40086	8901.1625
969.15137	8869.0625
972.89929	8844.6625
976.64461	8808.5625
980.38733	8782.1625
984.12747	8787.5625
987.86502	8809.6625
991.59999	8842.5625
995.33237	8920.3625
999.06217	9090.4625
1002.78939	9304.2625
1006.51404	9603.2625
1010.23611	9903.3625
1013.95561	10052.8625
1017.67255	10083.9625
1021.38692	9878.6625
1025.09872	9603.8625
1028.80796	9364.9625
1032.51465	9267.9625
1036.21877	9275.6625
1039.92035	9302.5625
1043.61937	9396.4625
1047.31584	9469.0625
1051.00976	9504.8625
1054.70114	9567.8625
1058.38998	9582.9625
1062.07627	9630.0625
1065.76003	9726.2625
1069.44126	9923.7625
1073.11995	10153.3625
1076.79611	10416.9625
1080.46974	10516.8625
1084.14085	10690.3625
1087.80943	10899.1625
1091.47549	11018.6625
1095.13903	11010.2625
1098.80005	10738.6625
1102.45857	10405.5625
1106.11456	10143.9625
1109.76805	10059.3625
1113.41903	10099.3625
1117.06751	10224.1625
1120.71348	10420.0625
1124.35696	10666.1625
1127.99793	10900.8625
1131.63641	10982.2625
1135.2724	10896.6625
1138.90589	10811.1625
1142.5369	10755.1625
1146.16542	10802.8625
1149.79145	10983.4625
1153.415	11168.3625
1157.03607	11348.3625
1160.65467	11546.0625
1164.27079	11951.4625
1167.88443	12597.9625
1171.49561	13528.4625
1175.10432	14821.8625
1178.71056	16427.5625
1182.31434	17799.4625
1185.91565	18379.1625
1189.51451	18088.8625
1193.11091	17348.9625
1196.70485	16492.0625
1200.29634	15474.3625
1203.88538	14673.0625
1207.47197	14082.2625
1211.05612	13751.1625
1214.63782	13483.2625
1218.21708	13279.0625
1221.79391	13180.3625
1225.36829	13201.1625
1228.94024	13244.8625
1232.50976	13063.5625
1236.07685	12690.0625
1239.6415	12343.4625
1243.20374	12165.2625
1246.76355	12123.6625
1250.32093	12194.7625
1253.8759	12378.5625
1257.42845	12774.1625
1260.97859	13247.6625
1264.52631	13805.1625
1268.07163	14313.6625
1271.61453	14841.6625
1275.15503	15342.1625
1278.69312	15925.5625
1282.22882	16597.0625
1285.76211	17486.1625
1289.29301	18482.0625
1292.82151	19454.3625
1296.34761	20546.6625
1299.87133	21916.1625
1303.39266	23334.1625
1306.9116	24643.2625
1310.42815	25748.7625
1313.94233	26130.0625
1317.45412	25574.0625
1320.96354	24433.4625
1324.47058	23410.2625
1327.97525	22538.9625
1331.47754	21898.8625
1334.97747	21482.2625
1338.47502	21179.1625
1341.97022	21016.3625
1345.46305	20986.4625
1348.95352	21234.8625
1352.44163	21763.9625
1355.92738	22828.7625
1359.41078	24591.5625
1362.89183	26312.8625
1366.37053	26577.7625
1369.84688	24356.5625
1373.32088	21089.4625
1376.79254	18691.5625
1380.26186	17667.0625
1383.72883	17175.4625
1387.19347	16759.7625
1390.65578	16395.1625
1394.11575	16196.9625
1397.57339	16291.1625
1401.0287	16386.6625
1404.48168	16395.5625
1407.93234	16152.7625
1411.38068	15757.6625
1414.82669	15250.2625
1418.27039	14761.6625
1421.71177	14313.2625
1425.15083	13864.4625
1428.58758	13675.2625
1432.02203	13745.1625
1435.45416	13925.2625
1438.88399	14092.9625
1442.31151	14222.1625
1445.73673	14384.2625
1449.15965	14524.2625
1452.58027	14672.7625
1455.9986	14746.2625
1459.41463	14934.4625
1462.82837	15246.2625
1466.23982	15681.3625
1469.64898	16038.9625
1473.05586	16342.9625
1476.46045	16492.3625
1479.86276	16654.1625
1483.26279	16804.2625
1486.66054	17087.0625
1490.05602	17531.8625
1493.44922	18188.6625
1496.84016	19008.3625
1500.22882	19805.7625
1503.61521	20624.8625
1506.99934	21343.0625
1510.38121	21786.8625
1513.76081	21634.1625
1517.13816	20892.9625
1520.51324	19905.6625
1523.88607	19132.3625
1527.25665	18772.4625
1530.62498	18557.7625
1533.99105	18210.3625
1537.35488	17678.2625
1540.71647	16971.6625
1544.07581	16222.8625
1547.4329	15514.5625
1550.78776	15026.2625
1554.14038	14774.9625
1557.49077	14726.1625
1560.83892	14792.9625
1564.18484	14973.9625
1567.52853	15243.3625
1570.86999	15518.2625
1574.20922	15816.0625
1577.54624	15934.4625
1580.88103	15634.9625
1584.2136	15325.8625
1587.54395	15496.7625
1590.87208	16237.9625
1594.19801	17306.0625
1597.52172	18356.7625
1600.84321	18615.7625
1604.16251	17641.6625
1607.47959	16094.5625
1610.79447	14519.9625
1614.10715	13168.1625
1617.41763	12113.2625
1620.7259	11434.2625
1624.03199	11125.8625
1627.33587	11136.2625
1630.63757	11537.5625
1633.93707	12437.0625
1637.23439	14061.2625
1640.52951	16604.0625
1643.82246	19910.3625
1647.11321	22751.3625
1650.40179	23581.5625
1653.68819	21693.6625
1656.97241	18245.8625
1660.25446	14814.3625
1663.53433	12330.7625
1666.81203	10815.3625
1670.08756	9946.0625
1673.36092	9411.1625
1676.63211	9037.4625
1679.90115	8806.0625
1683.16801	8631.5625
1686.43272	8529.4625
1689.69527	8393.5625
1692.95567	8310.8625
1696.2139	8270.4625
1699.46999	8213.0625
1702.72392	8177.5625
1705.97571	8145.4625
1709.22535	8112.0625
1712.47284	8103.3625
1715.71819	8087.2625
1718.96139	8048.6625
1722.20246	8017.2625
1725.44139	7964.6625
1728.67818	7891.0625
1731.91284	7845.6625
1735.14537	7783.6625
1738.37576	7741.4625
1741.60403	7709.1625
1744.83017	7663.5625
1748.05418	7638.8625
1751.27607	7616.8625
1754.49584	7594.8625
1757.71349	7584.1625
1760.92903	7564.7625
1764.14244	7548.7625
1767.35375	7546.6625
1770.56294	7522.9625
1773.77002	7494.0625
1776.97499	7492.3625
1780.17785	7490.5625
1783.37861	7465.3625
1786.57727	7449.1625
1789.77382	7409.4625
1792.96828	7427.8625
1796.16064	7390.2625
1799.3509	7366.8625
1802.53907	7344.1625
1805.72514	7336.7625
1808.90913	7289.3625
1812.09102	7274.9625
1815.27083	7263.6625
1818.44856	7240.3625
1821.6242	7235.6625
1824.79776	7198.3625
1827.96924	7206.7625
1831.13864	7204.1625
1834.30597	7192.3625
1837.47122	7191.6625
1840.6344	7179.5625
1843.7955	7181.8625
1846.95454	7181.5625
1850.11151	7185.3625
1853.26642	7207.9625
1856.41926	7203.7625
1859.57004	7192.7625
1862.71876	7213.7625
1865.86542	7195.6625
1869.01003	7181.1625
1872.15258	7188.4625
1875.29308	7179.2625
1878.43152	7186.4625
1881.56792	7163.9625
1884.70227	7189.0625
1887.83457	7203.9625
1890.96482	7191.2625
1894.09304	7191.9625
1897.21921	7190.1625
1900.34335	7183.7625
1903.46544	7163.4625
1906.58551	7168.5625
1909.70353	7141.6625
1912.81953	7119.8625
1915.93349	7098.8625
1919.04543	7093.2625
1922.15534	7038.6625
1925.26322	7024.9625
1928.36908	7020.1625
1931.47292	6999.1625
1934.57473	6979.7625
1937.67453	6939.4625
1940.77232	6910.0625
1943.86808	6877.3625
1946.96184	6874.0625
1950.05358	6856.7625
1953.14331	6830.1625
1956.23103	6826.9625
1959.31675	6795.8625
1962.40046	6760.4625
1965.48217	6757.3625
1968.56188	6742.0625
1971.63959	6708.1625
1974.7153	6693.0625
1977.78901	6633.2625
1980.86073	6604.4625
1983.93046	6569.8625
1986.99819	6530.0625
1990.06394	6513.1625
1993.1277	6478.6625
1996.18947	6458.2625
1999.24925	6429.3625
2002.30706	6414.0625
2005.36288	6401.8625
2008.41672	6400.5625
2011.46859	6380.7625
2014.51848	6361.5625
2017.56639	6355.1625
2020.61233	6334.8625
2023.6563	6327.3625
2026.6983	6299.6625
2029.73833	6297.0625
2032.7764	6282.5625
2035.8125	6270.9625
2038.84664	6242.0625
2041.87881	6214.0625
2044.90903	6201.6625
2047.93729	6165.7625
2050.96359	6176.8625
2053.98794	6150.0625
2057.01034	6142.7625
2060.03078	6127.1625
2063.04927	6124.5625
2066.06582	6126.7625
2069.08042	6134.6625
2072.09307	6156.4625
2075.10378	6157.0625
2078.11255	6161.4625
2081.11938	6181.5625
2084.12426	6174.0625
2087.12722	6184.7625
2090.12824	6205.7625
2093.12732	6205.1625
2096.12447	6204.8625
2099.11969	6222.5625
2102.11299	6206.1625
2105.10435	6224.3625
2108.09379	6207.2625
2111.08131	6189.3625
2114.0669	6204.0625
2117.05057	6184.0625
2120.03233	6188.6625
2123.01216	6157.7625
2125.99008	6134.0625
2128.96609	6152.9625
2131.94018	6132.9625
2134.91236	6130.2625
2137.88263	6118.4625
2140.851	6110.3625
2143.81746	6108.0625
2146.78201	6115.0625
2149.74466	6112.2625
2152.7054	6109.6625
2155.66425	6102.5625
2158.6212	6098.6625
2161.57625	6074.6625
2164.52941	6046.6625
2167.48067	6035.2625
2170.43004	6025.2625
2173.37752	5991.0625
2176.32311	5992.7625
2179.26681	5954.1625
2182.20863	5952.3625
2185.14856	5952.4625
2188.08661	5939.5625
2191.02278	5919.9625
2193.95707	5920.2625
2196.88948	5915.2625
2199.82001	5881.6625
2202.74867	5866.0625
2205.67545	5882.5625
2208.60037	5860.5625
2211.52341	5833.8625
2214.44458	5834.1625
2217.36388	5814.8625
2220.28132	5805.2625
2223.1969	5780.6625
2226.11061	5781.3625
2229.02246	5770.3625
2231.93245	5760.7625
2234.84058	5776.1625
2237.74686	5749.0625
2240.65128	5761.6625
2243.55385	5766.5625
2246.45456	5733.5625
2249.35343	5711.7625
2252.25044	5696.6625
2255.14561	5688.5625
2258.03893	5673.7625
2260.93041	5660.2625
2263.82004	5637.8625
2266.70783	5617.9625
2269.59378	5618.6625
2272.4779	5599.1625
2275.36017	5590.7625
2278.24061	5577.5625
2281.11922	5580.2625
2283.996	5552.1625
2286.87094	5555.8625
2289.74405	5530.9625
2292.61534	5521.1625
2295.4848	5520.7625
2298.35243	5498.2625
2301.21824	5478.6625
2304.08223	5503.6625
2306.94439	5477.8625
2309.80474	5468.1625
2312.66327	5471.4625
2315.51999	5462.4625
2318.37489	5466.6625
2321.22797	5445.6625
2324.07925	5428.9625
2326.92871	5432.0625
2329.77637	5437.2625
2332.62222	5409.2625
2335.46626	5406.5625
2338.3085	5411.7625
2341.14893	5379.8625
2343.98756	5384.6625
2346.8244	5394.9625
2349.65943	5381.1625
2352.49267	5392.2625
2355.32411	5395.6625
2358.15376	5379.7625
2360.98161	5381.5625
2363.80768	5393.4625
2366.63195	5384.8625
2369.45444	5389.0625
2372.27514	5387.3625
2375.09405	5391.4625
2377.91118	5365.9625
2380.72652	5352.7625
2383.54009	5336.6625
2386.35187	5342.1625
2389.16188	5295.0625
2391.97011	5290.5625
2394.77657	5280.7625
2397.58125	5272.7625
2400.38416	5255.5625
2403.18529	5240.5625
2405.98466	5232.5625
2408.78226	5239.1625
2411.57809	5215.6625
2414.37216	5218.9625
2417.16446	5206.5625
2419.955	5203.0625
2422.74378	5223.1625
2425.5308	5214.1625
2428.31606	5206.4625
2431.09956	5187.8625
2433.88131	5184.6625
2436.6613	5188.6625
2439.43954	5182.8625
2442.21603	5167.6625
2444.99077	5172.8625
2447.76377	5173.8625
2450.53501	5176.5625
2453.30451	5176.5625
2456.07226	5171.9625
2458.83827	5178.9625
2461.60254	5171.9625
2464.36507	5189.6625
2467.12586	5153.5625
2469.88492	5153.1625
2472.64224	5167.6625
2475.39782	5151.9625
2478.15167	5154.7625
2480.90379	5152.4625
2483.65417	5161.8625
2486.40283	5155.6625
2489.14976	5139.6625
2491.89497	5130.5625
2494.63845	5146.4625
2497.3802	5138.1625
2500.12024	5122.2625
2502.85855	5141.8625
2505.59514	5141.8625
2508.33002	5119.1625
2511.06318	5105.4625
2513.79462	5098.5625
2516.52435	5096.1625
2519.25237	5078.7625
2521.97867	5066.2625
2524.70327	5066.5625
2527.42616	5037.7625
2530.14734	5050.8625
2532.86681	5036.4625
2535.58458	5046.6625
2538.30065	5033.2625
2541.01501	5028.1625
2543.72768	5028.1625
2546.43864	5028.3625
2549.14791	4993.4625
2551.85548	5010.8625
2554.56136	5009.1625
2557.26554	5000.4625
2559.96803	4990.4625
2562.66883	4995.1625
2565.36794	4984.4625
2568.06536	4977.3625
2570.7611	4980.7625
2573.45514	4977.8625
2576.14751	4954.3625
2578.83819	4951.8625
2581.52719	4955.5625
2584.21451	4952.0625
2586.90015	4954.8625
2589.58411	4936.9625
2592.2664	4926.4625
2594.94701	4919.0625
2597.62594	4923.8625
2600.30321	4881.8625
2602.9788	4896.5625
2605.65273	4890.6625
2608.32498	4893.6625
2610.99557	4898.5625
2613.66449	4878.3625
2616.33175	4870.4625
2618.99734	4867.0625
2621.66128	4865.4625
2624.32355	4877.7625
2626.98416	4855.2625
2629.64311	4863.6625
2632.30041	4855.1625
2634.95605	4847.9625
2637.61004	4843.9625
2640.26238	4828.4625
2642.91306	4824.6625
2645.56209	4822.8625
2648.20948	4828.0625
2650.85521	4839.7625
2653.4993	4826.1625
2656.14175	4837.1625
2658.78255	4857.6625
2661.42171	4830.2625
2664.05923	4857.7625
2666.6951	4857.9625
2669.32934	4857.3625
2671.96194	4850.9625
2674.59291	4848.1625
2677.22224	4853.8625
2679.84993	4852.9625
2682.476	4854.4625
2685.10043	4855.3625
2687.72324	4839.7625
2690.34441	4831.6625
2692.96396	4828.4625
2695.58188	4844.2625
2698.19818	4839.5625
2700.81285	4841.1625
2703.4259	4829.9625
2706.03733	4835.3625
2708.64714	4840.1625
2711.25533	4825.1625
2713.86191	4828.1625
2716.46687	4846.2625
2719.07021	4827.7625
2721.67194	4847.3625
2724.27206	4838.8625
2726.87057	4862.5625
2729.46747	4861.1625
2732.06276	4835.6625
2734.65644	4853.4625
2737.24852	4861.9625
2739.83899	4829.8625
2742.42786	4840.3625
2745.01513	4821.8625
2747.60079	4818.5625
2750.18486	4782.3625
2752.76733	4812.6625
2755.3482	4812.1625
2757.92747	4806.2625
2760.50515	4785.9625
2763.08123	4811.4625
2765.65573	4787.6625
2768.22863	4785.7625
2770.79994	4790.2625
2773.36967	4775.2625
2775.9378	4796.9625
2778.50435	4776.7625
2781.06932	4764.8625
2783.6327	4784.7625
2786.1945	4766.8625
2788.75471	4746.3625
2791.31335	4738.7625
2793.87041	4764.5625
2796.42589	4733.2625
2798.97979	4732.3625
2801.53212	4729.6625
2804.08288	4726.9625
2806.63206	4722.5625
2809.17967	4716.1625
2811.72571	4700.8625
2814.27018	4715.2625
2816.81308	4701.3625
2819.35442	4687.0625
2821.89419	4696.3625
2824.43239	4692.4625
2826.96904	4698.5625
2829.50412	4706.2625
2832.03763	4683.7625
2834.56959	4685.8625
2837.1	4685.5625
2839.62884	4678.6625
2842.15613	4669.7625
2844.68186	4683.4625
2847.20604	4679.4625
2849.72867	4706.7625
2852.24974	4709.6625
2854.76927	4709.5625
2857.28724	4686.9625
2859.80367	4687.7625
2862.31855	4705.9625
2864.83189	4694.5625
2867.34368	4672.8625
2869.85393	4692.4625
2872.36264	4685.6625
2874.8698	4686.9625
2877.37543	4700.0625
2879.87952	4703.8625
2882.38207	4686.1625
2884.88308	4685.3625
2887.38256	4688.1625
2889.88051	4682.7625
2892.37692	4689.4625
2894.8718	4698.6625
2897.36515	4684.2625
2899.85698	4689.5625
2902.34727	4687.0625
2904.83604	4692.9625
2907.32328	4701.3625
2909.809	4705.2625
2912.29319	4703.2625
2914.77587	4697.0625
2917.25702	4704.0625
2919.73665	4689.5625
2922.21476	4707.9625
2924.69136	4671.9625
2927.16644	4682.5625
2929.64	4673.9625
2932.11205	4655.8625
2934.58258	4647.1625
2937.05161	4651.8625
2939.51912	4662.4625
2941.98513	4623.0625
2944.44962	4618.7625
2946.91261	4604.2625
2949.37409	4605.8625
2951.83407	4591.6625
2954.29254	4600.3625
2956.74951	4563.1625
2959.20498	4568.0625
2961.65895	4545.3625
2964.11142	4551.4625
2966.56239	4537.3625
2969.01186	4515.7625
2971.45984	4490.9625
2973.90632	4474.1625
2976.35131	4476.2625
2978.7948	4468.9625
2981.23681	4451.9625
2983.67732	4426.2625
2986.11635	4413.2625
2988.55388	4417.6625
2990.98993	4398.3625
2993.4245	4398.8625
2995.85758	4395.9625
2998.28917	4396.3625
3000.71928	4368.5625
3003.14791	4354.0625
3005.57506	4354.8625
3008.00073	4341.3625
3010.42493	4348.8625
3012.84764	4328.2625
3015.26888	4316.0625
3017.68865	4311.0625
3020.10694	4298.2625
3022.52376	4296.4625
3024.9391	4278.7625
3027.35298	4269.5625
3029.76539	4256.4625
3032.17632	4256.9625
3034.5858	4232.8625
3036.9938	4245.9625
3039.40034	4227.9625
3041.80542	4226.4625
3044.20903	4222.8625
3046.61118	4216.0625
3049.01187	4224.9625
3051.4111	4210.4625
3053.80888	4202.7625
3056.20519	4207.2625
3058.60005	4191.8625
3060.99345	4193.3625
3063.3854	4168.3625
3065.7759	4150.6625
3068.16494	4150.7625
3070.55254	4135.7625
3072.93868	4129.9625
3075.32338	4133.8625
3077.70662	4116.1625
3080.08842	4119.2625
3082.46878	4119.7625
3084.84769	4102.3625
3087.22515	4086.5625
3089.60118	4112.3625
3091.97576	4087.0625
3094.3489	4090.4625
3096.72061	4083.1625
3099.09087	4083.4625
3101.4597	4089.1625
3103.82709	4067.4625
3106.19305	4062.7625
3108.55757	4056.3625
3110.92066	4043.4625
3113.28232	4047.6625
3115.64255	4041.1625
3118.00134	4020.4625
3120.35871	4004.9625
3122.71466	4010.8625
3125.06917	4005.6625
3127.42226	4015.7625
3129.77393	4008.9625
3132.12417	4013.8625
3134.47299	4017.8625
3136.82039	4014.6625
3139.16636	4024.4625
3141.51092	4036.4625
3143.85406	4018.1625
3146.19579	4019.4625
3148.53609	4028.8625
3150.87499	4034.9625
3153.21246	4024.4625
3155.54853	4021.4625
3157.88318	4023.4625
3160.21642	4021.1625
3162.54826	4018.6625
3164.87868	4011.4625
3167.2077	4003.3625
3169.5353	4014.5625
3171.86151	4014.4625
3174.18631	4010.5625
3176.5097	4005.0625
3178.83169	3994.6625
3181.15228	4003.9625
3183.47147	3996.1625
3185.78926	4002.6625
3188.10565	3996.7625
3190.42065	4008.2625
3192.73424	4002.7625
3195.04645	3998.2625
3197.35725	3996.6625
3199.66667	4005.7625
3201.97469	4014.9625
3204.28132	4004.5625
3206.58656	3998.6625
3208.8904	3997.5625
3211.19287	3999.5625
3213.49394	3992.2625
3215.79363	3998.1625
3218.09193	3984.7625
3220.38884	3996.5625
3222.68438	4002.2625
3224.97853	3982.8625
3227.2713	3991.7625
3229.56269	3993.9625
3231.8527	3977.8625
3234.14133	3988.9625
3236.42858	3969.8625
3238.71446	3990.2625
3240.99896	3968.1625
3243.28209	3968.6625
3245.56384	3949.5625
3247.84423	3956.7625
3250.12324	3952.2625
3252.40088	3942.4625
3254.67715	3944.9625
3256.95205	3922.0625
3259.22558	3929.2625
3261.49775	3926.0625
3263.76855	3901.5625
3266.03799	3882.3625
3268.30606	3886.4625
3270.57277	3872.2625
3272.83812	3876.7625
3275.10211	3872.1625
3277.36474	3883.2625
3279.62601	3880.5625
3281.88593	3849.5625
3284.14448	3876.6625
3286.40168	3867.6625
3288.65753	3857.5625
3290.91202	3859.3625
3293.16516	3842.6625
3295.41695	3837.2625
3297.66738	3808.3625
3299.91647	3802.4625
3302.16421	3791.7625
3304.4106	3764.1625
3306.65564	3748.2625
3308.89933	3706.1625
3311.14169	3687.4625
3313.38269	3667.3625
3315.62236	3653.2625
3317.86068	3623.5625
3320.09766	3579.4625
3322.3333	3534.0625
3324.5676	3525.5625
3326.80056	3466.2625
3329.03219	3462.8625
3331.26248	1.6625
3333.49143	-0.8375
3335.71905	1.6625
