Data from AgNP_FTO_APTES_UA_100uM_CRN_10uM_R6G_10uM_NaF_0.1M_Addition_RamanShift__13__15-32-10-412.txt Node

Date: Thu Mar 24 15:32:10 GMT 2022
User: TCL
Spectrometer: QEP01345
Trigger mode: 4
Integration Time (sec): 7.000000E0
Scans to average: 10
Electric dark correction enabled: true
Nonlinearity correction enabled: false
Boxcar width: 0
XAxis mode: Raman Shifts
Number of Pixels in Spectrum: 1044
>>>>>Begin Spectral Data<<<<<
46.04893	-1.475
50.45542	-0.075
54.85868	1.125
59.25871	0.425
63.6555	-1.275
68.04907	1.225
72.43941	-0.075
76.82654	-1.875
81.21044	-1.075
85.59113	-0.575
89.96862	0.525
94.34289	-2.475
98.71396	-1.275
103.08183	0.325
107.4465	-1.275
111.80798	-0.975
116.16626	-1.375
120.52136	-0.175
124.87327	-2.975
129.222	0.125
133.56755	-0.075
137.90993	-3.275
142.24913	1.325
146.58517	-5.775
150.91804	-1.375
155.24774	-0.375
159.57429	0.525
163.89768	-3.675
168.21792	2.525
172.53501	0.025
176.84895	0.325
181.15975	-1.775
185.46741	-3.175
189.77193	-1.975
194.07331	-4.075
198.37157	-1.475
202.6667	-4.375
206.9587	-9.275
211.24758	-5.275
215.53334	-5.175
219.81599	-7.675
224.09553	-3.175
228.37195	-3.275
232.64527	-8.275
236.91549	-12.875
241.18261	-8.575
245.44663	-8.175
249.70755	-10.375
253.96539	-9.575
258.22014	-8.975
262.4718	-9.175
266.72039	-11.275
270.96589	-8.775
275.20832	-9.775
279.44768	-5.475
283.68397	-8.375
287.91719	-2.275
292.14735	-12.675
296.37445	-8.375
300.59849	-10.075
304.81948	-6.875
309.03742	-10.975
313.25231	-10.475
317.46415	-5.075
321.67296	-5.875
325.87872	-5.775
330.08145	-11.475
334.28114	-11.075
338.47781	-10.575
342.67145	-7.875
346.86207	-11.975
351.04966	-8.475
355.23424	-8.775
359.4158	-5.675
363.59435	-10.875
367.76989	-8.275
371.94243	-8.875
376.11196	-7.975
380.27849	-4.575
384.44203	-10.675
388.60257	-5.275
392.76012	-7.975
396.91468	-9.575
401.06626	-9.275
405.21485	-7.675
409.36047	-7.975
413.50311	-3.775
417.64277	-7.775
421.77947	-5.575
425.9132	-1.475
430.04396	3.625
434.17176	-0.875
438.2966	-0.575
442.41849	-1.975
446.53742	-6.675
450.6534	-4.075
454.76644	-3.575
458.87653	-4.575
462.98368	-12.175
467.08789	-3.175
471.18916	-10.575
475.2875	-8.675
479.38291	-5.275
483.4754	-6.475
487.56496	-6.175
491.6516	-2.875
495.73531	-8.575
499.81612	-6.475
503.89401	-7.075
507.96899	-10.075
512.04106	-6.775
516.11023	-0.775
520.1765	-9.075
524.23987	-6.875
528.30034	-5.875
532.35792	-10.075
536.41261	-4.875
540.46441	-8.375
544.51333	-9.475
548.55936	-7.175
552.60252	-4.975
556.64279	-6.475
560.6802	-5.675
564.71473	-6.275
568.7464	-7.975
572.7752	-8.475
576.80114	-9.575
580.82422	-10.575
584.84444	-10.475
588.86181	-9.075
592.87633	-8.075
596.888	-8.275
600.89682	-11.075
604.9028	-7.775
608.90594	-9.875
612.90624	-8.675
616.90371	-12.175
620.89834	-9.975
624.89015	-5.875
628.87913	-12.775
632.86528	-6.275
636.84862	-9.775
640.82913	-6.575
644.80683	-6.875
648.78172	-7.475
652.75379	-8.475
656.72306	-7.875
660.68952	-8.975
664.65319	-6.175
668.61405	-9.475
672.57211	-9.375
676.52738	-7.175
680.47986	-5.975
684.42955	-6.375
688.37646	-8.775
692.32058	-8.175
696.26192	-3.075
700.20048	-2.475
704.13626	-0.075
708.06928	-0.975
711.99952	1.325
715.927	-2.675
719.85171	-3.775
723.77365	-6.375
727.69284	-4.775
731.60928	-6.575
735.52295	-6.775
739.43388	-6.175
743.34206	-9.775
747.24749	-9.475
751.15017	-7.375
755.05012	-6.875
758.94733	-7.275
762.8418	-6.775
766.73354	-9.575
770.62254	-4.375
774.50882	-9.575
778.39237	-10.775
782.27321	-7.875
786.15132	-7.975
790.02671	-10.275
793.89938	-11.475
797.76935	-6.875
801.6366	-4.075
805.50115	-5.875
809.36299	-6.375
813.22213	-10.375
817.07857	-5.675
820.93231	-6.375
824.78336	-9.975
828.63172	-7.275
832.47738	-5.575
836.32036	-7.175
840.16066	-6.075
843.99827	-4.675
847.8332	-5.775
851.66546	-5.475
855.49504	-9.475
859.32195	-10.275
863.1462	-7.875
866.96777	-3.575
870.78668	-7.975
874.60293	-3.975
878.41652	-8.975
882.22745	-7.675
886.03573	-7.975
889.84136	-7.575
893.64433	-7.075
897.44466	-5.575
901.24235	-8.675
905.0374	-11.075
908.8298	-4.475
912.61957	-7.375
916.40671	-6.475
920.19121	-9.875
923.97308	-7.475
927.75233	-7.975
931.52895	-9.175
935.30295	-12.575
939.07433	-11.575
942.84309	-9.475
946.60924	-8.175
950.37278	-10.675
954.13371	-4.875
957.89203	-10.975
961.64774	-5.475
965.40086	-8.175
969.15137	-9.375
972.89929	-4.275
976.64461	-5.475
980.38733	-7.575
984.12747	-9.375
987.86502	-7.875
991.59999	-10.775
995.33237	-8.075
999.06217	-5.175
1002.78939	-7.975
1006.51404	-6.075
1010.23611	-11.875
1013.95561	-7.275
1017.67255	-8.675
1021.38692	-8.575
1025.09872	-8.175
1028.80796	-9.775
1032.51465	-9.075
1036.21877	-2.375
1039.92035	-1.875
1043.61937	-9.875
1047.31584	-7.375
1051.00976	-9.675
1054.70114	-6.575
1058.38998	-9.175
1062.07627	-8.375
1065.76003	-6.775
1069.44126	-8.575
1073.11995	-12.075
1076.79611	-7.375
1080.46974	-6.375
1084.14085	-7.375
1087.80943	-4.775
1091.47549	-8.575
1095.13903	-7.375
1098.80005	-9.675
1102.45857	-9.975
1106.11456	-5.875
1109.76805	-8.575
1113.41903	-7.575
1117.06751	-5.275
1120.71348	-6.075
1124.35696	-6.575
1127.99793	-8.375
1131.63641	-10.075
1135.2724	-11.475
1138.90589	-9.775
1142.5369	-7.075
1146.16542	-5.775
1149.79145	-8.575
1153.415	-6.875
1157.03607	-8.875
1160.65467	-8.975
1164.27079	-7.775
1167.88443	-9.775
1171.49561	-7.475
1175.10432	-4.675
1178.71056	-9.075
1182.31434	-7.975
1185.91565	-9.275
1189.51451	-12.175
1193.11091	-8.475
1196.70485	-11.875
1200.29634	-11.675
1203.88538	-8.775
1207.47197	-6.975
1211.05612	-7.475
1214.63782	-9.575
1218.21708	-11.475
1221.79391	-8.575
1225.36829	-8.675
1228.94024	-9.375
1232.50976	-8.875
1236.07685	-5.375
1239.6415	-6.975
1243.20374	-5.575
1246.76355	-5.475
1250.32093	-3.475
1253.8759	-2.875
1257.42845	-3.675
1260.97859	-3.475
1264.52631	-0.775
1268.07163	-1.875
1271.61453	-1.675
1275.15503	-1.775
1278.69312	-4.675
1282.22882	-6.575
1285.76211	-5.375
1289.29301	-9.575
1292.82151	-10.575
1296.34761	-8.475
1299.87133	-7.175
1303.39266	-8.975
1306.9116	-13.675
1310.42815	-12.775
1313.94233	-12.875
1317.45412	-15.475
1320.96354	-12.575
1324.47058	-8.575
1327.97525	-11.375
1331.47754	-10.975
1334.97747	-14.175
1338.47502	-8.375
1341.97022	-11.275
1345.46305	-11.475
1348.95352	-9.575
1352.44163	-11.575
1355.92738	-15.575
1359.41078	-13.875
1362.89183	-13.675
1366.37053	-9.675
1369.84688	-9.275
1373.32088	-11.775
1376.79254	-5.675
1380.26186	-7.675
1383.72883	-6.975
1387.19347	-1.275
1390.65578	-4.275
1394.11575	-4.675
1397.57339	-4.075
1401.0287	-8.875
1404.48168	-8.775
1407.93234	-9.575
1411.38068	-6.775
1414.82669	-9.775
1418.27039	-9.975
1421.71177	-9.975
1425.15083	-10.975
1428.58758	-8.375
1432.02203	-11.075
1435.45416	-11.775
1438.88399	-13.275
1442.31151	-13.375
1445.73673	-7.675
1449.15965	-8.475
1452.58027	-11.475
1455.9986	-8.775
1459.41463	-9.775
1462.82837	-12.975
1466.23982	-10.975
1469.64898	-13.275
1473.05586	-12.175
1476.46045	-12.575
1479.86276	-13.175
1483.26279	-13.175
1486.66054	-12.775
1490.05602	-12.375
1493.44922	-12.475
1496.84016	-10.275
1500.22882	-13.575
1503.61521	-13.875
1506.99934	-11.375
1510.38121	-12.775
1513.76081	-11.575
1517.13816	-11.275
1520.51324	-12.275
1523.88607	-12.775
1527.25665	-13.175
1530.62498	-11.375
1533.99105	-9.775
1537.35488	-13.675
1540.71647	-11.175
1544.07581	-10.575
1547.4329	-8.775
1550.78776	-14.775
1554.14038	-12.975
1557.49077	-10.175
1560.83892	-10.375
1564.18484	-5.875
1567.52853	-6.475
1570.86999	-12.275
1574.20922	-10.875
1577.54624	-11.575
1580.88103	-10.575
1584.2136	-11.475
1587.54395	-8.075
1590.87208	-11.875
1594.19801	-10.675
1597.52172	-9.575
1600.84321	-6.575
1604.16251	-8.975
1607.47959	-6.575
1610.79447	-9.675
1614.10715	-6.075
1617.41763	-5.875
1620.7259	-4.775
1624.03199	-2.875
1627.33587	-6.275
1630.63757	-4.075
1633.93707	1.925
1637.23439	-2.875
1640.52951	4.825
1643.82246	0.525
1647.11321	5.625
1650.40179	9.825
1653.68819	9.725
1656.97241	14.125
1660.25446	13.725
1663.53433	12.425
1666.81203	10.725
1670.08756	11.325
1673.36092	1.925
1676.63211	1.025
1679.90115	-1.375
1683.16801	5.725
1686.43272	-0.575
1689.69527	2.525
1692.95567	9.625
1696.2139	19.825
1699.46999	39.125
1702.72392	30.525
1705.97571	19.625
1709.22535	8.725
1712.47284	4.425
1715.71819	-4.375
1718.96139	-16.175
1722.20246	-9.275
1725.44139	-3.375
1728.67818	-6.075
1731.91284	-2.575
1735.14537	-5.575
1738.37576	-3.075
1741.60403	-1.175
1744.83017	-5.175
1748.05418	0.725
1751.27607	0.125
1754.49584	6.925
1757.71349	15.325
1760.92903	16.325
1764.14244	25.125
1767.35375	40.725
1770.56294	25.725
1773.77002	11.425
1776.97499	3.225
1780.17785	6.025
1783.37861	-2.875
1786.57727	-3.675
1789.77382	-6.275
1792.96828	-4.075
1796.16064	-9.175
1799.3509	-5.375
1802.53907	-7.375
1805.72514	-8.875
1808.90913	-5.975
1812.09102	-4.975
1815.27083	-8.175
1818.44856	-6.375
1821.6242	-9.375
1824.79776	-10.475
1827.96924	-10.275
1831.13864	-10.375
1834.30597	-10.275
1837.47122	-6.675
1840.6344	-9.675
1843.7955	-8.975
1846.95454	-7.275
1850.11151	-12.375
1853.26642	-7.675
1856.41926	-5.875
1859.57004	-9.175
1862.71876	-6.475
1865.86542	-8.575
1869.01003	-4.775
1872.15258	-6.875
1875.29308	-9.275
1878.43152	-7.975
1881.56792	-6.775
1884.70227	-11.175
1887.83457	-11.075
1890.96482	-7.775
1894.09304	-9.075
1897.21921	-8.575
1900.34335	-7.875
1903.46544	-7.775
1906.58551	-8.275
1909.70353	-4.975
1912.81953	-9.775
1915.93349	-9.975
1919.04543	-5.075
1922.15534	-5.475
1925.26322	-5.575
1928.36908	-8.975
1931.47292	-6.475
1934.57473	-5.175
1937.67453	-10.875
1940.77232	-7.375
1943.86808	-10.075
1946.96184	-9.075
1950.05358	-7.775
1953.14331	-5.575
1956.23103	-5.675
1959.31675	-8.775
1962.40046	-11.175
1965.48217	-10.175
1968.56188	-11.575
1971.63959	-7.075
1974.7153	-7.875
1977.78901	-8.175
1980.86073	-6.575
1983.93046	-7.275
1986.99819	-10.275
1990.06394	-7.775
1993.1277	-9.475
1996.18947	-5.575
1999.24925	-9.675
2002.30706	-10.375
2005.36288	-6.275
2008.41672	-9.175
2011.46859	-8.275
2014.51848	-6.475
2017.56639	-7.775
2020.61233	-1.775
2023.6563	-6.675
2026.6983	-8.375
2029.73833	-8.175
2032.7764	-9.875
2035.8125	-10.875
2038.84664	-6.675
2041.87881	-13.175
2044.90903	-6.975
2047.93729	-8.575
2050.96359	-8.475
2053.98794	-6.475
2057.01034	-7.575
2060.03078	-7.875
2063.04927	-8.375
2066.06582	-9.675
2069.08042	-7.675
2072.09307	-12.375
2075.10378	-10.775
2078.11255	-8.675
2081.11938	-8.875
2084.12426	-6.875
2087.12722	-8.775
2090.12824	-6.175
2093.12732	-7.275
2096.12447	-7.775
2099.11969	-8.975
2102.11299	-7.475
2105.10435	-4.075
2108.09379	-8.875
2111.08131	-7.275
2114.0669	-2.675
2117.05057	-5.875
2120.03233	-6.275
2123.01216	-7.075
2125.99008	-6.875
2128.96609	-9.575
2131.94018	-7.175
2134.91236	-8.075
2137.88263	-5.075
2140.851	-8.675
2143.81746	-9.975
2146.78201	-7.075
2149.74466	-6.875
2152.7054	-7.675
2155.66425	-7.775
2158.6212	-9.975
2161.57625	-7.675
2164.52941	-7.875
2167.48067	-10.175
2170.43004	-8.675
2173.37752	-5.875
2176.32311	-9.475
2179.26681	-7.075
2182.20863	-9.475
2185.14856	-7.675
2188.08661	-8.675
2191.02278	-8.475
2193.95707	-6.975
2196.88948	-8.275
2199.82001	-5.675
2202.74867	-6.875
2205.67545	-4.975
2208.60037	-7.075
2211.52341	-10.175
2214.44458	-8.275
2217.36388	-9.275
2220.28132	-9.575
2223.1969	-10.175
2226.11061	-8.575
2229.02246	-11.475
2231.93245	-6.975
2234.84058	-5.275
2237.74686	-8.875
2240.65128	-7.875
2243.55385	-6.475
2246.45456	-9.775
2249.35343	-10.375
2252.25044	-7.575
2255.14561	-10.075
2258.03893	-8.575
2260.93041	-4.975
2263.82004	-7.175
2266.70783	-9.175
2269.59378	-3.275
2272.4779	-6.475
2275.36017	-6.875
2278.24061	-10.775
2281.11922	-11.075
2283.996	-9.175
2286.87094	-11.075
2289.74405	-7.175
2292.61534	-9.175
2295.4848	-3.475
2298.35243	-5.775
2301.21824	-8.475
2304.08223	-5.975
2306.94439	-6.175
2309.80474	-6.675
2312.66327	-6.775
2315.51999	-9.775
2318.37489	-4.775
2321.22797	-5.075
2324.07925	-5.875
2326.92871	-6.075
2329.77637	-4.975
2332.62222	-5.975
2335.46626	-6.975
2338.3085	-4.575
2341.14893	-7.475
2343.98756	-7.675
2346.8244	-6.175
2349.65943	-7.975
2352.49267	-8.275
2355.32411	-4.275
2358.15376	-5.875
2360.98161	-5.575
2363.80768	-6.775
2366.63195	-7.675
2369.45444	-8.975
2372.27514	-5.075
2375.09405	-7.975
2377.91118	-7.275
2380.72652	-9.175
2383.54009	-5.675
2386.35187	-6.475
2389.16188	-9.275
2391.97011	-8.775
2394.77657	-4.275
2397.58125	-6.875
2400.38416	-5.775
2403.18529	-4.775
2405.98466	-8.375
2408.78226	-6.175
2411.57809	-6.075
2414.37216	-5.975
2417.16446	-9.175
2419.955	-8.475
2422.74378	-7.075
2425.5308	-7.975
2428.31606	-9.475
2431.09956	-3.875
2433.88131	-7.175
2436.6613	-10.875
2439.43954	-6.575
2442.21603	-6.575
2444.99077	-6.475
2447.76377	-7.875
2450.53501	-10.175
2453.30451	-7.275
2456.07226	-8.275
2458.83827	-6.375
2461.60254	-6.375
2464.36507	-5.675
2467.12586	-7.175
2469.88492	-5.675
2472.64224	-6.275
2475.39782	-7.675
2478.15167	-5.975
2480.90379	-6.775
2483.65417	-8.075
2486.40283	-5.375
2489.14976	-7.075
2491.89497	-7.175
2494.63845	-2.075
2497.3802	-1.975
2500.12024	-5.775
2502.85855	-8.375
2505.59514	-8.375
2508.33002	-4.675
2511.06318	-8.375
2513.79462	-8.775
2516.52435	-10.175
2519.25237	-10.375
2521.97867	-8.475
2524.70327	-6.975
2527.42616	-5.275
2530.14734	-6.375
2532.86681	-7.275
2535.58458	-6.175
2538.30065	-10.875
2541.01501	-8.775
2543.72768	-8.575
2546.43864	-5.475
2549.14791	-5.975
2551.85548	-11.675
2554.56136	-3.775
2557.26554	-7.875
2559.96803	-5.375
2562.66883	-5.275
2565.36794	-6.975
2568.06536	-6.775
2570.7611	-6.475
2573.45514	-3.975
2576.14751	-8.475
2578.83819	-8.475
2581.52719	-6.775
2584.21451	-7.275
2586.90015	-5.075
2589.58411	-7.475
2592.2664	-6.875
2594.94701	-3.575
2597.62594	-6.775
2600.30321	-7.575
2602.9788	-7.275
2605.65273	-2.275
2608.32498	-5.275
2610.99557	-7.675
2613.66449	-8.175
2616.33175	-9.675
2618.99734	-8.375
2621.66128	-8.375
2624.32355	-6.175
2626.98416	-7.175
2629.64311	-7.575
2632.30041	-8.475
2634.95605	-6.475
2637.61004	-5.275
2640.26238	-10.675
2642.91306	-5.275
2645.56209	-4.475
2648.20948	-4.875
2650.85521	-1.275
2653.4993	-8.475
2656.14175	-5.975
2658.78255	-4.575
2661.42171	-4.975
2664.05923	-7.375
2666.6951	-6.675
2669.32934	-7.075
2671.96194	-3.675
2674.59291	-5.575
2677.22224	-6.375
2679.84993	-4.575
2682.476	-10.675
2685.10043	-9.175
2687.72324	-7.475
2690.34441	-8.875
2692.96396	-6.375
2695.58188	-6.275
2698.19818	-3.775
2700.81285	-4.675
2703.4259	0.425
2706.03733	2.125
2708.64714	-2.975
2711.25533	-2.675
2713.86191	-2.975
2716.46687	-3.575
2719.07021	-4.675
2721.67194	-4.275
2724.27206	-3.375
2726.87057	-6.475
2729.46747	-4.275
2732.06276	-5.275
2734.65644	-9.575
2737.24852	-7.375
2739.83899	-6.475
2742.42786	-2.775
2745.01513	-5.575
2747.60079	-9.375
2750.18486	-8.275
2752.76733	-7.675
2755.3482	-7.275
2757.92747	-7.575
2760.50515	-8.575
2763.08123	-9.575
2765.65573	-7.675
2768.22863	-5.675
2770.79994	-6.275
2773.36967	-7.175
2775.9378	-3.475
2778.50435	-6.175
2781.06932	-5.775
2783.6327	-4.775
2786.1945	-4.175
2788.75471	-7.575
2791.31335	-8.675
2793.87041	-7.575
2796.42589	-8.375
2798.97979	-4.675
2801.53212	-7.675
2804.08288	-10.275
2806.63206	-4.475
2809.17967	-7.275
2811.72571	-7.575
2814.27018	-4.775
2816.81308	-4.775
2819.35442	-8.575
2821.89419	-6.475
2824.43239	-6.475
2826.96904	-7.175
2829.50412	-5.075
2832.03763	-6.075
2834.56959	-6.375
2837.1	-5.375
2839.62884	-7.275
2842.15613	-7.575
2844.68186	-7.075
2847.20604	-5.175
2849.72867	-8.875
2852.24974	-7.875
2854.76927	2.725
2857.28724	-1.675
2859.80367	-6.375
2862.31855	-5.675
2864.83189	-6.175
2867.34368	-6.575
2869.85393	-8.675
2872.36264	-5.275
2874.8698	-7.575
2877.37543	-6.775
2879.87952	-6.275
2882.38207	-7.075
2884.88308	-7.875
2887.38256	-6.075
2889.88051	-7.475
2892.37692	-6.175
2894.8718	-6.875
2897.36515	-4.775
2899.85698	-6.475
2902.34727	-6.575
2904.83604	-8.875
2907.32328	-5.175
2909.809	-8.175
2912.29319	-6.475
2914.77587	-8.775
2917.25702	-6.975
2919.73665	-6.075
2922.21476	-5.875
2924.69136	-4.475
2927.16644	-3.475
2929.64	-4.575
2932.11205	-5.675
2934.58258	-5.075
2937.05161	-6.475
2939.51912	-10.075
2941.98513	-4.575
2944.44962	-3.775
2946.91261	-5.375
2949.37409	-6.075
2951.83407	-7.775
2954.29254	-5.875
2956.74951	-4.475
2959.20498	-5.975
2961.65895	-6.075
2964.11142	-6.075
2966.56239	-1.275
2969.01186	-5.575
2971.45984	-3.675
2973.90632	-7.475
2976.35131	-2.675
2978.7948	-4.775
2981.23681	-9.475
2983.67732	-4.475
2986.11635	-7.875
2988.55388	-6.175
2990.98993	-6.675
2993.4245	-4.275
2995.85758	0.225
2998.28917	-1.975
3000.71928	-6.975
3003.14791	-1.475
3005.57506	-5.675
3008.00073	-7.575
3010.42493	-4.575
3012.84764	-5.475
3015.26888	-5.975
3017.68865	-4.975
3020.10694	-1.875
3022.52376	-8.675
3024.9391	-9.275
3027.35298	-4.075
3029.76539	-4.675
3032.17632	-7.475
3034.5858	-4.775
3036.9938	-5.175
3039.40034	-5.875
3041.80542	-3.375
3044.20903	-5.475
3046.61118	-4.575
3049.01187	-5.875
3051.4111	-2.775
3053.80888	-3.775
3056.20519	-5.675
3058.60005	-6.375
3060.99345	-4.775
3063.3854	-6.475
3065.7759	-8.475
3068.16494	-4.375
3070.55254	-5.775
3072.93868	-5.075
3075.32338	-3.675
3077.70662	-6.675
3080.08842	-5.775
3082.46878	-4.875
3084.84769	-5.775
3087.22515	-4.075
3089.60118	-5.175
3091.97576	-4.875
3094.3489	-5.975
3096.72061	-7.375
3099.09087	-6.875
3101.4597	-2.975
3103.82709	-2.675
3106.19305	-4.175
3108.55757	-4.875
3110.92066	-6.375
3113.28232	-3.575
3115.64255	-4.075
3118.00134	-4.075
3120.35871	-6.775
3122.71466	-4.175
3125.06917	-7.575
3127.42226	-2.275
3129.77393	-9.275
3132.12417	-6.275
3134.47299	-5.375
3136.82039	-3.975
3139.16636	-8.575
3141.51092	-4.475
3143.85406	-7.075
3146.19579	-6.975
3148.53609	-5.075
3150.87499	-3.175
3153.21246	-1.175
3155.54853	-5.375
3157.88318	-6.075
3160.21642	-7.975
3162.54826	-3.275
3164.87868	-5.075
3167.2077	-4.975
3169.5353	-5.775
3171.86151	-3.475
3174.18631	-5.875
3176.5097	-4.175
3178.83169	-2.575
3181.15228	-5.575
3183.47147	-4.775
3185.78926	-7.775
3188.10565	-6.175
3190.42065	-3.075
3192.73424	-2.875
3195.04645	-6.975
3197.35725	-4.975
3199.66667	-3.875
3201.97469	-5.475
3204.28132	-4.175
3206.58656	-2.375
3208.8904	-6.175
3211.19287	-9.675
3213.49394	-4.575
3215.79363	-2.875
3218.09193	-3.175
3220.38884	-3.375
3222.68438	-3.075
3224.97853	-0.975
3227.2713	-7.275
3229.56269	-3.075
3231.8527	-5.475
3234.14133	-2.575
3236.42858	-3.575
3238.71446	-5.075
3240.99896	-6.175
3243.28209	-5.875
3245.56384	-4.575
3247.84423	-7.375
3250.12324	-6.475
3252.40088	-5.575
3254.67715	-7.575
3256.95205	-4.375
3259.22558	-5.775
3261.49775	-3.475
3263.76855	-2.975
3266.03799	-3.675
3268.30606	-0.875
3270.57277	-8.575
3272.83812	-5.175
3275.10211	-4.875
3277.36474	-5.075
3279.62601	-4.375
3281.88593	-2.575
3284.14448	-4.575
3286.40168	-2.975
3288.65753	-1.375
3290.91202	-5.275
3293.16516	-2.375
3295.41695	-3.675
3297.66738	-5.075
3299.91647	-4.075
3302.16421	-3.975
3304.4106	-2.775
3306.65564	-3.375
3308.89933	-4.875
3311.14169	-3.075
3313.38269	-1.775
3315.62236	-5.275
3317.86068	-5.975
3320.09766	-3.975
3322.3333	-4.175
3324.5676	-0.075
3326.80056	-2.075
3329.03219	-1.475
3331.26248	-0.875
3333.49143	0.125
3335.71905	0.525
