Data from AgNP_FTO_APTES_UA_100uM_CRN_100uM_R6G_10uM_NaF_0.1M_Addition_RamanShift__21__18-12-00-590.txt Node

Date: Thu Mar 24 18:12:00 GMT 2022
User: TCL
Spectrometer: QEP01345
Trigger mode: 4
Integration Time (sec): 7.000000E0
Scans to average: 10
Electric dark correction enabled: true
Nonlinearity correction enabled: false
Boxcar width: 0
XAxis mode: Raman Shifts
Number of Pixels in Spectrum: 1044
>>>>>Begin Spectral Data<<<<<
46.04893	-1.5375
50.45542	-0.5375
54.85868	-0.1375
59.25871	-1.3375
63.6555	29.3625
68.04907	33.5625
72.43941	34.6625
76.82654	34.1625
81.21044	37.1625
85.59113	39.0625
89.96862	40.6625
94.34289	39.4625
98.71396	43.9625
103.08183	41.9625
107.4465	45.7625
111.80798	48.3625
116.16626	48.0625
120.52136	46.3625
124.87327	45.4625
129.222	48.7625
133.56755	55.3625
137.90993	52.9625
142.24913	61.3625
146.58517	67.2625
150.91804	74.9625
155.24774	86.1625
159.57429	107.1625
163.89768	134.6625
168.21792	178.9625
172.53501	242.3625
176.84895	338.9625
181.15975	472.3625
185.46741	656.1625
189.77193	910.3625
194.07331	1217.9625
198.37157	1562.7625
202.6667	1951.7625
206.9587	2332.1625
211.24758	2700.8625
215.53334	3082.5625
219.81599	3481.0625
224.09553	3943.9625
228.37195	4462.5625
232.64527	5022.2625
236.91549	5581.0625
241.18261	6136.2625
245.44663	6637.2625
249.70755	7043.1625
253.96539	7369.6625
258.22014	7639.4625
262.4718	7893.4625
266.72039	8064.2625
270.96589	8159.5625
275.20832	8150.2625
279.44768	8059.3625
283.68397	7984.7625
287.91719	7902.6625
292.14735	7874.8625
296.37445	7966.0625
300.59849	8066.3625
304.81948	8232.1625
309.03742	8362.5625
313.25231	8346.7625
317.46415	8145.2625
321.67296	7808.9625
325.87872	7529.9625
330.08145	7355.1625
334.28114	7345.1625
338.47781	7411.7625
342.67145	7530.7625
346.86207	7698.5625
351.04966	7931.6625
355.23424	8156.5625
359.4158	8336.5625
363.59435	8417.6625
367.76989	8482.2625
371.94243	8492.5625
376.11196	8486.3625
380.27849	8473.7625
384.44203	8443.4625
388.60257	8452.6625
392.76012	8497.2625
396.91468	8585.8625
401.06626	8706.3625
405.21485	8827.9625
409.36047	8738.1625
413.50311	8469.2625
417.64277	8207.2625
421.77947	8074.1625
425.9132	8042.1625
430.04396	8068.3625
434.17176	8097.2625
438.2966	8170.4625
442.41849	8274.5625
446.53742	8461.0625
450.6534	8640.1625
454.76644	8760.4625
458.87653	8787.6625
462.98368	8734.9625
467.08789	8658.9625
471.18916	8581.4625
475.2875	8445.2625
479.38291	8356.4625
483.4754	8251.1625
487.56496	8166.8625
491.6516	8126.1625
495.73531	8088.6625
499.81612	8069.7625
503.89401	8128.5625
507.96899	8158.4625
512.04106	8169.4625
516.11023	8201.0625
520.1765	8183.0625
524.23987	8197.1625
528.30034	8119.8625
532.35792	8089.9625
536.41261	7987.5625
540.46441	7901.9625
544.51333	7844.4625
548.55936	7918.3625
552.60252	8047.6625
556.64279	8204.6625
560.6802	8300.5625
564.71473	8338.6625
568.7464	8505.0625
572.7752	8674.1625
576.80114	8795.9625
580.82422	8857.1625
584.84444	9018.5625
588.86181	9129.0625
592.87633	9265.1625
596.888	9343.9625
600.89682	9357.2625
604.9028	9751.4625
608.90594	11197.8625
612.90624	12988.4625
616.90371	12359.6625
620.89834	9601.1625
624.89015	8259.4625
628.87913	8054.8625
632.86528	8227.1625
636.84862	8393.0625
640.82913	8316.6625
644.80683	8022.3625
648.78172	7755.4625
652.75379	7700.8625
656.72306	7825.1625
660.68952	8037.9625
664.65319	7991.1625
668.61405	7712.1625
672.57211	7600.5625
676.52738	7634.4625
680.47986	7602.4625
684.42955	7522.7625
688.37646	7485.3625
692.32058	7505.2625
696.26192	7556.9625
700.20048	7622.0625
704.13626	7697.7625
708.06928	7706.2625
711.99952	7684.1625
715.927	7675.7625
719.85171	7679.0625
723.77365	7683.9625
727.69284	7670.0625
731.60928	7624.3625
735.52295	7594.3625
739.43388	7612.5625
743.34206	7607.5625
747.24749	7650.1625
751.15017	7640.6625
755.05012	7754.8625
758.94733	7997.8625
762.8418	8662.3625
766.73354	9776.4625
770.62254	10840.4625
774.50882	11190.4625
778.39237	10647.3625
782.27321	9533.0625
786.15132	8527.0625
790.02671	7902.7625
793.89938	7593.2625
797.76935	7472.8625
801.6366	7394.0625
805.50115	7360.1625
809.36299	7318.4625
813.22213	7315.6625
817.07857	7297.8625
820.93231	7276.9625
824.78336	7237.8625
828.63172	7234.4625
832.47738	7216.1625
836.32036	7215.6625
840.16066	7179.6625
843.99827	7170.8625
847.8332	7155.0625
851.66546	7159.5625
855.49504	7153.0625
859.32195	7139.1625
863.1462	7138.6625
866.96777	7146.5625
870.78668	7133.0625
874.60293	7143.6625
878.41652	7153.9625
882.22745	7186.4625
886.03573	7222.8625
889.84136	7230.4625
893.64433	7211.3625
897.44466	7175.9625
901.24235	7129.8625
905.0374	7107.0625
908.8298	7056.3625
912.61957	7030.8625
916.40671	7060.6625
920.19121	7111.8625
923.97308	7171.3625
927.75233	7212.7625
931.52895	7193.2625
935.30295	7090.7625
939.07433	6945.4625
942.84309	6825.3625
946.60924	6739.4625
950.37278	6702.2625
954.13371	6671.2625
957.89203	6675.1625
961.64774	6660.3625
965.40086	6644.9625
969.15137	6614.6625
972.89929	6614.5625
976.64461	6576.2625
980.38733	6566.1625
984.12747	6574.8625
987.86502	6588.2625
991.59999	6625.7625
995.33237	6655.2625
999.06217	6748.8625
1002.78939	6886.1625
1006.51404	7002.9625
1010.23611	7144.3625
1013.95561	7209.7625
1017.67255	7207.9625
1021.38692	7125.0625
1025.09872	7021.1625
1028.80796	6914.7625
1032.51465	6852.8625
1036.21877	6856.0625
1039.92035	6911.6625
1043.61937	6945.1625
1047.31584	6992.0625
1051.00976	7007.9625
1054.70114	7029.2625
1058.38998	7057.4625
1062.07627	7099.9625
1065.76003	7154.7625
1069.44126	7220.8625
1073.11995	7355.2625
1076.79611	7476.0625
1080.46974	7564.7625
1084.14085	7647.5625
1087.80943	7773.0625
1091.47549	7832.3625
1095.13903	7779.1625
1098.80005	7613.7625
1102.45857	7433.0625
1106.11456	7307.7625
1109.76805	7285.8625
1113.41903	7379.1625
1117.06751	7537.0625
1120.71348	7755.2625
1124.35696	7984.5625
1127.99793	8192.3625
1131.63641	8232.8625
1135.2724	8063.7625
1138.90589	7831.7625
1142.5369	7673.5625
1146.16542	7574.6625
1149.79145	7531.1625
1153.415	7499.7625
1157.03607	7561.2625
1160.65467	7702.9625
1164.27079	7965.7625
1167.88443	8345.3625
1171.49561	8959.6625
1175.10432	9836.2625
1178.71056	10961.2625
1182.31434	11900.6625
1185.91565	12217.2625
1189.51451	11991.4625
1193.11091	11466.5625
1196.70485	10837.2625
1200.29634	10232.1625
1203.88538	9739.3625
1207.47197	9250.3625
1211.05612	8800.4625
1214.63782	8503.4625
1218.21708	8354.9625
1221.79391	8262.2625
1225.36829	8268.9625
1228.94024	8188.4625
1232.50976	8143.7625
1236.07685	8053.2625
1239.6415	8015.5625
1243.20374	7993.9625
1246.76355	8018.5625
1250.32093	8086.7625
1253.8759	8187.6625
1257.42845	8405.5625
1260.97859	8664.8625
1264.52631	8934.1625
1268.07163	9189.8625
1271.61453	9434.6625
1275.15503	9652.2625
1278.69312	9819.1625
1282.22882	10007.6625
1285.76211	10300.4625
1289.29301	10636.8625
1292.82151	11065.2625
1296.34761	11496.2625
1299.87133	12112.7625
1303.39266	12956.7625
1306.9116	14091.3625
1310.42815	15185.3625
1313.94233	15722.2625
1317.45412	15393.3625
1320.96354	14625.3625
1324.47058	13868.5625
1327.97525	13184.9625
1331.47754	12694.6625
1334.97747	12414.6625
1338.47502	12342.9625
1341.97022	12509.4625
1345.46305	12817.2625
1348.95352	13300.3625
1352.44163	13953.6625
1355.92738	14902.7625
1359.41078	16367.2625
1362.89183	17791.2625
1366.37053	17571.5625
1369.84688	15463.1625
1373.32088	13085.5625
1376.79254	11563.7625
1380.26186	10752.0625
1383.72883	10324.9625
1387.19347	10024.5625
1390.65578	9716.0625
1394.11575	9504.3625
1397.57339	9394.9625
1401.0287	9343.4625
1404.48168	9347.7625
1407.93234	9292.1625
1411.38068	9190.9625
1414.82669	9088.6625
1418.27039	8906.7625
1421.71177	8677.3625
1425.15083	8461.8625
1428.58758	8308.9625
1432.02203	8331.1625
1435.45416	8433.9625
1438.88399	8529.1625
1442.31151	8607.4625
1445.73673	8722.8625
1449.15965	8796.8625
1452.58027	8829.2625
1455.9986	8840.4625
1459.41463	8907.4625
1462.82837	9070.4625
1466.23982	9317.3625
1469.64898	9590.0625
1473.05586	9807.8625
1476.46045	9997.2625
1479.86276	10120.5625
1483.26279	10264.3625
1486.66054	10484.8625
1490.05602	10784.6625
1493.44922	11255.8625
1496.84016	11965.8625
1500.22882	13006.8625
1503.61521	14413.6625
1506.99934	15808.1625
1510.38121	16732.2625
1513.76081	16624.5625
1517.13816	15463.7625
1520.51324	13822.5625
1523.88607	12426.0625
1527.25665	11537.2625
1530.62498	11048.5625
1533.99105	10694.2625
1537.35488	10440.0625
1540.71647	10172.3625
1544.07581	9879.4625
1547.4329	9655.9625
1550.78776	9487.1625
1554.14038	9391.1625
1557.49077	9431.5625
1560.83892	9566.3625
1564.18484	9796.4625
1567.52853	10118.9625
1570.86999	10383.9625
1574.20922	10611.0625
1577.54624	10559.3625
1580.88103	10131.2625
1584.2136	9575.1625
1587.54395	9300.3625
1590.87208	9417.5625
1594.19801	9813.1625
1597.52172	10387.3625
1600.84321	10611.8625
1604.16251	10250.1625
1607.47959	9668.5625
1610.79447	9045.7625
1614.10715	8456.5625
1617.41763	7939.4625
1620.7259	7553.7625
1624.03199	7337.1625
1627.33587	7284.4625
1630.63757	7410.2625
1633.93707	7784.8625
1637.23439	8452.6625
1640.52951	9534.1625
1643.82246	11033.6625
1647.11321	12629.9625
1650.40179	13506.8625
1653.68819	13054.4625
1656.97241	11378.6625
1660.25446	9561.7625
1663.53433	8162.3625
1666.81203	7276.8625
1670.08756	6749.2625
1673.36092	6428.3625
1676.63211	6242.0625
1679.90115	6101.6625
1683.16801	5980.8625
1686.43272	5878.3625
1689.69527	5830.9625
1692.95567	5764.0625
1696.2139	5712.3625
1699.46999	5689.8625
1702.72392	5647.6625
1705.97571	5623.0625
1709.22535	5599.3625
1712.47284	5582.2625
1715.71819	5562.0625
1718.96139	5532.5625
1722.20246	5478.2625
1725.44139	5443.6625
1728.67818	5425.7625
1731.91284	5366.4625
1735.14537	5330.4625
1738.37576	5300.7625
1741.60403	5288.8625
1744.83017	5251.9625
1748.05418	5234.1625
1751.27607	5223.8625
1754.49584	5207.2625
1757.71349	5198.7625
1760.92903	5196.2625
1764.14244	5185.0625
1767.35375	5180.0625
1770.56294	5138.5625
1773.77002	5122.5625
1776.97499	5096.6625
1780.17785	5090.7625
1783.37861	5055.3625
1786.57727	5050.0625
1789.77382	5055.8625
1792.96828	5038.8625
1796.16064	5019.8625
1799.3509	5021.5625
1802.53907	5003.7625
1805.72514	4977.5625
1808.90913	4954.2625
1812.09102	4946.0625
1815.27083	4930.5625
1818.44856	4929.2625
1821.6242	4905.7625
1824.79776	4896.9625
1827.96924	4887.0625
1831.13864	4881.4625
1834.30597	4861.3625
1837.47122	4842.9625
1840.6344	4849.2625
1843.7955	4852.7625
1846.95454	4840.8625
1850.11151	4831.3625
1853.26642	4816.0625
1856.41926	4819.7625
1859.57004	4802.0625
1862.71876	4789.8625
1865.86542	4772.3625
1869.01003	4791.0625
1872.15258	4785.5625
1875.29308	4785.5625
1878.43152	4755.3625
1881.56792	4769.1625
1884.70227	4765.0625
1887.83457	4744.6625
1890.96482	4746.6625
1894.09304	4731.3625
1897.21921	4707.5625
1900.34335	4704.6625
1903.46544	4699.3625
1906.58551	4696.0625
1909.70353	4687.4625
1912.81953	4700.0625
1915.93349	4675.6625
1919.04543	4660.0625
1922.15534	4643.9625
1925.26322	4635.2625
1928.36908	4616.4625
1931.47292	4590.6625
1934.57473	4593.4625
1937.67453	4580.0625
1940.77232	4576.1625
1943.86808	4543.8625
1946.96184	4536.8625
1950.05358	4510.9625
1953.14331	4500.4625
1956.23103	4485.1625
1959.31675	4470.3625
1962.40046	4458.6625
1965.48217	4451.0625
1968.56188	4427.4625
1971.63959	4416.9625
1974.7153	4412.2625
1977.78901	4389.7625
1980.86073	4398.0625
1983.93046	4367.6625
1986.99819	4343.8625
1990.06394	4320.5625
1993.1277	4316.6625
1996.18947	4296.7625
1999.24925	4291.0625
2002.30706	4270.8625
2005.36288	4258.1625
2008.41672	4229.8625
2011.46859	4216.0625
2014.51848	4198.1625
2017.56639	4196.4625
2020.61233	4179.0625
2023.6563	4163.6625
2026.6983	4140.0625
2029.73833	4134.5625
2032.7764	4125.8625
2035.8125	4116.7625
2038.84664	4081.8625
2041.87881	4082.3625
2044.90903	4084.9625
2047.93729	4068.0625
2050.96359	4076.4625
2053.98794	4060.3625
2057.01034	4052.7625
2060.03078	4038.8625
2063.04927	4033.9625
2066.06582	4010.8625
2069.08042	4020.4625
2072.09307	4017.5625
2075.10378	4004.4625
2078.11255	4005.6625
2081.11938	4032.7625
2084.12426	4022.2625
2087.12722	4011.4625
2090.12824	4003.0625
2093.12732	3998.0625
2096.12447	3986.5625
2099.11969	4000.4625
2102.11299	3999.4625
2105.10435	4000.7625
2108.09379	4000.1625
2111.08131	4010.3625
2114.0669	3996.4625
2117.05057	4007.0625
2120.03233	4005.2625
2123.01216	4017.0625
2125.99008	4009.5625
2128.96609	4017.6625
2131.94018	3995.7625
2134.91236	3989.0625
2137.88263	4007.1625
2140.851	4016.2625
2143.81746	3998.9625
2146.78201	3996.3625
2149.74466	3997.0625
2152.7054	3989.4625
2155.66425	3987.5625
2158.6212	3985.7625
2161.57625	3976.1625
2164.52941	3970.6625
2167.48067	3945.1625
2170.43004	3970.0625
2173.37752	3976.9625
2176.32311	3969.0625
2179.26681	3956.6625
2182.20863	3951.5625
2185.14856	3956.1625
2188.08661	3958.6625
2191.02278	3942.8625
2193.95707	3931.6625
2196.88948	3929.0625
2199.82001	3946.8625
2202.74867	3919.9625
2205.67545	3915.5625
2208.60037	3907.6625
2211.52341	3894.3625
2214.44458	3884.3625
2217.36388	3863.7625
2220.28132	3878.0625
2223.1969	3860.3625
2226.11061	3850.2625
2229.02246	3834.8625
2231.93245	3831.3625
2234.84058	3839.3625
2237.74686	3824.2625
2240.65128	3823.9625
2243.55385	3806.9625
2246.45456	3814.9625
2249.35343	3811.7625
2252.25044	3805.8625
2255.14561	3785.8625
2258.03893	3792.0625
2260.93041	3761.8625
2263.82004	3768.2625
2266.70783	3760.6625
2269.59378	3750.8625
2272.4779	3756.3625
2275.36017	3735.5625
2278.24061	3718.1625
2281.11922	3711.5625
2283.996	3702.5625
2286.87094	3690.6625
2289.74405	3685.8625
2292.61534	3676.9625
2295.4848	3677.7625
2298.35243	3660.5625
2301.21824	3646.9625
2304.08223	3657.3625
2306.94439	3648.6625
2309.80474	3651.3625
2312.66327	3664.0625
2315.51999	3644.9625
2318.37489	3630.9625
2321.22797	3625.4625
2324.07925	3632.9625
2326.92871	3623.8625
2329.77637	3620.1625
2332.62222	3606.8625
2335.46626	3602.0625
2338.3085	3594.3625
2341.14893	3598.0625
2343.98756	3587.4625
2346.8244	3591.6625
2349.65943	3593.6625
2352.49267	3593.1625
2355.32411	3604.0625
2358.15376	3589.9625
2360.98161	3605.0625
2363.80768	3604.2625
2366.63195	3613.8625
2369.45444	3615.2625
2372.27514	3608.8625
2375.09405	3592.3625
2377.91118	3594.9625
2380.72652	3571.8625
2383.54009	3563.4625
2386.35187	3571.7625
2389.16188	3543.0625
2391.97011	3527.5625
2394.77657	3503.8625
2397.58125	3500.6625
2400.38416	3496.1625
2403.18529	3479.2625
2405.98466	3470.3625
2408.78226	3466.3625
2411.57809	3469.1625
2414.37216	3447.3625
2417.16446	3460.5625
2419.955	3438.6625
2422.74378	3446.6625
2425.5308	3436.5625
2428.31606	3439.4625
2431.09956	3428.1625
2433.88131	3430.3625
2436.6613	3442.7625
2439.43954	3437.3625
2442.21603	3427.3625
2444.99077	3423.8625
2447.76377	3427.5625
2450.53501	3430.7625
2453.30451	3431.0625
2456.07226	3428.1625
2458.83827	3429.2625
2461.60254	3417.6625
2464.36507	3430.2625
2467.12586	3424.4625
2469.88492	3412.2625
2472.64224	3393.1625
2475.39782	3420.9625
2478.15167	3411.5625
2480.90379	3421.7625
2483.65417	3413.8625
2486.40283	3425.4625
2489.14976	3429.8625
2491.89497	3430.0625
2494.63845	3443.2625
2497.3802	3421.7625
2500.12024	3424.0625
2502.85855	3409.0625
2505.59514	3401.8625
2508.33002	3386.5625
2511.06318	3367.8625
2513.79462	3370.3625
2516.52435	3353.1625
2519.25237	3351.4625
2521.97867	3340.2625
2524.70327	3334.7625
2527.42616	3321.7625
2530.14734	3314.1625
2532.86681	3309.7625
2535.58458	3326.1625
2538.30065	3310.1625
2541.01501	3313.8625
2543.72768	3293.4625
2546.43864	3304.1625
2549.14791	3303.9625
2551.85548	3286.1625
2554.56136	3281.2625
2557.26554	3280.2625
2559.96803	3273.5625
2562.66883	3280.0625
2565.36794	3260.4625
2568.06536	3263.2625
2570.7611	3260.4625
2573.45514	3252.6625
2576.14751	3247.0625
2578.83819	3247.1625
2581.52719	3235.2625
2584.21451	3226.3625
2586.90015	3222.0625
2589.58411	3221.9625
2592.2664	3219.6625
2594.94701	3212.9625
2597.62594	3218.3625
2600.30321	3197.6625
2602.9788	3198.4625
2605.65273	3194.5625
2608.32498	3194.7625
2610.99557	3186.5625
2613.66449	3181.9625
2616.33175	3178.5625
2618.99734	3162.8625
2621.66128	3188.7625
2624.32355	3175.6625
2626.98416	3178.3625
2629.64311	3156.1625
2632.30041	3159.0625
2634.95605	3155.4625
2637.61004	3149.5625
2640.26238	3138.5625
2642.91306	3153.7625
2645.56209	3146.7625
2648.20948	3143.0625
2650.85521	3138.1625
2653.4993	3145.2625
2656.14175	3126.3625
2658.78255	3143.2625
2661.42171	3151.3625
2664.05923	3152.6625
2666.6951	3149.0625
2669.32934	3136.7625
2671.96194	3151.5625
2674.59291	3145.2625
2677.22224	3151.0625
2679.84993	3136.8625
2682.476	3133.3625
2685.10043	3134.5625
2687.72324	3122.5625
2690.34441	3133.4625
2692.96396	3142.8625
2695.58188	3129.5625
2698.19818	3122.0625
2700.81285	3120.2625
2703.4259	3131.5625
2706.03733	3120.3625
2708.64714	3117.8625
2711.25533	3147.0625
2713.86191	3142.9625
2716.46687	3143.2625
2719.07021	3131.8625
2721.67194	3139.6625
2724.27206	3142.3625
2726.87057	3138.0625
2729.46747	3138.0625
2732.06276	3144.4625
2734.65644	3131.2625
2737.24852	3125.3625
2739.83899	3130.0625
2742.42786	3117.7625
2745.01513	3104.6625
2747.60079	3106.8625
2750.18486	3110.8625
2752.76733	3107.1625
2755.3482	3107.1625
2757.92747	3090.4625
2760.50515	3082.7625
2763.08123	3079.1625
2765.65573	3072.4625
2768.22863	3076.8625
2770.79994	3075.4625
2773.36967	3069.5625
2775.9378	3072.9625
2778.50435	3071.7625
2781.06932	3065.2625
2783.6327	3064.5625
2786.1945	3073.1625
2788.75471	3061.3625
2791.31335	3058.3625
2793.87041	3038.9625
2796.42589	3051.2625
2798.97979	3053.7625
2801.53212	3035.7625
2804.08288	3031.6625
2806.63206	3016.9625
2809.17967	3026.8625
2811.72571	3027.6625
2814.27018	3027.5625
2816.81308	3020.8625
2819.35442	3014.7625
2821.89419	3012.5625
2824.43239	3013.4625
2826.96904	3001.5625
2829.50412	3005.5625
2832.03763	3002.2625
2834.56959	2998.0625
2837.1	3000.6625
2839.62884	2997.2625
2842.15613	3008.0625
2844.68186	3006.8625
2847.20604	3011.9625
2849.72867	3013.3625
2852.24974	3026.7625
2854.76927	3006.5625
2857.28724	3005.2625
2859.80367	3015.4625
2862.31855	3011.1625
2864.83189	3007.3625
2867.34368	3001.4625
2869.85393	3003.9625
2872.36264	3000.6625
2874.8698	2995.4625
2877.37543	2998.5625
2879.87952	3003.5625
2882.38207	2994.6625
2884.88308	2991.8625
2887.38256	2996.9625
2889.88051	2982.5625
2892.37692	2993.9625
2894.8718	3000.6625
2897.36515	2993.0625
2899.85698	2999.2625
2902.34727	2998.8625
2904.83604	2995.1625
2907.32328	3000.7625
2909.809	3009.7625
2912.29319	3007.2625
2914.77587	3016.5625
2917.25702	3010.4625
2919.73665	3003.1625
2922.21476	3007.6625
2924.69136	2997.3625
2927.16644	2998.8625
2929.64	2995.0625
2932.11205	2969.9625
2934.58258	2975.3625
2937.05161	2982.8625
2939.51912	2965.2625
2941.98513	2962.7625
2944.44962	2959.4625
2946.91261	2949.4625
2949.37409	2944.8625
2951.83407	2952.5625
2954.29254	2949.0625
2956.74951	2939.6625
2959.20498	2949.9625
2961.65895	2937.4625
2964.11142	2944.3625
2966.56239	2925.6625
2969.01186	2921.4625
2971.45984	2920.0625
2973.90632	2914.9625
2976.35131	2908.9625
2978.7948	2886.5625
2981.23681	2887.2625
2983.67732	2878.4625
2986.11635	2879.6625
2988.55388	2879.3625
2990.98993	2865.7625
2993.4245	2868.7625
2995.85758	2864.6625
2998.28917	2856.2625
3000.71928	2846.9625
3003.14791	2848.6625
3005.57506	2851.0625
3008.00073	2841.5625
3010.42493	2836.4625
3012.84764	2837.5625
3015.26888	2826.2625
3017.68865	2831.7625
3020.10694	2822.0625
3022.52376	2812.8625
3024.9391	2809.1625
3027.35298	2807.5625
3029.76539	2793.0625
3032.17632	2795.6625
3034.5858	2784.6625
3036.9938	2788.9625
3039.40034	2775.4625
3041.80542	2785.9625
3044.20903	2784.6625
3046.61118	2786.2625
3049.01187	2777.0625
3051.4111	2787.6625
3053.80888	2766.8625
3056.20519	2765.1625
3058.60005	2757.8625
3060.99345	2760.6625
3063.3854	2751.8625
3065.7759	2745.5625
3068.16494	2743.4625
3070.55254	2733.8625
3072.93868	2734.2625
3075.32338	2740.6625
3077.70662	2728.3625
3080.08842	2724.8625
3082.46878	2732.2625
3084.84769	2730.9625
3087.22515	2724.1625
3089.60118	2722.4625
3091.97576	2728.3625
3094.3489	2728.0625
3096.72061	2726.9625
3099.09087	2739.7625
3101.4597	2727.8625
3103.82709	2734.0625
3106.19305	2734.3625
3108.55757	2730.8625
3110.92066	2729.2625
3113.28232	2727.9625
3115.64255	2726.6625
3118.00134	2714.5625
3120.35871	2719.1625
3122.71466	2723.9625
3125.06917	2713.4625
3127.42226	2712.7625
3129.77393	2713.5625
3132.12417	2723.1625
3134.47299	2718.1625
3136.82039	2716.9625
3139.16636	2704.0625
3141.51092	2731.6625
3143.85406	2726.5625
3146.19579	2725.2625
3148.53609	2734.6625
3150.87499	2737.0625
3153.21246	2756.0625
3155.54853	2752.5625
3157.88318	2767.8625
3160.21642	2752.0625
3162.54826	2758.6625
3164.87868	2763.5625
3167.2077	2778.5625
3169.5353	2780.8625
3171.86151	2775.6625
3174.18631	2767.7625
3176.5097	2781.5625
3178.83169	2770.2625
3181.15228	2763.2625
3183.47147	2779.2625
3185.78926	2779.0625
3188.10565	2784.5625
3190.42065	2777.4625
3192.73424	2774.5625
3195.04645	2783.0625
3197.35725	2777.1625
3199.66667	2777.7625
3201.97469	2787.0625
3204.28132	2773.5625
3206.58656	2785.8625
3208.8904	2782.1625
3211.19287	2786.3625
3213.49394	2797.9625
3215.79363	2795.6625
3218.09193	2799.2625
3220.38884	2806.9625
3222.68438	2814.7625
3224.97853	2809.4625
3227.2713	2810.7625
3229.56269	2803.7625
3231.8527	2813.8625
3234.14133	2794.4625
3236.42858	2808.9625
3238.71446	2784.8625
3240.99896	2795.4625
3243.28209	2783.1625
3245.56384	2788.4625
3247.84423	2781.3625
3250.12324	2779.7625
3252.40088	2769.7625
3254.67715	2773.7625
3256.95205	2769.8625
3259.22558	2776.0625
3261.49775	2777.4625
3263.76855	2758.9625
3266.03799	2754.2625
3268.30606	2759.6625
3270.57277	2753.0625
3272.83812	2745.6625
3275.10211	2758.1625
3277.36474	2743.6625
3279.62601	2755.8625
3281.88593	2737.3625
3284.14448	2744.0625
3286.40168	2752.3625
3288.65753	2738.0625
3290.91202	2743.5625
3293.16516	2748.3625
3295.41695	2719.9625
3297.66738	2721.9625
3299.91647	2709.9625
3302.16421	2688.4625
3304.4106	2684.1625
3306.65564	2683.0625
3308.89933	2655.3625
3311.14169	2645.9625
3313.38269	2613.9625
3315.62236	2607.2625
3317.86068	2585.7625
3320.09766	2560.0625
3322.3333	2554.6625
3324.5676	2549.4625
3326.80056	2500.8625
3329.03219	2487.2625
3331.26248	1.2625
3333.49143	-0.2375
3335.71905	2.0625
