Data from AgNP_FTO_APTES_UA_100uM_CRN_10uM_R6G_10uM_NaF_0.1M_Addition_RamanShift__3__15-20-30-399.txt Node

Date: Thu Mar 24 15:20:30 GMT 2022
User: TCL
Spectrometer: QEP01345
Trigger mode: 4
Integration Time (sec): 7.000000E0
Scans to average: 10
Electric dark correction enabled: true
Nonlinearity correction enabled: false
Boxcar width: 0
XAxis mode: Raman Shifts
Number of Pixels in Spectrum: 1044
>>>>>Begin Spectral Data<<<<<
46.04893	-0.8375
50.45542	1.3625
54.85868	0.3625
59.25871	-0.8375
63.6555	0.3625
68.04907	2.7625
72.43941	1.8625
76.82654	-1.5375
81.21044	1.8625
85.59113	2.3625
89.96862	1.1625
94.34289	-2.6375
98.71396	-0.5375
103.08183	-2.2375
107.4465	-1.8375
111.80798	-0.2375
116.16626	0.7625
120.52136	0.3625
124.87327	-1.9375
129.222	0.6625
133.56755	2.3625
137.90993	-1.3375
142.24913	4.8625
146.58517	-0.2375
150.91804	-0.4375
155.24774	1.4625
159.57429	-1.6375
163.89768	-0.8375
168.21792	1.3625
172.53501	-0.7375
176.84895	1.8625
181.15975	1.6625
185.46741	0.2625
189.77193	-1.4375
194.07331	-4.1375
198.37157	-0.1375
202.6667	-2.5375
206.9587	-5.8375
211.24758	-4.0375
215.53334	-2.9375
219.81599	-2.0375
224.09553	1.4625
228.37195	-0.4375
232.64527	-1.8375
236.91549	-8.6375
241.18261	-0.3375
245.44663	0.6625
249.70755	-5.7375
253.96539	-4.6375
258.22014	-3.7375
262.4718	-1.8375
266.72039	-1.8375
270.96589	-3.5375
275.20832	-1.9375
279.44768	-1.0375
283.68397	-4.2375
287.91719	3.3625
292.14735	-4.7375
296.37445	-0.9375
300.59849	-5.3375
304.81948	-3.5375
309.03742	-3.9375
313.25231	-2.9375
317.46415	1.8625
321.67296	1.7625
325.87872	-2.3375
330.08145	-4.9375
334.28114	-4.0375
338.47781	-3.9375
342.67145	-5.7375
346.86207	-2.5375
351.04966	-3.7375
355.23424	-3.1375
359.4158	3.2625
363.59435	-1.2375
367.76989	-1.7375
371.94243	-2.8375
376.11196	-1.1375
380.27849	-0.4375
384.44203	-5.9375
388.60257	0.4625
392.76012	1.6625
396.91468	-1.2375
401.06626	-3.0375
405.21485	1.3625
409.36047	-1.4375
413.50311	1.7625
417.64277	1.1625
421.77947	4.0625
425.9132	6.0625
430.04396	4.9625
434.17176	7.2625
438.2966	3.8625
442.41849	4.6625
446.53742	1.7625
450.6534	-1.0375
454.76644	-1.0375
458.87653	0.6625
462.98368	-1.2375
467.08789	-0.8375
471.18916	-1.6375
475.2875	-3.1375
479.38291	1.0625
483.4754	-3.7375
487.56496	-1.6375
491.6516	1.9625
495.73531	-3.5375
499.81612	-2.1375
503.89401	-3.3375
507.96899	-5.7375
512.04106	-1.7375
516.11023	1.4625
520.1765	-1.6375
524.23987	-2.6375
528.30034	-1.7375
532.35792	-1.3375
536.41261	0.0625
540.46441	-0.5375
544.51333	-1.4375
548.55936	-2.6375
552.60252	-1.8375
556.64279	-0.8375
560.6802	-2.7375
564.71473	-3.2375
568.7464	-2.8375
572.7752	-2.1375
576.80114	-2.0375
580.82422	-4.7375
584.84444	-2.6375
588.86181	-6.2375
592.87633	-3.9375
596.888	-2.7375
600.89682	-5.2375
604.9028	-1.5375
608.90594	0.3625
612.90624	0.2625
616.90371	-2.0375
620.89834	-1.6375
624.89015	1.3625
628.87913	-8.7375
632.86528	-2.6375
636.84862	-1.8375
640.82913	-2.2375
644.80683	-1.6375
648.78172	-3.7375
652.75379	-2.9375
656.72306	-2.8375
660.68952	-4.4375
664.65319	-3.4375
668.61405	-3.9375
672.57211	-2.5375
676.52738	-1.4375
680.47986	-0.8375
684.42955	-5.2375
688.37646	-2.7375
692.32058	-0.4375
696.26192	2.2625
700.20048	1.0625
704.13626	6.3625
708.06928	4.8625
711.99952	5.1625
715.927	3.0625
719.85171	5.1625
723.77365	-1.3375
727.69284	-0.9375
731.60928	0.3625
735.52295	-2.1375
739.43388	-6.3375
743.34206	-3.4375
747.24749	-4.5375
751.15017	-2.6375
755.05012	-3.8375
758.94733	-3.1375
762.8418	-2.4375
766.73354	-6.3375
770.62254	-0.5375
774.50882	-4.6375
778.39237	0.8625
782.27321	0.2625
786.15132	-2.9375
790.02671	-5.1375
793.89938	-5.2375
797.76935	-3.2375
801.6366	-3.1375
805.50115	-1.4375
809.36299	-5.1375
813.22213	-7.5375
817.07857	-3.1375
820.93231	-3.1375
824.78336	-4.1375
828.63172	-2.0375
832.47738	-4.7375
836.32036	-1.7375
840.16066	-2.3375
843.99827	0.8625
847.8332	0.0625
851.66546	-2.1375
855.49504	-2.6375
859.32195	-4.2375
863.1462	-1.0375
866.96777	-1.0375
870.78668	-3.7375
874.60293	0.8625
878.41652	-4.0375
882.22745	0.6625
886.03573	-2.4375
889.84136	-2.9375
893.64433	-2.5375
897.44466	-0.7375
901.24235	-4.1375
905.0374	-4.7375
908.8298	0.2625
912.61957	-1.3375
916.40671	-4.0375
920.19121	-5.1375
923.97308	-2.1375
927.75233	-0.7375
931.52895	-6.6375
935.30295	-8.9375
939.07433	-5.7375
942.84309	-3.8375
946.60924	-5.0375
950.37278	-5.2375
954.13371	-2.0375
957.89203	-4.8375
961.64774	-3.0375
965.40086	-2.7375
969.15137	-1.7375
972.89929	-3.4375
976.64461	-2.2375
980.38733	-2.8375
984.12747	-2.8375
987.86502	-4.7375
991.59999	-6.4375
995.33237	-3.0375
999.06217	-1.6375
1002.78939	-3.5375
1006.51404	-1.6375
1010.23611	-6.2375
1013.95561	-2.6375
1017.67255	-4.5375
1021.38692	-2.4375
1025.09872	-1.8375
1028.80796	-6.4375
1032.51465	-5.7375
1036.21877	-0.0375
1039.92035	-2.8375
1043.61937	-4.9375
1047.31584	-2.2375
1051.00976	-5.8375
1054.70114	-5.2375
1058.38998	-1.9375
1062.07627	-3.6375
1065.76003	-3.4375
1069.44126	-2.4375
1073.11995	-2.8375
1076.79611	-2.4375
1080.46974	-0.9375
1084.14085	-3.4375
1087.80943	-0.6375
1091.47549	-4.8375
1095.13903	-2.5375
1098.80005	-4.3375
1102.45857	-5.0375
1106.11456	-1.8375
1109.76805	-3.7375
1113.41903	-3.3375
1117.06751	0.2625
1120.71348	1.3625
1124.35696	0.2625
1127.99793	-3.6375
1131.63641	-2.8375
1135.2724	-4.8375
1138.90589	-4.5375
1142.5369	-4.6375
1146.16542	-0.6375
1149.79145	-3.2375
1153.415	-3.9375
1157.03607	-5.4375
1160.65467	-2.4375
1164.27079	-0.7375
1167.88443	-7.0375
1171.49561	-1.6375
1175.10432	-1.7375
1178.71056	-2.9375
1182.31434	0.3625
1185.91565	-1.4375
1189.51451	-3.6375
1193.11091	-0.7375
1196.70485	-3.5375
1200.29634	-6.3375
1203.88538	-4.1375
1207.47197	-2.2375
1211.05612	-1.7375
1214.63782	-2.0375
1218.21708	-4.4375
1221.79391	-5.5375
1225.36829	-3.7375
1228.94024	-1.9375
1232.50976	-2.8375
1236.07685	-2.0375
1239.6415	-3.7375
1243.20374	0.6625
1246.76355	1.2625
1250.32093	2.2625
1253.8759	3.9625
1257.42845	1.6625
1260.97859	7.4625
1264.52631	2.3625
1268.07163	4.0625
1271.61453	3.2625
1275.15503	2.9625
1278.69312	-2.3375
1282.22882	-3.2375
1285.76211	0.1625
1289.29301	-2.3375
1292.82151	-2.2375
1296.34761	-1.7375
1299.87133	-0.3375
1303.39266	-3.9375
1306.9116	-0.5375
1310.42815	-3.1375
1313.94233	-2.8375
1317.45412	-6.4375
1320.96354	-5.7375
1324.47058	-2.6375
1327.97525	-7.0375
1331.47754	-5.0375
1334.97747	-6.4375
1338.47502	-2.9375
1341.97022	-5.5375
1345.46305	-7.2375
1348.95352	-3.4375
1352.44163	-5.9375
1355.92738	-6.8375
1359.41078	-5.4375
1362.89183	-3.2375
1366.37053	1.1625
1369.84688	-1.9375
1373.32088	-3.0375
1376.79254	0.6625
1380.26186	-0.2375
1383.72883	-0.0375
1387.19347	5.9625
1390.65578	4.0625
1394.11575	-1.1375
1397.57339	-1.1375
1401.0287	-5.6375
1404.48168	-4.0375
1407.93234	-5.8375
1411.38068	-2.4375
1414.82669	-7.4375
1418.27039	-5.4375
1421.71177	-4.0375
1425.15083	-6.3375
1428.58758	-5.1375
1432.02203	-7.1375
1435.45416	-7.9375
1438.88399	-5.9375
1442.31151	-6.4375
1445.73673	-0.3375
1449.15965	-2.5375
1452.58027	-7.0375
1455.9986	-4.6375
1459.41463	-6.5375
1462.82837	-5.2375
1466.23982	-5.1375
1469.64898	-7.4375
1473.05586	-3.0375
1476.46045	-8.4375
1479.86276	-5.7375
1483.26279	-7.2375
1486.66054	-5.6375
1490.05602	-6.0375
1493.44922	-5.6375
1496.84016	-6.4375
1500.22882	-5.6375
1503.61521	-4.0375
1506.99934	-4.1375
1510.38121	-1.7375
1513.76081	-0.7375
1517.13816	-3.6375
1520.51324	-4.7375
1523.88607	-3.8375
1527.25665	-5.8375
1530.62498	-4.9375
1533.99105	-4.8375
1537.35488	-5.1375
1540.71647	-3.6375
1544.07581	-8.6375
1547.4329	-4.1375
1550.78776	-8.2375
1554.14038	-7.4375
1557.49077	-2.3375
1560.83892	-4.1375
1564.18484	-4.9375
1567.52853	-1.9375
1570.86999	-2.9375
1574.20922	-1.2375
1577.54624	-5.8375
1580.88103	-6.3375
1584.2136	-7.5375
1587.54395	-5.4375
1590.87208	-8.2375
1594.19801	-5.2375
1597.52172	-4.2375
1600.84321	-3.6375
1604.16251	-5.6375
1607.47959	-0.0375
1610.79447	-1.7375
1614.10715	-4.0375
1617.41763	-1.4375
1620.7259	-0.9375
1624.03199	-0.2375
1627.33587	0.5625
1630.63757	2.9625
1633.93707	3.7625
1637.23439	4.3625
1640.52951	6.3625
1643.82246	6.8625
1647.11321	15.8625
1650.40179	18.6625
1653.68819	21.2625
1656.97241	18.2625
1660.25446	20.2625
1663.53433	18.6625
1666.81203	18.4625
1670.08756	17.9625
1673.36092	10.6625
1676.63211	4.0625
1679.90115	3.5625
1683.16801	8.7625
1686.43272	5.5625
1689.69527	6.4625
1692.95567	12.4625
1696.2139	24.3625
1699.46999	42.4625
1702.72392	35.9625
1705.97571	29.2625
1709.22535	12.5625
1712.47284	6.7625
1715.71819	2.7625
1718.96139	-11.2375
1722.20246	-5.8375
1725.44139	-0.0375
1728.67818	-1.8375
1731.91284	0.4625
1735.14537	-2.6375
1738.37576	-2.0375
1741.60403	-2.3375
1744.83017	-1.3375
1748.05418	3.9625
1751.27607	7.0625
1754.49584	14.1625
1757.71349	18.9625
1760.92903	21.6625
1764.14244	23.3625
1767.35375	20.0625
1770.56294	21.4625
1773.77002	14.3625
1776.97499	8.2625
1780.17785	8.6625
1783.37861	-2.0375
1786.57727	-3.1375
1789.77382	-2.0375
1792.96828	-1.4375
1796.16064	-4.3375
1799.3509	-5.1375
1802.53907	-7.3375
1805.72514	-9.1375
1808.90913	-3.4375
1812.09102	-2.3375
1815.27083	-9.6375
1818.44856	-2.8375
1821.6242	-5.1375
1824.79776	-7.1375
1827.96924	-8.0375
1831.13864	-4.3375
1834.30597	-4.1375
1837.47122	-3.9375
1840.6344	-4.5375
1843.7955	-5.4375
1846.95454	-4.1375
1850.11151	-6.2375
1853.26642	-2.3375
1856.41926	-5.7375
1859.57004	-6.3375
1862.71876	-3.1375
1865.86542	-8.5375
1869.01003	-2.4375
1872.15258	-7.0375
1875.29308	-6.8375
1878.43152	-5.5375
1881.56792	-1.8375
1884.70227	-7.1375
1887.83457	-2.4375
1890.96482	-6.0375
1894.09304	-6.6375
1897.21921	-6.5375
1900.34335	-3.7375
1903.46544	-2.9375
1906.58551	-5.9375
1909.70353	-3.5375
1912.81953	-6.3375
1915.93349	-8.8375
1919.04543	-6.2375
1922.15534	-2.5375
1925.26322	-4.3375
1928.36908	-4.3375
1931.47292	-5.5375
1934.57473	-5.2375
1937.67453	-7.4375
1940.77232	-3.5375
1943.86808	-6.6375
1946.96184	-4.0375
1950.05358	-3.6375
1953.14331	-5.0375
1956.23103	-1.7375
1959.31675	-3.3375
1962.40046	-6.9375
1965.48217	-3.9375
1968.56188	-5.1375
1971.63959	-1.8375
1974.7153	-2.8375
1977.78901	-7.5375
1980.86073	-1.8375
1983.93046	-2.9375
1986.99819	-7.5375
1990.06394	-7.2375
1993.1277	-9.9375
1996.18947	-6.0375
1999.24925	-3.5375
2002.30706	-5.8375
2005.36288	-4.3375
2008.41672	-6.4375
2011.46859	-4.1375
2014.51848	-5.1375
2017.56639	-5.0375
2020.61233	-5.7375
2023.6563	-4.3375
2026.6983	-5.4375
2029.73833	-5.8375
2032.7764	-6.1375
2035.8125	-8.5375
2038.84664	-3.4375
2041.87881	-5.8375
2044.90903	-3.7375
2047.93729	-7.3375
2050.96359	-4.2375
2053.98794	-7.2375
2057.01034	-7.1375
2060.03078	-5.4375
2063.04927	-8.8375
2066.06582	-5.2375
2069.08042	-6.6375
2072.09307	-6.2375
2075.10378	-6.5375
2078.11255	-5.1375
2081.11938	-4.6375
2084.12426	-3.9375
2087.12722	-4.2375
2090.12824	-2.6375
2093.12732	-5.0375
2096.12447	-4.4375
2099.11969	-5.1375
2102.11299	-3.2375
2105.10435	-3.8375
2108.09379	-4.6375
2111.08131	-3.7375
2114.0669	-3.7375
2117.05057	-7.3375
2120.03233	-6.7375
2123.01216	-3.7375
2125.99008	-6.4375
2128.96609	-6.9375
2131.94018	-5.1375
2134.91236	-3.5375
2137.88263	-1.6375
2140.851	-6.7375
2143.81746	-6.6375
2146.78201	-2.8375
2149.74466	-5.3375
2152.7054	-7.4375
2155.66425	-6.5375
2158.6212	-6.4375
2161.57625	-2.6375
2164.52941	-5.9375
2167.48067	-5.8375
2170.43004	-6.8375
2173.37752	-1.7375
2176.32311	-4.7375
2179.26681	-3.7375
2182.20863	-8.1375
2185.14856	-3.3375
2188.08661	-7.2375
2191.02278	-4.6375
2193.95707	-8.2375
2196.88948	-3.7375
2199.82001	-4.6375
2202.74867	-4.7375
2205.67545	-4.1375
2208.60037	-4.9375
2211.52341	-8.4375
2214.44458	-7.1375
2217.36388	-7.3375
2220.28132	-6.1375
2223.1969	-5.6375
2226.11061	-7.4375
2229.02246	-7.9375
2231.93245	-5.3375
2234.84058	-4.6375
2237.74686	-6.0375
2240.65128	-5.0375
2243.55385	-4.2375
2246.45456	-5.7375
2249.35343	-5.6375
2252.25044	-3.3375
2255.14561	-6.5375
2258.03893	-3.1375
2260.93041	-2.1375
2263.82004	-3.7375
2266.70783	-7.7375
2269.59378	-3.0375
2272.4779	-5.6375
2275.36017	-2.3375
2278.24061	-9.6375
2281.11922	-8.9375
2283.996	-6.4375
2286.87094	-5.8375
2289.74405	-2.7375
2292.61534	-5.1375
2295.4848	-1.0375
2298.35243	-2.7375
2301.21824	-4.8375
2304.08223	0.3625
2306.94439	-5.6375
2309.80474	-5.4375
2312.66327	-2.8375
2315.51999	-4.2375
2318.37489	-3.9375
2321.22797	-3.2375
2324.07925	-6.6375
2326.92871	-2.7375
2329.77637	-1.3375
2332.62222	-5.7375
2335.46626	-5.7375
2338.3085	-4.1375
2341.14893	-4.6375
2343.98756	-4.5375
2346.8244	-2.3375
2349.65943	-2.5375
2352.49267	-8.1375
2355.32411	-3.3375
2358.15376	-2.2375
2360.98161	-3.8375
2363.80768	-2.6375
2366.63195	-4.1375
2369.45444	-8.2375
2372.27514	-2.8375
2375.09405	-4.7375
2377.91118	-7.3375
2380.72652	-5.4375
2383.54009	-3.5375
2386.35187	-3.7375
2389.16188	-9.2375
2391.97011	-5.2375
2394.77657	-4.6375
2397.58125	-5.1375
2400.38416	-3.1375
2403.18529	-7.1375
2405.98466	-3.2375
2408.78226	-4.9375
2411.57809	-2.9375
2414.37216	-3.0375
2417.16446	-2.2375
2419.955	-3.9375
2422.74378	-4.1375
2425.5308	-3.6375
2428.31606	-5.8375
2431.09956	-6.4375
2433.88131	-6.3375
2436.6613	-8.4375
2439.43954	-5.2375
2442.21603	-2.3375
2444.99077	-3.3375
2447.76377	-5.9375
2450.53501	-5.8375
2453.30451	-4.3375
2456.07226	-7.2375
2458.83827	-5.8375
2461.60254	-6.1375
2464.36507	-6.6375
2467.12586	-6.5375
2469.88492	-4.1375
2472.64224	-5.6375
2475.39782	-2.7375
2478.15167	-1.5375
2480.90379	-2.5375
2483.65417	-8.2375
2486.40283	-2.8375
2489.14976	-4.6375
2491.89497	-6.4375
2494.63845	-2.0375
2497.3802	-1.9375
2500.12024	-4.7375
2502.85855	-5.5375
2505.59514	-3.4375
2508.33002	-5.3375
2511.06318	-4.0375
2513.79462	-3.7375
2516.52435	-4.8375
2519.25237	-6.5375
2521.97867	-2.9375
2524.70327	-2.8375
2527.42616	-4.7375
2530.14734	-6.3375
2532.86681	-6.6375
2535.58458	-4.1375
2538.30065	-10.4375
2541.01501	-5.8375
2543.72768	-4.3375
2546.43864	-3.1375
2549.14791	-3.0375
2551.85548	-7.2375
2554.56136	0.1625
2557.26554	-5.2375
2559.96803	-2.1375
2562.66883	-5.3375
2565.36794	-3.1375
2568.06536	-5.6375
2570.7611	-7.2375
2573.45514	-4.0375
2576.14751	-6.3375
2578.83819	-9.1375
2581.52719	-4.4375
2584.21451	-3.6375
2586.90015	-3.4375
2589.58411	-6.0375
2592.2664	-4.9375
2594.94701	-2.8375
2597.62594	-4.1375
2600.30321	-6.8375
2602.9788	-3.5375
2605.65273	-3.1375
2608.32498	-1.1375
2610.99557	-2.7375
2613.66449	-8.5375
2616.33175	-4.5375
2618.99734	-3.6375
2621.66128	-5.4375
2624.32355	-4.0375
2626.98416	-3.6375
2629.64311	-5.8375
2632.30041	-8.0375
2634.95605	-4.0375
2637.61004	-1.5375
2640.26238	-4.8375
2642.91306	-3.5375
2645.56209	-2.2375
2648.20948	-4.7375
2650.85521	0.7625
2653.4993	-6.7375
2656.14175	-1.3375
2658.78255	-0.9375
2661.42171	-0.1375
2664.05923	-3.4375
2666.6951	-3.2375
2669.32934	-3.6375
2671.96194	-4.1375
2674.59291	-5.3375
2677.22224	-4.2375
2679.84993	-4.1375
2682.476	-8.5375
2685.10043	-4.9375
2687.72324	-4.3375
2690.34441	-6.5375
2692.96396	-3.2375
2695.58188	-4.0375
2698.19818	-1.2375
2700.81285	-3.1375
2703.4259	4.8625
2706.03733	9.6625
2708.64714	-0.3375
2711.25533	0.7625
2713.86191	1.0625
2716.46687	-1.3375
2719.07021	-4.3375
2721.67194	-3.2375
2724.27206	-3.2375
2726.87057	-3.7375
2729.46747	-4.2375
2732.06276	-3.2375
2734.65644	-5.9375
2737.24852	-2.5375
2739.83899	-5.4375
2742.42786	-0.5375
2745.01513	-5.5375
2747.60079	-5.1375
2750.18486	-4.9375
2752.76733	-5.5375
2755.3482	-5.2375
2757.92747	-6.1375
2760.50515	-0.5375
2763.08123	-6.5375
2765.65573	-1.5375
2768.22863	-3.2375
2770.79994	-5.3375
2773.36967	-2.8375
2775.9378	-4.4375
2778.50435	-7.4375
2781.06932	-3.5375
2783.6327	-4.3375
2786.1945	-4.6375
2788.75471	-4.5375
2791.31335	-6.2375
2793.87041	-4.2375
2796.42589	-4.4375
2798.97979	-4.3375
2801.53212	-6.8375
2804.08288	-6.2375
2806.63206	-3.7375
2809.17967	-6.1375
2811.72571	-4.6375
2814.27018	0.0625
2816.81308	-2.8375
2819.35442	-0.7375
2821.89419	-4.2375
2824.43239	-2.1375
2826.96904	-6.6375
2829.50412	-4.7375
2832.03763	-0.5375
2834.56959	-4.4375
2837.1	-1.7375
2839.62884	-1.7375
2842.15613	-4.5375
2844.68186	-4.2375
2847.20604	-1.3375
2849.72867	-4.0375
2852.24974	-3.6375
2854.76927	2.5625
2857.28724	0.0625
2859.80367	-3.7375
2862.31855	-4.4375
2864.83189	-4.8375
2867.34368	-1.3375
2869.85393	-4.5375
2872.36264	-3.5375
2874.8698	-5.7375
2877.37543	-3.9375
2879.87952	-2.2375
2882.38207	-7.4375
2884.88308	-4.1375
2887.38256	-0.5375
2889.88051	-3.5375
2892.37692	-2.9375
2894.8718	-5.8375
2897.36515	-4.0375
2899.85698	-5.9375
2902.34727	-5.6375
2904.83604	-6.8375
2907.32328	-6.7375
2909.809	-5.2375
2912.29319	-5.4375
2914.77587	-4.5375
2917.25702	-2.7375
2919.73665	-3.9375
2922.21476	-4.0375
2924.69136	-1.7375
2927.16644	-2.2375
2929.64	-3.7375
2932.11205	-4.6375
2934.58258	-3.2375
2937.05161	-4.3375
2939.51912	-7.0375
2941.98513	-3.4375
2944.44962	-3.2375
2946.91261	-3.2375
2949.37409	-5.6375
2951.83407	-2.3375
2954.29254	-0.8375
2956.74951	-3.5375
2959.20498	-2.3375
2961.65895	-2.6375
2964.11142	-4.4375
2966.56239	-2.1375
2969.01186	-2.8375
2971.45984	-2.6375
2973.90632	-6.5375
2976.35131	-4.6375
2978.7948	-3.9375
2981.23681	-3.7375
2983.67732	-2.8375
2986.11635	-6.6375
2988.55388	-3.1375
2990.98993	-3.1375
2993.4245	-4.2375
2995.85758	-2.1375
2998.28917	-0.4375
3000.71928	-5.9375
3003.14791	-2.3375
3005.57506	-3.7375
3008.00073	-5.2375
3010.42493	-4.2375
3012.84764	-2.5375
3015.26888	-6.6375
3017.68865	-2.9375
3020.10694	-2.0375
3022.52376	-5.0375
3024.9391	-4.6375
3027.35298	-1.8375
3029.76539	-2.7375
3032.17632	-6.2375
3034.5858	-5.9375
3036.9938	-1.7375
3039.40034	-2.3375
3041.80542	-4.1375
3044.20903	-4.2375
3046.61118	-1.1375
3049.01187	-3.4375
3051.4111	-4.2375
3053.80888	-4.0375
3056.20519	-5.7375
3058.60005	-3.3375
3060.99345	-2.1375
3063.3854	-2.8375
3065.7759	-6.8375
3068.16494	-0.3375
3070.55254	-2.1375
3072.93868	-1.9375
3075.32338	-5.2375
3077.70662	-5.6375
3080.08842	-2.0375
3082.46878	-1.4375
3084.84769	-3.7375
3087.22515	-2.3375
3089.60118	-3.1375
3091.97576	-4.2375
3094.3489	-1.0375
3096.72061	-5.4375
3099.09087	-1.3375
3101.4597	-3.0375
3103.82709	-1.6375
3106.19305	-3.6375
3108.55757	-3.0375
3110.92066	-2.8375
3113.28232	-0.8375
3115.64255	-3.1375
3118.00134	-1.4375
3120.35871	-4.7375
3122.71466	-2.2375
3125.06917	-1.9375
3127.42226	-0.3375
3129.77393	-7.0375
3132.12417	-3.7375
3134.47299	-4.7375
3136.82039	-3.5375
3139.16636	-5.5375
3141.51092	-3.8375
3143.85406	-3.5375
3146.19579	-3.0375
3148.53609	-3.4375
3150.87499	-0.9375
3153.21246	-1.5375
3155.54853	-3.7375
3157.88318	-3.4375
3160.21642	-6.1375
3162.54826	-3.0375
3164.87868	-0.8375
3167.2077	-4.4375
3169.5353	-6.6375
3171.86151	-2.9375
3174.18631	-3.3375
3176.5097	-2.0375
3178.83169	-1.3375
3181.15228	-6.8375
3183.47147	-1.9375
3185.78926	-1.5375
3188.10565	-2.9375
3190.42065	-5.4375
3192.73424	-2.7375
3195.04645	-6.1375
3197.35725	-4.2375
3199.66667	-2.2375
3201.97469	-2.6375
3204.28132	-2.3375
3206.58656	-3.2375
3208.8904	-2.9375
3211.19287	-4.3375
3213.49394	-1.4375
3215.79363	-3.7375
3218.09193	-1.4375
3220.38884	0.4625
3222.68438	-2.2375
3224.97853	-1.0375
3227.2713	-2.5375
3229.56269	-2.3375
3231.8527	-4.8375
3234.14133	-1.5375
3236.42858	1.8625
3238.71446	-3.7375
3240.99896	-4.6375
3243.28209	-4.3375
3245.56384	-0.6375
3247.84423	-4.7375
3250.12324	-5.3375
3252.40088	-2.4375
3254.67715	-1.2375
3256.95205	-2.8375
3259.22558	-7.1375
3261.49775	-0.5375
3263.76855	-2.2375
3266.03799	-3.5375
3268.30606	-2.9375
3270.57277	-6.5375
3272.83812	-4.9375
3275.10211	-2.1375
3277.36474	-4.8375
3279.62601	-2.1375
3281.88593	-1.3375
3284.14448	-3.6375
3286.40168	-2.0375
3288.65753	-0.4375
3290.91202	-3.3375
3293.16516	-0.4375
3295.41695	-3.3375
3297.66738	-1.7375
3299.91647	-2.4375
3302.16421	-4.2375
3304.4106	-0.5375
3306.65564	-0.0375
3308.89933	-3.5375
3311.14169	-1.8375
3313.38269	0.4625
3315.62236	-0.2375
3317.86068	-1.5375
3320.09766	-0.0375
3322.3333	-2.9375
3324.5676	3.2625
3326.80056	2.2625
3329.03219	0.9625
3331.26248	0.6625
3333.49143	-0.6375
3335.71905	0.8625
