Data from AgNP_FTO_APTES_UA_100uM_CRN_10uM_R6G_10uM_NaF_0.1M_Addition_RamanShift__14__15-33-20-414.txt Node

Date: Thu Mar 24 15:33:20 GMT 2022
User: TCL
Spectrometer: QEP01345
Trigger mode: 4
Integration Time (sec): 7.000000E0
Scans to average: 10
Electric dark correction enabled: true
Nonlinearity correction enabled: false
Boxcar width: 0
XAxis mode: Raman Shifts
Number of Pixels in Spectrum: 1044
>>>>>Begin Spectral Data<<<<<
46.04893	-2.2875
50.45542	-0.9875
54.85868	0.7125
59.25871	0.4125
63.6555	0.8125
68.04907	1.1125
72.43941	-2.2875
76.82654	-1.3875
81.21044	0.2125
85.59113	1.9125
89.96862	0.5125
94.34289	-0.9875
98.71396	1.5125
103.08183	-1.1875
107.4465	-0.7875
111.80798	0.2125
116.16626	-3.1875
120.52136	-2.1875
124.87327	-1.7875
129.222	-0.0875
133.56755	-0.5875
137.90993	-2.6875
142.24913	4.3125
146.58517	-3.5875
150.91804	0.8125
155.24774	-0.6875
159.57429	0.5125
163.89768	0.3125
168.21792	1.1125
172.53501	-0.7875
176.84895	-0.7875
181.15975	1.8125
185.46741	-1.1875
189.77193	-1.9875
194.07331	-2.4875
198.37157	0.4125
202.6667	-3.1875
206.9587	-5.5875
211.24758	-5.7875
215.53334	-4.4875
219.81599	-5.9875
224.09553	0.1125
228.37195	-8.1875
232.64527	-4.9875
236.91549	-10.8875
241.18261	-7.3875
245.44663	-6.4875
249.70755	-10.5875
253.96539	-11.8875
258.22014	-11.9875
262.4718	-9.5875
266.72039	-5.4875
270.96589	-9.2875
275.20832	-9.5875
279.44768	-6.3875
283.68397	-8.0875
287.91719	-2.8875
292.14735	-8.4875
296.37445	-7.4875
300.59849	-8.5875
304.81948	-10.4875
309.03742	-8.8875
313.25231	-8.1875
317.46415	-4.5875
321.67296	-6.6875
325.87872	-6.7875
330.08145	-10.6875
334.28114	-7.3875
338.47781	-7.9875
342.67145	-7.7875
346.86207	-9.6875
351.04966	-10.4875
355.23424	-9.0875
359.4158	-6.0875
363.59435	-7.6875
367.76989	-8.1875
371.94243	-10.5875
376.11196	-6.6875
380.27849	-5.3875
384.44203	-9.9875
388.60257	-9.6875
392.76012	-8.2875
396.91468	-8.6875
401.06626	-9.6875
405.21485	-10.0875
409.36047	-3.7875
413.50311	-5.1875
417.64277	-4.8875
421.77947	-6.1875
425.9132	2.4125
430.04396	1.4125
434.17176	0.2125
438.2966	0.9125
442.41849	-0.0875
446.53742	-5.5875
450.6534	-5.3875
454.76644	-4.6875
458.87653	-7.1875
462.98368	-8.3875
467.08789	-5.8875
471.18916	-8.4875
475.2875	-9.3875
479.38291	-3.2875
483.4754	-7.1875
487.56496	-4.7875
491.6516	-3.0875
495.73531	-8.2875
499.81612	-7.9875
503.89401	-7.5875
507.96899	-5.6875
512.04106	-9.3875
516.11023	-3.6875
520.1765	-6.5875
524.23987	-5.4875
528.30034	-2.8875
532.35792	-6.5875
536.41261	-6.6875
540.46441	-6.7875
544.51333	-9.1875
548.55936	-5.2875
552.60252	-5.4875
556.64279	-4.6875
560.6802	-6.5875
564.71473	-10.5875
568.7464	-8.6875
572.7752	-7.4875
576.80114	-9.0875
580.82422	-10.4875
584.84444	-6.9875
588.86181	-9.1875
592.87633	-8.9875
596.888	-8.0875
600.89682	-12.3875
604.9028	-6.7875
608.90594	-8.4875
612.90624	-10.0875
616.90371	-10.3875
620.89834	-7.2875
624.89015	-4.1875
628.87913	-13.9875
632.86528	-9.4875
636.84862	-7.9875
640.82913	-4.8875
644.80683	-5.5875
648.78172	-5.4875
652.75379	-6.6875
656.72306	-4.0875
660.68952	-7.5875
664.65319	-7.1875
668.61405	-8.5875
672.57211	-7.5875
676.52738	-7.3875
680.47986	-8.1875
684.42955	-6.8875
688.37646	-7.5875
692.32058	-4.2875
696.26192	-8.3875
700.20048	-4.0875
704.13626	-0.7875
708.06928	-0.1875
711.99952	2.1125
715.927	-3.9875
719.85171	-4.0875
723.77365	-8.0875
727.69284	-4.7875
731.60928	-5.7875
735.52295	-9.8875
739.43388	-9.7875
743.34206	-7.7875
747.24749	-8.3875
751.15017	-7.7875
755.05012	-7.7875
758.94733	-5.5875
762.8418	-7.2875
766.73354	-8.9875
770.62254	-7.3875
774.50882	-8.2875
778.39237	-7.6875
782.27321	-7.8875
786.15132	-6.9875
790.02671	-10.9875
793.89938	-6.7875
797.76935	-10.0875
801.6366	-5.7875
805.50115	-3.8875
809.36299	-6.6875
813.22213	-10.5875
817.07857	-6.4875
820.93231	-9.5875
824.78336	-8.4875
828.63172	-6.7875
832.47738	-7.4875
836.32036	-9.7875
840.16066	-5.7875
843.99827	-1.6875
847.8332	-4.6875
851.66546	-6.1875
855.49504	-7.9875
859.32195	-7.7875
863.1462	-6.3875
866.96777	-5.0875
870.78668	-7.5875
874.60293	-6.6875
878.41652	-5.0875
882.22745	-7.7875
886.03573	-9.1875
889.84136	-7.4875
893.64433	-5.5875
897.44466	-3.4875
901.24235	-8.3875
905.0374	-6.1875
908.8298	-3.2875
912.61957	-7.0875
916.40671	-9.1875
920.19121	-8.2875
923.97308	-4.7875
927.75233	-5.4875
931.52895	-8.1875
935.30295	-10.9875
939.07433	-12.0875
942.84309	-8.4875
946.60924	-8.3875
950.37278	-10.6875
954.13371	-5.4875
957.89203	-7.9875
961.64774	-7.7875
965.40086	-6.6875
969.15137	-7.6875
972.89929	-5.5875
976.64461	-5.6875
980.38733	-7.8875
984.12747	-6.0875
987.86502	-9.2875
991.59999	-6.8875
995.33237	-5.6875
999.06217	-9.4875
1002.78939	-7.9875
1006.51404	-8.6875
1010.23611	-9.6875
1013.95561	-6.9875
1017.67255	-10.3875
1021.38692	-8.3875
1025.09872	-5.1875
1028.80796	-9.7875
1032.51465	-9.6875
1036.21877	-5.8875
1039.92035	-5.6875
1043.61937	-8.7875
1047.31584	-4.7875
1051.00976	-7.6875
1054.70114	-5.3875
1058.38998	-10.3875
1062.07627	-8.0875
1065.76003	-7.0875
1069.44126	-7.0875
1073.11995	-10.2875
1076.79611	-5.8875
1080.46974	-7.0875
1084.14085	-7.7875
1087.80943	-5.9875
1091.47549	-11.8875
1095.13903	-5.9875
1098.80005	-7.8875
1102.45857	-9.2875
1106.11456	-7.9875
1109.76805	-8.8875
1113.41903	-4.6875
1117.06751	-4.4875
1120.71348	-1.8875
1124.35696	-6.9875
1127.99793	-8.2875
1131.63641	-8.4875
1135.2724	-10.0875
1138.90589	-9.4875
1142.5369	-6.9875
1146.16542	-5.2875
1149.79145	-10.4875
1153.415	-6.8875
1157.03607	-9.1875
1160.65467	-6.8875
1164.27079	-8.7875
1167.88443	-9.5875
1171.49561	-6.2875
1175.10432	-6.7875
1178.71056	-8.0875
1182.31434	-8.0875
1185.91565	-10.2875
1189.51451	-8.7875
1193.11091	-9.5875
1196.70485	-11.1875
1200.29634	-11.2875
1203.88538	-8.5875
1207.47197	-5.1875
1211.05612	-7.9875
1214.63782	-8.1875
1218.21708	-9.6875
1221.79391	-8.2875
1225.36829	-6.4875
1228.94024	-7.0875
1232.50976	-8.5875
1236.07685	-8.2875
1239.6415	-6.9875
1243.20374	-5.7875
1246.76355	-0.9875
1250.32093	-3.2875
1253.8759	-1.6875
1257.42845	-2.7875
1260.97859	0.4125
1264.52631	-2.2875
1268.07163	-0.8875
1271.61453	-2.2875
1275.15503	0.9125
1278.69312	-4.9875
1282.22882	-5.1875
1285.76211	-4.5875
1289.29301	-9.0875
1292.82151	-11.0875
1296.34761	-10.4875
1299.87133	-4.8875
1303.39266	-10.1875
1306.9116	-7.9875
1310.42815	-14.2875
1313.94233	-12.4875
1317.45412	-14.0875
1320.96354	-16.0875
1324.47058	-11.2875
1327.97525	-11.7875
1331.47754	-10.4875
1334.97747	-12.3875
1338.47502	-11.5875
1341.97022	-9.8875
1345.46305	-12.2875
1348.95352	-10.4875
1352.44163	-13.5875
1355.92738	-12.8875
1359.41078	-12.1875
1362.89183	-13.0875
1366.37053	-5.8875
1369.84688	-8.6875
1373.32088	-9.4875
1376.79254	-6.3875
1380.26186	-8.2875
1383.72883	-6.0875
1387.19347	0.6125
1390.65578	-0.2875
1394.11575	-4.1875
1397.57339	-2.7875
1401.0287	-9.4875
1404.48168	-9.1875
1407.93234	-11.2875
1411.38068	-8.1875
1414.82669	-6.7875
1418.27039	-11.3875
1421.71177	-8.2875
1425.15083	-11.2875
1428.58758	-9.9875
1432.02203	-10.6875
1435.45416	-10.9875
1438.88399	-11.6875
1442.31151	-14.0875
1445.73673	-4.3875
1449.15965	-7.8875
1452.58027	-8.8875
1455.9986	-6.7875
1459.41463	-9.6875
1462.82837	-12.3875
1466.23982	-10.9875
1469.64898	-9.8875
1473.05586	-9.1875
1476.46045	-11.2875
1479.86276	-11.9875
1483.26279	-10.6875
1486.66054	-13.2875
1490.05602	-11.9875
1493.44922	-8.8875
1496.84016	-10.0875
1500.22882	-14.9875
1503.61521	-10.2875
1506.99934	-11.7875
1510.38121	-13.7875
1513.76081	-9.9875
1517.13816	-10.3875
1520.51324	-11.9875
1523.88607	-12.3875
1527.25665	-12.8875
1530.62498	-8.9875
1533.99105	-7.5875
1537.35488	-10.7875
1540.71647	-9.8875
1544.07581	-9.5875
1547.4329	-7.7875
1550.78776	-14.0875
1554.14038	-12.9875
1557.49077	-11.4875
1560.83892	-10.3875
1564.18484	-10.4875
1567.52853	-6.7875
1570.86999	-8.8875
1574.20922	-7.6875
1577.54624	-11.8875
1580.88103	-11.9875
1584.2136	-11.1875
1587.54395	-8.2875
1590.87208	-11.9875
1594.19801	-7.1875
1597.52172	-8.8875
1600.84321	-8.2875
1604.16251	-7.5875
1607.47959	-6.5875
1610.79447	-10.1875
1614.10715	-6.2875
1617.41763	-4.9875
1620.7259	-3.2875
1624.03199	-3.1875
1627.33587	-6.3875
1630.63757	-2.4875
1633.93707	0.2125
1637.23439	-0.6875
1640.52951	2.7125
1643.82246	-0.9875
1647.11321	6.5125
1650.40179	8.8125
1653.68819	9.4125
1656.97241	15.3125
1660.25446	15.3125
1663.53433	13.1125
1666.81203	11.3125
1670.08756	8.2125
1673.36092	7.8125
1676.63211	3.7125
1679.90115	0.3125
1683.16801	3.1125
1686.43272	1.5125
1689.69527	1.2125
1692.95567	9.5125
1696.2139	22.8125
1699.46999	36.4125
1702.72392	34.7125
1705.97571	22.0125
1709.22535	11.7125
1712.47284	3.5125
1715.71819	-1.0875
1718.96139	-15.6875
1722.20246	-11.1875
1725.44139	-4.8875
1728.67818	-6.1875
1731.91284	-2.9875
1735.14537	-2.9875
1738.37576	0.5125
1741.60403	-3.3875
1744.83017	-4.7875
1748.05418	3.2125
1751.27607	3.8125
1754.49584	10.3125
1757.71349	15.8125
1760.92903	19.9125
1764.14244	20.9125
1767.35375	15.5125
1770.56294	20.0125
1773.77002	13.8125
1776.97499	5.9125
1780.17785	3.8125
1783.37861	-4.0875
1786.57727	-4.8875
1789.77382	-8.0875
1792.96828	-4.9875
1796.16064	-9.7875
1799.3509	-4.9875
1802.53907	-8.3875
1805.72514	-11.2875
1808.90913	-8.5875
1812.09102	-7.8875
1815.27083	-6.2875
1818.44856	-4.8875
1821.6242	-6.8875
1824.79776	-8.3875
1827.96924	-10.3875
1831.13864	-8.3875
1834.30597	-6.4875
1837.47122	-6.2875
1840.6344	-8.7875
1843.7955	-8.2875
1846.95454	-7.8875
1850.11151	-8.7875
1853.26642	-7.8875
1856.41926	-7.6875
1859.57004	-11.1875
1862.71876	-7.9875
1865.86542	-10.6875
1869.01003	-5.8875
1872.15258	-11.1875
1875.29308	-7.1875
1878.43152	-8.4875
1881.56792	-8.7875
1884.70227	-10.7875
1887.83457	-7.7875
1890.96482	-9.5875
1894.09304	-7.4875
1897.21921	-9.2875
1900.34335	-7.9875
1903.46544	-6.0875
1906.58551	-10.7875
1909.70353	-5.7875
1912.81953	-10.8875
1915.93349	-9.5875
1919.04543	-4.9875
1922.15534	-8.4875
1925.26322	-5.9875
1928.36908	-8.1875
1931.47292	-9.4875
1934.57473	-6.8875
1937.67453	-8.4875
1940.77232	-8.7875
1943.86808	-6.8875
1946.96184	-9.6875
1950.05358	-7.0875
1953.14331	-6.7875
1956.23103	-6.1875
1959.31675	-6.7875
1962.40046	-8.3875
1965.48217	-6.3875
1968.56188	-12.4875
1971.63959	-9.2875
1974.7153	-7.1875
1977.78901	-9.6875
1980.86073	-6.3875
1983.93046	-8.8875
1986.99819	-8.8875
1990.06394	-11.7875
1993.1277	-8.0875
1996.18947	-4.6875
1999.24925	-7.8875
2002.30706	-5.8875
2005.36288	-6.3875
2008.41672	-8.1875
2011.46859	-5.5875
2014.51848	-7.8875
2017.56639	-5.1875
2020.61233	-9.2875
2023.6563	-7.2875
2026.6983	-6.6875
2029.73833	-7.4875
2032.7764	-12.5875
2035.8125	-7.2875
2038.84664	-7.1875
2041.87881	-10.0875
2044.90903	-8.3875
2047.93729	-8.6875
2050.96359	-9.9875
2053.98794	-8.3875
2057.01034	-9.9875
2060.03078	-7.3875
2063.04927	-8.9875
2066.06582	-7.5875
2069.08042	-4.3875
2072.09307	-7.9875
2075.10378	-7.9875
2078.11255	-6.3875
2081.11938	-6.9875
2084.12426	-4.5875
2087.12722	-9.0875
2090.12824	-4.4875
2093.12732	-4.9875
2096.12447	-6.4875
2099.11969	-9.4875
2102.11299	-6.5875
2105.10435	-7.9875
2108.09379	-5.9875
2111.08131	-5.9875
2114.0669	-6.7875
2117.05057	-8.4875
2120.03233	-7.3875
2123.01216	-4.1875
2125.99008	-8.8875
2128.96609	-8.8875
2131.94018	-9.0875
2134.91236	-7.9875
2137.88263	-5.6875
2140.851	-3.8875
2143.81746	-7.4875
2146.78201	-5.3875
2149.74466	-5.4875
2152.7054	-8.0875
2155.66425	-7.7875
2158.6212	-9.9875
2161.57625	-5.4875
2164.52941	-6.4875
2167.48067	-6.8875
2170.43004	-7.3875
2173.37752	-4.4875
2176.32311	-10.1875
2179.26681	-10.0875
2182.20863	-9.6875
2185.14856	-5.3875
2188.08661	-7.6875
2191.02278	-8.6875
2193.95707	-6.9875
2196.88948	-5.0875
2199.82001	-5.6875
2202.74867	-7.5875
2205.67545	-5.8875
2208.60037	-9.4875
2211.52341	-11.4875
2214.44458	-7.2875
2217.36388	-11.3875
2220.28132	-6.5875
2223.1969	-11.9875
2226.11061	-9.0875
2229.02246	-9.1875
2231.93245	-8.4875
2234.84058	-5.8875
2237.74686	-8.7875
2240.65128	-5.7875
2243.55385	-4.6875
2246.45456	-10.3875
2249.35343	-6.7875
2252.25044	-6.0875
2255.14561	-7.6875
2258.03893	-6.3875
2260.93041	-6.5875
2263.82004	-8.0875
2266.70783	-7.5875
2269.59378	-3.2875
2272.4779	-8.6875
2275.36017	-8.1875
2278.24061	-6.9875
2281.11922	-7.3875
2283.996	-7.2875
2286.87094	-8.9875
2289.74405	-7.3875
2292.61534	-7.0875
2295.4848	-2.4875
2298.35243	-4.9875
2301.21824	-6.4875
2304.08223	-3.5875
2306.94439	-7.3875
2309.80474	-7.0875
2312.66327	-6.7875
2315.51999	-8.2875
2318.37489	-6.5875
2321.22797	-5.3875
2324.07925	-10.4875
2326.92871	-4.9875
2329.77637	-3.5875
2332.62222	-6.3875
2335.46626	-8.6875
2338.3085	-2.9875
2341.14893	-6.3875
2343.98756	-5.2875
2346.8244	-6.3875
2349.65943	-6.5875
2352.49267	-9.8875
2355.32411	-5.3875
2358.15376	-5.7875
2360.98161	-3.0875
2363.80768	-4.0875
2366.63195	-8.9875
2369.45444	-6.8875
2372.27514	-6.4875
2375.09405	-7.4875
2377.91118	-8.5875
2380.72652	-8.2875
2383.54009	-8.1875
2386.35187	-4.5875
2389.16188	-10.0875
2391.97011	-7.6875
2394.77657	-5.1875
2397.58125	-6.2875
2400.38416	-5.4875
2403.18529	-7.1875
2405.98466	-6.3875
2408.78226	-5.8875
2411.57809	-5.9875
2414.37216	-5.2875
2417.16446	-5.6875
2419.955	-11.0875
2422.74378	-6.2875
2425.5308	-8.1875
2428.31606	-7.6875
2431.09956	-6.8875
2433.88131	-6.5875
2436.6613	-11.7875
2439.43954	-5.0875
2442.21603	-7.5875
2444.99077	-5.4875
2447.76377	-9.5875
2450.53501	-9.4875
2453.30451	-6.9875
2456.07226	-8.2875
2458.83827	-4.8875
2461.60254	-7.8875
2464.36507	-6.9875
2467.12586	-6.1875
2469.88492	-9.5875
2472.64224	-7.7875
2475.39782	-7.5875
2478.15167	-7.4875
2480.90379	-5.8875
2483.65417	-8.5875
2486.40283	-4.4875
2489.14976	-6.3875
2491.89497	-6.1875
2494.63845	-5.7875
2497.3802	-5.8875
2500.12024	-2.7875
2502.85855	-4.3875
2505.59514	-6.7875
2508.33002	-5.7875
2511.06318	-5.6875
2513.79462	-7.4875
2516.52435	-9.3875
2519.25237	-8.7875
2521.97867	-6.4875
2524.70327	-3.2875
2527.42616	-5.9875
2530.14734	-6.5875
2532.86681	-8.4875
2535.58458	-7.7875
2538.30065	-12.9875
2541.01501	-9.9875
2543.72768	-5.8875
2546.43864	-4.9875
2549.14791	-6.2875
2551.85548	-9.7875
2554.56136	-3.8875
2557.26554	-6.8875
2559.96803	-8.3875
2562.66883	-6.0875
2565.36794	-5.7875
2568.06536	-5.4875
2570.7611	-5.9875
2573.45514	-4.6875
2576.14751	-8.9875
2578.83819	-9.7875
2581.52719	-7.6875
2584.21451	-6.0875
2586.90015	-6.6875
2589.58411	-8.1875
2592.2664	-7.3875
2594.94701	-4.7875
2597.62594	-5.2875
2600.30321	-5.7875
2602.9788	-6.8875
2605.65273	-5.3875
2608.32498	-5.4875
2610.99557	-5.6875
2613.66449	-8.8875
2616.33175	-5.9875
2618.99734	-6.7875
2621.66128	-6.0875
2624.32355	-7.4875
2626.98416	-6.0875
2629.64311	-9.2875
2632.30041	-6.8875
2634.95605	-4.9875
2637.61004	-5.4875
2640.26238	-9.1875
2642.91306	-5.3875
2645.56209	-6.9875
2648.20948	-6.5875
2650.85521	0.6125
2653.4993	-5.2875
2656.14175	-0.9875
2658.78255	-3.5875
2661.42171	-2.4875
2664.05923	-5.5875
2666.6951	-5.5875
2669.32934	-5.2875
2671.96194	-6.1875
2674.59291	-7.7875
2677.22224	-5.9875
2679.84993	-5.3875
2682.476	-8.2875
2685.10043	-8.0875
2687.72324	-8.9875
2690.34441	-7.6875
2692.96396	-3.8875
2695.58188	-6.6875
2698.19818	-4.8875
2700.81285	-4.3875
2703.4259	3.8125
2706.03733	6.0125
2708.64714	-3.9875
2711.25533	-0.2875
2713.86191	-3.9875
2716.46687	-4.1875
2719.07021	-5.4875
2721.67194	-3.9875
2724.27206	-5.1875
2726.87057	-5.7875
2729.46747	-4.8875
2732.06276	-6.0875
2734.65644	-7.0875
2737.24852	-5.7875
2739.83899	-9.1875
2742.42786	-3.9875
2745.01513	-5.3875
2747.60079	-6.8875
2750.18486	-6.6875
2752.76733	-7.8875
2755.3482	-5.6875
2757.92747	-4.1875
2760.50515	-5.9875
2763.08123	-6.8875
2765.65573	-6.1875
2768.22863	-3.6875
2770.79994	-7.2875
2773.36967	-3.5875
2775.9378	-7.6875
2778.50435	-5.5875
2781.06932	-4.2875
2783.6327	-3.6875
2786.1945	-4.6875
2788.75471	-9.8875
2791.31335	-8.6875
2793.87041	-6.0875
2796.42589	-5.2875
2798.97979	-5.3875
2801.53212	-5.7875
2804.08288	-9.6875
2806.63206	-5.7875
2809.17967	-5.9875
2811.72571	-5.9875
2814.27018	-0.5875
2816.81308	-5.1875
2819.35442	-6.5875
2821.89419	-5.9875
2824.43239	-4.6875
2826.96904	-8.2875
2829.50412	-6.4875
2832.03763	-3.1875
2834.56959	-6.2875
2837.1	-2.7875
2839.62884	-5.4875
2842.15613	-5.1875
2844.68186	-5.6875
2847.20604	-4.2875
2849.72867	-5.2875
2852.24974	-2.6875
2854.76927	2.3125
2857.28724	-0.5875
2859.80367	-5.9875
2862.31855	-5.5875
2864.83189	-4.3875
2867.34368	-4.9875
2869.85393	-7.9875
2872.36264	-3.7875
2874.8698	-7.8875
2877.37543	-4.6875
2879.87952	-5.5875
2882.38207	-8.8875
2884.88308	-5.4875
2887.38256	-6.3875
2889.88051	-5.6875
2892.37692	-5.9875
2894.8718	-4.9875
2897.36515	-6.7875
2899.85698	-7.6875
2902.34727	-5.8875
2904.83604	-6.8875
2907.32328	-6.4875
2909.809	-3.5875
2912.29319	-2.9875
2914.77587	-5.8875
2917.25702	-5.9875
2919.73665	-5.9875
2922.21476	-2.9875
2924.69136	-2.5875
2927.16644	-3.5875
2929.64	-3.6875
2932.11205	-8.0875
2934.58258	-6.1875
2937.05161	-7.6875
2939.51912	-9.7875
2941.98513	-3.1875
2944.44962	-5.8875
2946.91261	-5.5875
2949.37409	-6.4875
2951.83407	-5.3875
2954.29254	-3.2875
2956.74951	-5.6875
2959.20498	-4.4875
2961.65895	-6.0875
2964.11142	-5.7875
2966.56239	0.6125
2969.01186	-4.1875
2971.45984	-6.5875
2973.90632	-7.9875
2976.35131	-8.3875
2978.7948	-4.9875
2981.23681	-5.3875
2983.67732	-5.2875
2986.11635	-7.3875
2988.55388	-7.2875
2990.98993	-7.6875
2993.4245	-4.7875
2995.85758	-0.3875
2998.28917	-1.3875
3000.71928	-7.7875
3003.14791	-1.8875
3005.57506	-5.2875
3008.00073	-6.2875
3010.42493	1.1125
3012.84764	-5.0875
3015.26888	-5.4875
3017.68865	-4.2875
3020.10694	-0.1875
3022.52376	-5.8875
3024.9391	-10.4875
3027.35298	-4.2875
3029.76539	-3.9875
3032.17632	-9.3875
3034.5858	-1.4875
3036.9938	-5.1875
3039.40034	-2.8875
3041.80542	-5.2875
3044.20903	-8.3875
3046.61118	-5.1875
3049.01187	-3.5875
3051.4111	-4.3875
3053.80888	-2.2875
3056.20519	-6.8875
3058.60005	-5.0875
3060.99345	-3.8875
3063.3854	-4.8875
3065.7759	-7.7875
3068.16494	-2.4875
3070.55254	-6.2875
3072.93868	-4.8875
3075.32338	-5.5875
3077.70662	-7.7875
3080.08842	-4.4875
3082.46878	-3.5875
3084.84769	-6.1875
3087.22515	-2.0875
3089.60118	-5.3875
3091.97576	-3.8875
3094.3489	-1.5875
3096.72061	-7.8875
3099.09087	-6.5875
3101.4597	-2.9875
3103.82709	-7.4875
3106.19305	-5.9875
3108.55757	-2.7875
3110.92066	-3.0875
3113.28232	-3.0875
3115.64255	-4.2875
3118.00134	-4.6875
3120.35871	-7.4875
3122.71466	-3.1875
3125.06917	-5.2875
3127.42226	-1.5875
3129.77393	-7.9875
3132.12417	-7.8875
3134.47299	-5.8875
3136.82039	-3.4875
3139.16636	-6.3875
3141.51092	-5.4875
3143.85406	-4.7875
3146.19579	-6.7875
3148.53609	-3.8875
3150.87499	-2.8875
3153.21246	-1.7875
3155.54853	-6.2875
3157.88318	-6.4875
3160.21642	-8.9875
3162.54826	-6.5875
3164.87868	-5.3875
3167.2077	-3.5875
3169.5353	-6.4875
3171.86151	-5.0875
3174.18631	-5.7875
3176.5097	-7.6875
3178.83169	-2.8875
3181.15228	-6.3875
3183.47147	-2.8875
3185.78926	-4.6875
3188.10565	-4.9875
3190.42065	-4.9875
3192.73424	-5.4875
3195.04645	-8.0875
3197.35725	-4.5875
3199.66667	-4.6875
3201.97469	-5.2875
3204.28132	-7.3875
3206.58656	-5.5875
3208.8904	-4.3875
3211.19287	-5.0875
3213.49394	-4.6875
3215.79363	-5.2875
3218.09193	-4.6875
3220.38884	-2.0875
3222.68438	-4.6875
3224.97853	-2.8875
3227.2713	-2.1875
3229.56269	-3.7875
3231.8527	-1.3875
3234.14133	-4.5875
3236.42858	-3.9875
3238.71446	-4.0875
3240.99896	-5.2875
3243.28209	-6.1875
3245.56384	-1.5875
3247.84423	-4.2875
3250.12324	-6.6875
3252.40088	-3.8875
3254.67715	-3.7875
3256.95205	-3.0875
3259.22558	-3.6875
3261.49775	-4.7875
3263.76855	-5.2875
3266.03799	-2.0875
3268.30606	-1.0875
3270.57277	-7.3875
3272.83812	-7.1875
3275.10211	-4.0875
3277.36474	-2.7875
3279.62601	-1.2875
3281.88593	-3.3875
3284.14448	-2.6875
3286.40168	-1.2875
3288.65753	-0.6875
3290.91202	-0.8875
3293.16516	-0.0875
3295.41695	-5.2875
3297.66738	-4.7875
3299.91647	-2.9875
3302.16421	-3.7875
3304.4106	-2.6875
3306.65564	-3.7875
3308.89933	-6.3875
3311.14169	-2.3875
3313.38269	-3.5875
3315.62236	-2.8875
3317.86068	-2.6875
3320.09766	-2.9875
3322.3333	-4.4875
3324.5676	-0.1875
3326.80056	0.5125
3329.03219	1.7125
3331.26248	0.8125
3333.49143	-0.8875
3335.71905	1.6125
