Data from AgNP_FTO_APTES_UA_100uM_CRN_100uM_R6G_10uM_NaF_0.1M_Addition_RamanShift__14__18-03-50-581.txt Node

Date: Thu Mar 24 18:03:50 GMT 2022
User: TCL
Spectrometer: QEP01345
Trigger mode: 4
Integration Time (sec): 7.000000E0
Scans to average: 10
Electric dark correction enabled: true
Nonlinearity correction enabled: false
Boxcar width: 0
XAxis mode: Raman Shifts
Number of Pixels in Spectrum: 1044
>>>>>Begin Spectral Data<<<<<
46.04893	-2.2
50.45542	0
54.85868	0.6
59.25871	0.5
63.6555	33.2
68.04907	33.4
72.43941	34.1
76.82654	35.8
81.21044	39.8
85.59113	38.5
89.96862	42.6
94.34289	39.2
98.71396	43.7
103.08183	47
107.4465	45.4
111.80798	49.3
116.16626	48.2
120.52136	46.8
124.87327	46.8
129.222	50
133.56755	52.6
137.90993	55
142.24913	61.9
146.58517	67.1
150.91804	74.5
155.24774	91.2
159.57429	105.6
163.89768	134.8
168.21792	177.6
172.53501	242.9
176.84895	334.9
181.15975	470.9
185.46741	659.7
189.77193	908
194.07331	1222.6
198.37157	1590.3
202.6667	1960.1
206.9587	2334.7
211.24758	2716
215.53334	3096
219.81599	3503.5
224.09553	3963.6
228.37195	4470
232.64527	5032.5
236.91549	5615.5
241.18261	6159.9
245.44663	6645
249.70755	7058.7
253.96539	7411.7
258.22014	7703.2
262.4718	7966.2
266.72039	8128.3
270.96589	8177.2
275.20832	8199.6
279.44768	8137.9
283.68397	8031.9
287.91719	7948.5
292.14735	7913.6
296.37445	7989.1
300.59849	8110.3
304.81948	8265.8
309.03742	8380.7
313.25231	8365.2
317.46415	8191.6
321.67296	7884.1
325.87872	7608
330.08145	7469.2
334.28114	7436.1
338.47781	7509.5
342.67145	7638
346.86207	7817.2
351.04966	8038.3
355.23424	8253.5
359.4158	8421.4
363.59435	8516.7
367.76989	8552.7
371.94243	8567.7
376.11196	8565.5
380.27849	8572
384.44203	8558.2
388.60257	8561.6
392.76012	8593.2
396.91468	8698.8
401.06626	8837.5
405.21485	8936.4
409.36047	8839.4
413.50311	8597.1
417.64277	8367.9
421.77947	8256.8
425.9132	8204.4
430.04396	8243.8
434.17176	8249.6
438.2966	8315
442.41849	8438.3
446.53742	8625
450.6534	8771.2
454.76644	8928.6
458.87653	8922.9
462.98368	8894.3
467.08789	8802.7
471.18916	8736.4
475.2875	8630.6
479.38291	8573.4
483.4754	8459.5
487.56496	8365.6
491.6516	8330.6
495.73531	8297
499.81612	8294.3
503.89401	8325
507.96899	8376.4
512.04106	8418.2
516.11023	8436.6
520.1765	8408.2
524.23987	8396.1
528.30034	8352.7
532.35792	8308.1
536.41261	8225.2
540.46441	8133.4
544.51333	8089.9
548.55936	8137.9
552.60252	8271.3
556.64279	8439.8
560.6802	8526.1
564.71473	8585.8
568.7464	8725.6
572.7752	8893.7
576.80114	8977
580.82422	9067
584.84444	9254.2
588.86181	9352.8
592.87633	9492.1
596.888	9598.3
600.89682	9623.1
604.9028	9981.2
608.90594	11334.8
612.90624	13042.4
616.90371	12402.2
620.89834	9792.1
624.89015	8533.7
628.87913	8339.7
632.86528	8510.2
636.84862	8669.4
640.82913	8597.5
644.80683	8286.8
648.78172	8048.4
652.75379	7968.7
656.72306	8096.3
660.68952	8327.3
664.65319	8288.8
668.61405	8024.1
672.57211	7909.1
676.52738	7938
680.47986	7929.2
684.42955	7853.6
688.37646	7819.3
692.32058	7822.5
696.26192	7863
700.20048	7953.1
704.13626	8012.8
708.06928	8039.7
711.99952	8009.5
715.927	7997.2
719.85171	8005.1
723.77365	8037.9
727.69284	7985.6
731.60928	7939.8
735.52295	7920.9
739.43388	7929.3
743.34206	7933
747.24749	7938.2
751.15017	7987.7
755.05012	8092.9
758.94733	8320.7
762.8418	8939
766.73354	10003.9
770.62254	11033.3
774.50882	11336.8
778.39237	10814.9
782.27321	9780.6
786.15132	8819.2
790.02671	8228
793.89938	7919.9
797.76935	7786.8
801.6366	7736.7
805.50115	7683.5
809.36299	7660.9
813.22213	7659.3
817.07857	7656.2
820.93231	7619.3
824.78336	7599.6
828.63172	7587.2
832.47738	7589.1
836.32036	7557.3
840.16066	7541
843.99827	7514.1
847.8332	7516.1
851.66546	7507.6
855.49504	7507.2
859.32195	7521.4
863.1462	7480.5
866.96777	7489.1
870.78668	7488.8
874.60293	7497
878.41652	7535.2
882.22745	7558.6
886.03573	7597.4
889.84136	7595.8
893.64433	7569.9
897.44466	7540.2
901.24235	7496.1
905.0374	7476.6
908.8298	7416.1
912.61957	7398.4
916.40671	7429.6
920.19121	7489.4
923.97308	7531
927.75233	7585
931.52895	7550.7
935.30295	7465.2
939.07433	7308.8
942.84309	7180.4
946.60924	7115
950.37278	7057.5
954.13371	7062.4
957.89203	7027.3
961.64774	7034.9
965.40086	7028.6
969.15137	6994.8
972.89929	6994.3
976.64461	6953.4
980.38733	6932.7
984.12747	6930.8
987.86502	6971.5
991.59999	6992.4
995.33237	7023.3
999.06217	7115.8
1002.78939	7227.7
1006.51404	7363.8
1010.23611	7489.1
1013.95561	7563.2
1017.67255	7559.9
1021.38692	7473.4
1025.09872	7382.5
1028.80796	7260.9
1032.51465	7191.7
1036.21877	7212.3
1039.92035	7234.8
1043.61937	7285.8
1047.31584	7331.1
1051.00976	7355
1054.70114	7389.5
1058.38998	7400.6
1062.07627	7462.5
1065.76003	7521.6
1069.44126	7601.5
1073.11995	7714
1076.79611	7855.3
1080.46974	7939.6
1084.14085	8013.7
1087.80943	8153.6
1091.47549	8201.2
1095.13903	8149.5
1098.80005	7996.4
1102.45857	7810.4
1106.11456	7682.1
1109.76805	7643.7
1113.41903	7722
1117.06751	7861.7
1120.71348	8071.6
1124.35696	8298.4
1127.99793	8509
1131.63641	8549.3
1135.2724	8352.8
1138.90589	8164.5
1142.5369	8021.5
1146.16542	7930
1149.79145	7851.4
1153.415	7843.4
1157.03607	7865.2
1160.65467	8002.5
1164.27079	8252
1167.88443	8630.5
1171.49561	9206.2
1175.10432	10010.7
1178.71056	11098.7
1182.31434	11995.3
1185.91565	12290.2
1189.51451	12089.3
1193.11091	11621.6
1196.70485	11014.6
1200.29634	10437.9
1203.88538	10007.8
1207.47197	9516
1211.05612	9062.7
1214.63782	8791.6
1218.21708	8679.4
1221.79391	8589.9
1225.36829	8559.2
1228.94024	8508.7
1232.50976	8456.4
1236.07685	8371.5
1239.6415	8331.6
1243.20374	8294.6
1246.76355	8326.1
1250.32093	8390.8
1253.8759	8508.8
1257.42845	8682.2
1260.97859	8929.4
1264.52631	9209.5
1268.07163	9465
1271.61453	9693.1
1275.15503	9895.3
1278.69312	10049.1
1282.22882	10239.6
1285.76211	10514.5
1289.29301	10833.3
1292.82151	11218.2
1296.34761	11689.2
1299.87133	12265.1
1303.39266	13114.1
1306.9116	14118.9
1310.42815	15137.4
1313.94233	15680.5
1317.45412	15364.5
1320.96354	14629.5
1324.47058	13912.9
1327.97525	13223.6
1331.47754	12772
1334.97747	12503.7
1338.47502	12440.5
1341.97022	12538.4
1345.46305	12878.2
1348.95352	13324.8
1352.44163	13942.3
1355.92738	14831.5
1359.41078	16235.6
1362.89183	17586.6
1366.37053	17438.9
1369.84688	15364.6
1373.32088	13146.6
1376.79254	11679.8
1380.26186	10896
1383.72883	10512
1387.19347	10173.6
1390.65578	9893.6
1394.11575	9678.1
1397.57339	9549.1
1401.0287	9523.8
1404.48168	9481.4
1407.93234	9438.1
1411.38068	9351.6
1414.82669	9227.6
1418.27039	9025.4
1421.71177	8796.1
1425.15083	8594.6
1428.58758	8446.5
1432.02203	8498.9
1435.45416	8574.8
1438.88399	8675.9
1442.31151	8760.7
1445.73673	8831.1
1449.15965	8919.7
1452.58027	8956.7
1455.9986	8953
1459.41463	9004
1462.82837	9151
1466.23982	9389.2
1469.64898	9620
1473.05586	9854.7
1476.46045	9985.7
1479.86276	10131.7
1483.26279	10286.3
1486.66054	10476
1490.05602	10789.5
1493.44922	11269.5
1496.84016	11960.8
1500.22882	12997.7
1503.61521	14362.1
1506.99934	15761.7
1510.38121	16637.1
1513.76081	16588.5
1517.13816	15433.9
1520.51324	13847.4
1523.88607	12512
1527.25665	11630.4
1530.62498	11184
1533.99105	10834.1
1537.35488	10583.2
1540.71647	10297.6
1544.07581	10043.9
1547.4329	9809.3
1550.78776	9633.2
1554.14038	9525.6
1557.49077	9559.7
1560.83892	9635.7
1564.18484	9869
1567.52853	10176.7
1570.86999	10494.7
1574.20922	10664.3
1577.54624	10648.3
1580.88103	10255.9
1584.2136	9714.1
1587.54395	9461.5
1590.87208	9541.7
1594.19801	9938.3
1597.52172	10451.9
1600.84321	10646.4
1604.16251	10332.3
1607.47959	9769
1610.79447	9180.4
1614.10715	8628.4
1617.41763	8141.3
1620.7259	7790.8
1624.03199	7555.9
1627.33587	7531.5
1630.63757	7617.8
1633.93707	7978.9
1637.23439	8572.7
1640.52951	9601
1643.82246	11022.2
1647.11321	12554.3
1650.40179	13406
1653.68819	12940.1
1656.97241	11401.8
1660.25446	9642.6
1663.53433	8318.7
1666.81203	7462.2
1670.08756	6984.3
1673.36092	6687
1676.63211	6493.4
1679.90115	6369.6
1683.16801	6252.6
1686.43272	6157.9
1689.69527	6093.6
1692.95567	6064.4
1696.2139	6009.2
1699.46999	5981.6
1702.72392	5925.5
1705.97571	5900.2
1709.22535	5882.6
1712.47284	5872.6
1715.71819	5838.9
1718.96139	5786.5
1722.20246	5775.9
1725.44139	5762.5
1728.67818	5698.2
1731.91284	5656.6
1735.14537	5615
1738.37576	5578.8
1741.60403	5554
1744.83017	5538.5
1748.05418	5500.8
1751.27607	5497.2
1754.49584	5485.2
1757.71349	5467.7
1760.92903	5454.3
1764.14244	5450.1
1767.35375	5441.3
1770.56294	5417
1773.77002	5375.4
1776.97499	5379.1
1780.17785	5346.1
1783.37861	5348.1
1786.57727	5338.9
1789.77382	5307.4
1792.96828	5307.3
1796.16064	5303
1799.3509	5278.1
1802.53907	5261
1805.72514	5237.6
1808.90913	5222.5
1812.09102	5209.4
1815.27083	5193.7
1818.44856	5199.5
1821.6242	5162.3
1824.79776	5157.1
1827.96924	5148.5
1831.13864	5135
1834.30597	5118.8
1837.47122	5117
1840.6344	5117.4
1843.7955	5100
1846.95454	5096.3
1850.11151	5083.1
1853.26642	5092.6
1856.41926	5077.2
1859.57004	5065.1
1862.71876	5063.4
1865.86542	5048.5
1869.01003	5042.4
1872.15258	5018.2
1875.29308	5034.4
1878.43152	5010.8
1881.56792	5009.3
1884.70227	5009.1
1887.83457	4998.3
1890.96482	4984.5
1894.09304	4972.5
1897.21921	5000.6
1900.34335	4966.1
1903.46544	4965.4
1906.58551	4962
1909.70353	4940
1912.81953	4926.4
1915.93349	4931.6
1919.04543	4901.7
1922.15534	4893.1
1925.26322	4879.2
1928.36908	4866
1931.47292	4864.3
1934.57473	4821.1
1937.67453	4831.3
1940.77232	4811.7
1943.86808	4793.8
1946.96184	4764.5
1950.05358	4761.2
1953.14331	4747.4
1956.23103	4711.5
1959.31675	4700.3
1962.40046	4695.5
1965.48217	4685
1968.56188	4663.5
1971.63959	4661.8
1974.7153	4642
1977.78901	4622.9
1980.86073	4614.1
1983.93046	4610
1986.99819	4562.1
1990.06394	4541.2
1993.1277	4543.8
1996.18947	4535
1999.24925	4519.5
2002.30706	4496.4
2005.36288	4458.5
2008.41672	4445.4
2011.46859	4422.4
2014.51848	4427.3
2017.56639	4427
2020.61233	4391.2
2023.6563	4372.8
2026.6983	4365.2
2029.73833	4335.5
2032.7764	4331.5
2035.8125	4317.7
2038.84664	4305.1
2041.87881	4293.4
2044.90903	4287.7
2047.93729	4277.9
2050.96359	4270.8
2053.98794	4272.3
2057.01034	4254.2
2060.03078	4239.2
2063.04927	4230.4
2066.06582	4222.8
2069.08042	4233
2072.09307	4224.9
2075.10378	4198.8
2078.11255	4199.5
2081.11938	4226.4
2084.12426	4213.2
2087.12722	4206.1
2090.12824	4203.9
2093.12732	4205
2096.12447	4197.2
2099.11969	4198.7
2102.11299	4204.4
2105.10435	4198.3
2108.09379	4206
2111.08131	4201.5
2114.0669	4206.9
2117.05057	4200.2
2120.03233	4194.5
2123.01216	4205.1
2125.99008	4218.7
2128.96609	4216.1
2131.94018	4209.9
2134.91236	4202.9
2137.88263	4193.6
2140.851	4202.5
2143.81746	4207.8
2146.78201	4190.1
2149.74466	4194.1
2152.7054	4183.1
2155.66425	4183.4
2158.6212	4167.9
2161.57625	4172.8
2164.52941	4174.7
2167.48067	4157
2170.43004	4160
2173.37752	4143.9
2176.32311	4139.9
2179.26681	4151.7
2182.20863	4146.2
2185.14856	4151.8
2188.08661	4151.7
2191.02278	4146.8
2193.95707	4136.1
2196.88948	4112.8
2199.82001	4129.2
2202.74867	4107.4
2205.67545	4107.9
2208.60037	4095.4
2211.52341	4070.5
2214.44458	4071.1
2217.36388	4059
2220.28132	4057.8
2223.1969	4041
2226.11061	4042.7
2229.02246	4009.7
2231.93245	4001.9
2234.84058	4021
2237.74686	4014.2
2240.65128	3999.6
2243.55385	3996.3
2246.45456	3982.9
2249.35343	3993.7
2252.25044	3962.9
2255.14561	3974.8
2258.03893	3976.5
2260.93041	3947.5
2263.82004	3948.5
2266.70783	3927.5
2269.59378	3933
2272.4779	3914.8
2275.36017	3914.6
2278.24061	3897.5
2281.11922	3895.8
2283.996	3886.2
2286.87094	3879.8
2289.74405	3852.6
2292.61534	3841.3
2295.4848	3854.1
2298.35243	3839.6
2301.21824	3835.9
2304.08223	3831.2
2306.94439	3823.7
2309.80474	3824.5
2312.66327	3818.5
2315.51999	3805.6
2318.37489	3796.2
2321.22797	3801.1
2324.07925	3786.5
2326.92871	3793.4
2329.77637	3779.8
2332.62222	3777
2335.46626	3769.3
2338.3085	3755.2
2341.14893	3751.1
2343.98756	3769.7
2346.8244	3744.9
2349.65943	3751.1
2352.49267	3744
2355.32411	3760.1
2358.15376	3752.9
2360.98161	3749.6
2363.80768	3766.1
2366.63195	3758.5
2369.45444	3748.3
2372.27514	3749.4
2375.09405	3758.8
2377.91118	3741.5
2380.72652	3735.5
2383.54009	3714
2386.35187	3702.5
2389.16188	3686.3
2391.97011	3680.9
2394.77657	3671.7
2397.58125	3645.8
2400.38416	3643.2
2403.18529	3629.3
2405.98466	3621.7
2408.78226	3614.8
2411.57809	3614.9
2414.37216	3596.6
2417.16446	3589
2419.955	3590.5
2422.74378	3600.3
2425.5308	3583.1
2428.31606	3569.9
2431.09956	3563.9
2433.88131	3576.8
2436.6613	3563.8
2439.43954	3571.6
2442.21603	3553.9
2444.99077	3558.6
2447.76377	3571.3
2450.53501	3560.3
2453.30451	3565.7
2456.07226	3556.8
2458.83827	3541.2
2461.60254	3546.1
2464.36507	3559.8
2467.12586	3539.4
2469.88492	3538.8
2472.64224	3542.6
2475.39782	3532.1
2478.15167	3538.6
2480.90379	3556.2
2483.65417	3549.7
2486.40283	3544.9
2489.14976	3552
2491.89497	3558
2494.63845	3561.4
2497.3802	3530.4
2500.12024	3542.4
2502.85855	3535
2505.59514	3524
2508.33002	3498.8
2511.06318	3490.6
2513.79462	3493.6
2516.52435	3464.6
2519.25237	3466.4
2521.97867	3465.4
2524.70327	3463.2
2527.42616	3432.6
2530.14734	3433
2532.86681	3430.1
2535.58458	3440
2538.30065	3431.1
2541.01501	3437
2543.72768	3418.7
2546.43864	3432.1
2549.14791	3413.8
2551.85548	3405.3
2554.56136	3393.2
2557.26554	3406.3
2559.96803	3384.9
2562.66883	3391
2565.36794	3383.4
2568.06536	3367.4
2570.7611	3357.6
2573.45514	3358.7
2576.14751	3351.5
2578.83819	3343.4
2581.52719	3334.5
2584.21451	3348.4
2586.90015	3326.4
2589.58411	3334.2
2592.2664	3321
2594.94701	3316.9
2597.62594	3315.9
2600.30321	3300
2602.9788	3301.2
2605.65273	3295.1
2608.32498	3294.8
2610.99557	3281.6
2613.66449	3282
2616.33175	3270.9
2618.99734	3278.1
2621.66128	3259.7
2624.32355	3272.5
2626.98416	3259.2
2629.64311	3249.1
2632.30041	3257.4
2634.95605	3251.2
2637.61004	3254.5
2640.26238	3234.2
2642.91306	3239
2645.56209	3235.9
2648.20948	3233.8
2650.85521	3243.5
2653.4993	3230
2656.14175	3225.6
2658.78255	3237.2
2661.42171	3235
2664.05923	3239.7
2666.6951	3228.6
2669.32934	3237.5
2671.96194	3230.9
2674.59291	3229
2677.22224	3241.2
2679.84993	3243.8
2682.476	3221.3
2685.10043	3233
2687.72324	3205.1
2690.34441	3212
2692.96396	3217.6
2695.58188	3216.8
2698.19818	3217.4
2700.81285	3205
2703.4259	3208.7
2706.03733	3200.4
2708.64714	3205.4
2711.25533	3223.6
2713.86191	3208
2716.46687	3222.9
2719.07021	3222.7
2721.67194	3221.2
2724.27206	3220.9
2726.87057	3231.3
2729.46747	3221.7
2732.06276	3202.9
2734.65644	3205.4
2737.24852	3212.1
2739.83899	3191
2742.42786	3200.8
2745.01513	3195.9
2747.60079	3184.8
2750.18486	3171.5
2752.76733	3182.1
2755.3482	3163.3
2757.92747	3169.6
2760.50515	3159.9
2763.08123	3147.2
2765.65573	3136.4
2768.22863	3145.3
2770.79994	3140.3
2773.36967	3146.3
2775.9378	3139.7
2778.50435	3137.9
2781.06932	3134
2783.6327	3141.3
2786.1945	3127.5
2788.75471	3124.4
2791.31335	3120.7
2793.87041	3106.8
2796.42589	3115.2
2798.97979	3115.5
2801.53212	3101.2
2804.08288	3087.8
2806.63206	3096.9
2809.17967	3088.6
2811.72571	3085.1
2814.27018	3081
2816.81308	3078.1
2819.35442	3068.9
2821.89419	3069.2
2824.43239	3075.6
2826.96904	3065.2
2829.50412	3060.1
2832.03763	3057.7
2834.56959	3047.4
2837.1	3059.7
2839.62884	3058.6
2842.15613	3064.5
2844.68186	3062.7
2847.20604	3063
2849.72867	3084.8
2852.24974	3075.8
2854.76927	3068.9
2857.28724	3058.9
2859.80367	3071.4
2862.31855	3060.7
2864.83189	3073.7
2867.34368	3057.4
2869.85393	3059.9
2872.36264	3047.9
2874.8698	3061.9
2877.37543	3063.7
2879.87952	3058.1
2882.38207	3056.7
2884.88308	3053.1
2887.38256	3048.6
2889.88051	3038
2892.37692	3047.9
2894.8718	3040.9
2897.36515	3045.4
2899.85698	3050.2
2902.34727	3035.9
2904.83604	3033.1
2907.32328	3048.9
2909.809	3049.5
2912.29319	3048.5
2914.77587	3052.7
2917.25702	3045.8
2919.73665	3049.2
2922.21476	3058.8
2924.69136	3041
2927.16644	3048
2929.64	3026.5
2932.11205	3016.3
2934.58258	3017.1
2937.05161	3017.6
2939.51912	3010.8
2941.98513	2995.1
2944.44962	2995.5
2946.91261	2984.7
2949.37409	2990.6
2951.83407	2986.5
2954.29254	2978.9
2956.74951	2978.4
2959.20498	2974.7
2961.65895	2966.7
2964.11142	2979.8
2966.56239	2964.6
2969.01186	2963.8
2971.45984	2940.7
2973.90632	2949.7
2976.35131	2942.3
2978.7948	2921.7
2981.23681	2913.8
2983.67732	2915.8
2986.11635	2919.7
2988.55388	2910.5
2990.98993	2898.8
2993.4245	2894.2
2995.85758	2896.6
2998.28917	2891.5
3000.71928	2880.6
3003.14791	2888.2
3005.57506	2881.4
3008.00073	2866.1
3010.42493	2870
3012.84764	2862.8
3015.26888	2861.8
3017.68865	2863.5
3020.10694	2849.5
3022.52376	2833.4
3024.9391	2849.5
3027.35298	2843.2
3029.76539	2834.4
3032.17632	2817.7
3034.5858	2817.2
3036.9938	2828.6
3039.40034	2821.5
3041.80542	2822.7
3044.20903	2816.6
3046.61118	2809.6
3049.01187	2808.4
3051.4111	2807.5
3053.80888	2802.9
3056.20519	2784.2
3058.60005	2792.3
3060.99345	2770.2
3063.3854	2782.5
3065.7759	2767.6
3068.16494	2778
3070.55254	2766.2
3072.93868	2754.5
3075.32338	2762
3077.70662	2760.3
3080.08842	2748.4
3082.46878	2763.1
3084.84769	2744.4
3087.22515	2745.8
3089.60118	2749.3
3091.97576	2753
3094.3489	2750
3096.72061	2749.2
3099.09087	2747.1
3101.4597	2753.3
3103.82709	2762.7
3106.19305	2749.5
3108.55757	2755.9
3110.92066	2757.8
3113.28232	2750
3115.64255	2740.4
3118.00134	2756.1
3120.35871	2748.8
3122.71466	2739.2
3125.06917	2742.9
3127.42226	2731.3
3129.77393	2740.4
3132.12417	2738.7
3134.47299	2743.6
3136.82039	2748
3139.16636	2724.2
3141.51092	2740.2
3143.85406	2737.9
3146.19579	2753.8
3148.53609	2761
3150.87499	2759.6
3153.21246	2779.3
3155.54853	2783.3
3157.88318	2767.8
3160.21642	2781.6
3162.54826	2775.7
3164.87868	2785.5
3167.2077	2782.7
3169.5353	2786.7
3171.86151	2785.5
3174.18631	2784.9
3176.5097	2790.5
3178.83169	2785.1
3181.15228	2795.6
3183.47147	2777.6
3185.78926	2786.6
3188.10565	2792.5
3190.42065	2787.5
3192.73424	2794.3
3195.04645	2792.5
3197.35725	2792.8
3199.66667	2793
3201.97469	2794
3204.28132	2805.8
3206.58656	2804
3208.8904	2802.8
3211.19287	2801.2
3213.49394	2805.8
3215.79363	2811.9
3218.09193	2827.2
3220.38884	2818.1
3222.68438	2819.1
3224.97853	2821.1
3227.2713	2825.3
3229.56269	2821.6
3231.8527	2827
3234.14133	2815.8
3236.42858	2803.4
3238.71446	2808.6
3240.99896	2797.7
3243.28209	2791.9
3245.56384	2789.6
3247.84423	2788.6
3250.12324	2778.5
3252.40088	2781.6
3254.67715	2784.2
3256.95205	2772.7
3259.22558	2783.4
3261.49775	2779.7
3263.76855	2776.5
3266.03799	2779.6
3268.30606	2783
3270.57277	2763.1
3272.83812	2759.2
3275.10211	2752.3
3277.36474	2750.6
3279.62601	2750.6
3281.88593	2744.9
3284.14448	2758.9
3286.40168	2758.6
3288.65753	2757.6
3290.91202	2731.2
3293.16516	2750.7
3295.41695	2730.6
3297.66738	2716.5
3299.91647	2706.8
3302.16421	2701.8
3304.4106	2696.6
3306.65564	2681.4
3308.89933	2652.6
3311.14169	2648.9
3313.38269	2625.5
3315.62236	2606.4
3317.86068	2577.2
3320.09766	2560
3322.3333	2556.7
3324.5676	2539.7
3326.80056	2502.6
3329.03219	2489.7
3331.26248	1.1
3333.49143	-1.6
3335.71905	0.4
