Data from AgNP_FTO_APTES_UA_100uM_CRN_10uM_R6G_10uM_NaF_0.1M_Addition_RamanShift__7__15-25-10-404.txt Node

Date: Thu Mar 24 15:25:10 GMT 2022
User: TCL
Spectrometer: QEP01345
Trigger mode: 4
Integration Time (sec): 7.000000E0
Scans to average: 10
Electric dark correction enabled: true
Nonlinearity correction enabled: false
Boxcar width: 0
XAxis mode: Raman Shifts
Number of Pixels in Spectrum: 1044
>>>>>Begin Spectral Data<<<<<
46.04893	-0.7625
50.45542	-0.0625
54.85868	-0.2625
59.25871	0.2375
63.6555	0.1375
68.04907	-0.3625
72.43941	0.3375
76.82654	-3.9625
81.21044	3.6375
85.59113	-1.9625
89.96862	3.2375
94.34289	-2.7625
98.71396	-0.9625
103.08183	-3.8625
107.4465	0.9375
111.80798	1.0375
116.16626	-1.6625
120.52136	0.7375
124.87327	-2.4625
129.222	-0.4625
133.56755	0.1375
137.90993	-4.7625
142.24913	1.7375
146.58517	-1.8625
150.91804	-0.6625
155.24774	3.0375
159.57429	1.9375
163.89768	-0.3625
168.21792	1.2375
172.53501	-0.6625
176.84895	2.6375
181.15975	0.6375
185.46741	1.0375
189.77193	-3.7625
194.07331	-5.6625
198.37157	-2.8625
202.6667	-7.7625
206.9587	-6.3625
211.24758	-0.9625
215.53334	-7.0625
219.81599	-3.2625
224.09553	0.9375
228.37195	-5.0625
232.64527	-5.0625
236.91549	-10.5625
241.18261	-5.4625
245.44663	-7.0625
249.70755	-6.5625
253.96539	-5.8625
258.22014	-7.1625
262.4718	-5.3625
266.72039	-7.2625
270.96589	-6.8625
275.20832	-5.7625
279.44768	-6.5625
283.68397	-7.1625
287.91719	-5.8625
292.14735	-10.0625
296.37445	-9.0625
300.59849	-8.3625
304.81948	-5.2625
309.03742	-5.7625
313.25231	-5.5625
317.46415	-1.5625
321.67296	-3.7625
325.87872	-5.1625
330.08145	-5.6625
334.28114	-6.1625
338.47781	-7.0625
342.67145	-3.5625
346.86207	-10.5625
351.04966	-4.8625
355.23424	-6.6625
359.4158	-3.2625
363.59435	-7.2625
367.76989	-3.2625
371.94243	-5.8625
376.11196	-2.1625
380.27849	-2.9625
384.44203	-7.1625
388.60257	-2.5625
392.76012	-3.2625
396.91468	-4.3625
401.06626	-7.1625
405.21485	-3.1625
409.36047	-5.7625
413.50311	1.0375
417.64277	-2.4625
421.77947	-2.8625
425.9132	5.1375
430.04396	2.2375
434.17176	4.4375
438.2966	0.4375
442.41849	-0.9625
446.53742	-5.3625
450.6534	-1.7625
454.76644	-1.7625
458.87653	-3.8625
462.98368	-5.1625
467.08789	-5.9625
471.18916	-9.1625
475.2875	-11.6625
479.38291	-5.5625
483.4754	-3.8625
487.56496	-4.7625
491.6516	-2.9625
495.73531	-7.0625
499.81612	-5.8625
503.89401	-4.1625
507.96899	-7.4625
512.04106	-5.2625
516.11023	-3.9625
520.1765	-7.9625
524.23987	-5.8625
528.30034	-4.1625
532.35792	-5.1625
536.41261	-4.6625
540.46441	-4.0625
544.51333	-6.1625
548.55936	-0.9625
552.60252	-6.1625
556.64279	-4.8625
560.6802	-6.8625
564.71473	-7.1625
568.7464	-8.3625
572.7752	-5.2625
576.80114	-8.4625
580.82422	-10.0625
584.84444	-9.0625
588.86181	-9.7625
592.87633	-4.5625
596.888	-4.4625
600.89682	-7.0625
604.9028	-4.0625
608.90594	-8.4625
612.90624	-7.6625
616.90371	-8.6625
620.89834	-5.3625
624.89015	-4.3625
628.87913	-13.4625
632.86528	-5.5625
636.84862	-6.8625
640.82913	-5.6625
644.80683	-7.2625
648.78172	-5.3625
652.75379	-4.2625
656.72306	-2.1625
660.68952	-7.3625
664.65319	-6.0625
668.61405	-7.0625
672.57211	-9.3625
676.52738	-6.8625
680.47986	-7.9625
684.42955	-6.2625
688.37646	-4.3625
692.32058	-5.2625
696.26192	-6.1625
700.20048	-5.7625
704.13626	-0.5625
708.06928	0.4375
711.99952	2.5375
715.927	-1.4625
719.85171	-0.8625
723.77365	-5.5625
727.69284	-3.2625
731.60928	-4.2625
735.52295	-7.2625
739.43388	-5.6625
743.34206	-6.9625
747.24749	-6.0625
751.15017	-4.5625
755.05012	-6.2625
758.94733	-5.5625
762.8418	-4.6625
766.73354	-7.4625
770.62254	-5.4625
774.50882	-8.3625
778.39237	-4.7625
782.27321	-7.4625
786.15132	-5.9625
790.02671	-10.4625
793.89938	-6.8625
797.76935	-3.5625
801.6366	-7.7625
805.50115	-2.8625
809.36299	-3.3625
813.22213	-7.1625
817.07857	-6.4625
820.93231	-8.0625
824.78336	-6.7625
828.63172	-2.9625
832.47738	-4.7625
836.32036	-5.6625
840.16066	-4.9625
843.99827	-1.8625
847.8332	-5.1625
851.66546	-7.2625
855.49504	-9.2625
859.32195	-6.2625
863.1462	-7.5625
866.96777	-4.9625
870.78668	-8.3625
874.60293	-6.2625
878.41652	-6.9625
882.22745	-6.9625
886.03573	-8.3625
889.84136	-5.3625
893.64433	-7.8625
897.44466	-4.7625
901.24235	-8.6625
905.0374	-6.9625
908.8298	-3.1625
912.61957	-8.5625
916.40671	-7.6625
920.19121	-8.0625
923.97308	-9.6625
927.75233	-4.8625
931.52895	-10.1625
935.30295	-11.6625
939.07433	-7.9625
942.84309	-7.3625
946.60924	-7.8625
950.37278	-9.4625
954.13371	-5.7625
957.89203	-6.7625
961.64774	-4.6625
965.40086	-3.5625
969.15137	-5.1625
972.89929	-5.1625
976.64461	-3.1625
980.38733	-5.9625
984.12747	-5.8625
987.86502	-5.5625
991.59999	-6.4625
995.33237	-6.5625
999.06217	-6.3625
1002.78939	-4.9625
1006.51404	-4.4625
1010.23611	-7.2625
1013.95561	-4.7625
1017.67255	-10.8625
1021.38692	-6.9625
1025.09872	-3.7625
1028.80796	-7.3625
1032.51465	-7.4625
1036.21877	-5.4625
1039.92035	-3.8625
1043.61937	-7.5625
1047.31584	-4.7625
1051.00976	-6.3625
1054.70114	-8.4625
1058.38998	-9.2625
1062.07627	-7.2625
1065.76003	-3.4625
1069.44126	-6.1625
1073.11995	-5.6625
1076.79611	-4.5625
1080.46974	-6.2625
1084.14085	-6.1625
1087.80943	-6.5625
1091.47549	-8.0625
1095.13903	-6.6625
1098.80005	-7.7625
1102.45857	-8.0625
1106.11456	-6.4625
1109.76805	-7.7625
1113.41903	-3.6625
1117.06751	-3.7625
1120.71348	-2.1625
1124.35696	-4.2625
1127.99793	-3.7625
1131.63641	-5.3625
1135.2724	-8.7625
1138.90589	-8.0625
1142.5369	-6.6625
1146.16542	-3.2625
1149.79145	-7.0625
1153.415	-8.8625
1157.03607	-9.5625
1160.65467	-8.0625
1164.27079	-7.9625
1167.88443	-7.9625
1171.49561	-4.3625
1175.10432	-2.0625
1178.71056	-7.4625
1182.31434	-7.3625
1185.91565	-7.9625
1189.51451	-6.1625
1193.11091	-5.5625
1196.70485	-10.5625
1200.29634	-10.5625
1203.88538	-7.9625
1207.47197	-7.4625
1211.05612	-5.8625
1214.63782	-5.7625
1218.21708	-7.7625
1221.79391	-7.0625
1225.36829	-6.2625
1228.94024	-5.7625
1232.50976	-5.2625
1236.07685	-5.7625
1239.6415	-7.2625
1243.20374	-2.8625
1246.76355	-0.7625
1250.32093	-0.1625
1253.8759	-0.9625
1257.42845	-0.5625
1260.97859	-0.1625
1264.52631	-2.2625
1268.07163	-1.6625
1271.61453	-3.3625
1275.15503	-2.2625
1278.69312	-4.0625
1282.22882	-7.2625
1285.76211	-2.8625
1289.29301	-3.4625
1292.82151	-9.8625
1296.34761	-5.9625
1299.87133	-6.1625
1303.39266	-6.7625
1306.9116	-7.3625
1310.42815	-8.2625
1313.94233	-9.2625
1317.45412	-10.6625
1320.96354	-11.8625
1324.47058	-3.7625
1327.97525	-9.1625
1331.47754	-9.6625
1334.97747	-8.5625
1338.47502	-7.9625
1341.97022	-7.6625
1345.46305	-9.3625
1348.95352	-7.8625
1352.44163	-8.9625
1355.92738	-9.0625
1359.41078	-8.8625
1362.89183	-10.5625
1366.37053	-5.1625
1369.84688	-9.5625
1373.32088	-6.9625
1376.79254	-3.8625
1380.26186	-3.5625
1383.72883	0.3375
1387.19347	1.4375
1390.65578	-1.3625
1394.11575	-3.1625
1397.57339	-4.5625
1401.0287	-5.7625
1404.48168	-7.0625
1407.93234	-9.0625
1411.38068	-5.9625
1414.82669	-8.6625
1418.27039	-9.0625
1421.71177	-8.4625
1425.15083	-10.4625
1428.58758	-6.1625
1432.02203	-10.2625
1435.45416	-7.6625
1438.88399	-10.2625
1442.31151	-10.5625
1445.73673	-2.3625
1449.15965	-4.8625
1452.58027	-10.9625
1455.9986	-9.4625
1459.41463	-8.9625
1462.82837	-11.2625
1466.23982	-6.9625
1469.64898	-11.3625
1473.05586	-7.3625
1476.46045	-9.7625
1479.86276	-9.8625
1483.26279	-12.6625
1486.66054	-11.6625
1490.05602	-11.3625
1493.44922	-9.1625
1496.84016	-7.2625
1500.22882	-10.1625
1503.61521	-9.0625
1506.99934	-7.7625
1510.38121	-9.0625
1513.76081	-7.6625
1517.13816	-9.3625
1520.51324	-8.9625
1523.88607	-10.1625
1527.25665	-10.7625
1530.62498	-8.1625
1533.99105	-6.9625
1537.35488	-7.7625
1540.71647	-9.5625
1544.07581	-8.8625
1547.4329	-9.2625
1550.78776	-12.0625
1554.14038	-9.4625
1557.49077	-6.3625
1560.83892	-6.6625
1564.18484	-8.5625
1567.52853	-3.8625
1570.86999	-10.6625
1574.20922	-6.8625
1577.54624	-10.2625
1580.88103	-10.4625
1584.2136	-7.4625
1587.54395	-6.2625
1590.87208	-12.4625
1594.19801	-8.7625
1597.52172	-9.2625
1600.84321	-5.8625
1604.16251	-7.8625
1607.47959	-5.8625
1610.79447	-6.8625
1614.10715	-7.9625
1617.41763	-4.1625
1620.7259	-4.9625
1624.03199	0.3375
1627.33587	-2.4625
1630.63757	-2.7625
1633.93707	4.0375
1637.23439	2.5375
1640.52951	6.5375
1643.82246	3.1375
1647.11321	8.3375
1650.40179	12.8375
1653.68819	14.6375
1656.97241	14.3375
1660.25446	17.6375
1663.53433	16.3375
1666.81203	10.5375
1670.08756	13.8375
1673.36092	8.4375
1676.63211	4.7375
1679.90115	1.8375
1683.16801	5.5375
1686.43272	3.8375
1689.69527	3.4375
1692.95567	9.1375
1696.2139	26.0375
1699.46999	39.1375
1702.72392	33.0375
1705.97571	23.3375
1709.22535	14.5375
1712.47284	8.5375
1715.71819	0.7375
1718.96139	-16.4625
1722.20246	-6.4625
1725.44139	-3.7625
1728.67818	-6.8625
1731.91284	-4.1625
1735.14537	-4.1625
1738.37576	-2.0625
1741.60403	1.6375
1744.83017	0.7375
1748.05418	3.2375
1751.27607	6.7375
1754.49584	13.4375
1757.71349	13.0375
1760.92903	19.3375
1764.14244	22.9375
1767.35375	20.7375
1770.56294	23.6375
1773.77002	15.0375
1776.97499	6.7375
1780.17785	3.5375
1783.37861	0.7375
1786.57727	-1.7625
1789.77382	-8.6625
1792.96828	-1.3625
1796.16064	-9.4625
1799.3509	-4.1625
1802.53907	-6.0625
1805.72514	-7.0625
1808.90913	-6.2625
1812.09102	-2.4625
1815.27083	-6.6625
1818.44856	-5.5625
1821.6242	-5.8625
1824.79776	-9.2625
1827.96924	-9.0625
1831.13864	-5.2625
1834.30597	-8.7625
1837.47122	-8.7625
1840.6344	-8.6625
1843.7955	-7.4625
1846.95454	-6.2625
1850.11151	-7.6625
1853.26642	-6.7625
1856.41926	-6.5625
1859.57004	-9.1625
1862.71876	-4.3625
1865.86542	-9.4625
1869.01003	-4.2625
1872.15258	-8.7625
1875.29308	-7.8625
1878.43152	-5.4625
1881.56792	-6.1625
1884.70227	-7.4625
1887.83457	-7.6625
1890.96482	-10.3625
1894.09304	-6.8625
1897.21921	-7.7625
1900.34335	-7.4625
1903.46544	-4.1625
1906.58551	-8.2625
1909.70353	-5.1625
1912.81953	-11.0625
1915.93349	-10.0625
1919.04543	-8.1625
1922.15534	-6.4625
1925.26322	-7.3625
1928.36908	-6.8625
1931.47292	-4.8625
1934.57473	-6.9625
1937.67453	-7.4625
1940.77232	-7.4625
1943.86808	-9.0625
1946.96184	-10.1625
1950.05358	-4.4625
1953.14331	-5.3625
1956.23103	-4.5625
1959.31675	-7.2625
1962.40046	-10.2625
1965.48217	-9.7625
1968.56188	-10.5625
1971.63959	-7.5625
1974.7153	-6.5625
1977.78901	-9.0625
1980.86073	-6.6625
1983.93046	-7.4625
1986.99819	-6.7625
1990.06394	-9.5625
1993.1277	-10.3625
1996.18947	-6.4625
1999.24925	-8.7625
2002.30706	-10.3625
2005.36288	-5.4625
2008.41672	-7.9625
2011.46859	-6.0625
2014.51848	-6.5625
2017.56639	-6.4625
2020.61233	-6.5625
2023.6563	-8.9625
2026.6983	-8.1625
2029.73833	-7.9625
2032.7764	-6.5625
2035.8125	-8.9625
2038.84664	-5.4625
2041.87881	-6.9625
2044.90903	-7.9625
2047.93729	-7.1625
2050.96359	-8.4625
2053.98794	-7.3625
2057.01034	-9.1625
2060.03078	-9.4625
2063.04927	-8.2625
2066.06582	-8.9625
2069.08042	-3.9625
2072.09307	-9.7625
2075.10378	-11.0625
2078.11255	-7.2625
2081.11938	-4.3625
2084.12426	-5.6625
2087.12722	-9.6625
2090.12824	-6.7625
2093.12732	-7.5625
2096.12447	-6.1625
2099.11969	-9.6625
2102.11299	-6.7625
2105.10435	-6.1625
2108.09379	-8.3625
2111.08131	-6.1625
2114.0669	-2.9625
2117.05057	-4.0625
2120.03233	-6.3625
2123.01216	-6.1625
2125.99008	-6.5625
2128.96609	-6.2625
2131.94018	-8.4625
2134.91236	-4.1625
2137.88263	-3.1625
2140.851	-6.3625
2143.81746	-5.7625
2146.78201	-6.1625
2149.74466	-6.5625
2152.7054	-5.7625
2155.66425	-6.6625
2158.6212	-8.3625
2161.57625	-4.2625
2164.52941	-5.6625
2167.48067	-7.0625
2170.43004	-8.5625
2173.37752	-3.4625
2176.32311	-7.9625
2179.26681	-4.3625
2182.20863	-8.2625
2185.14856	-6.2625
2188.08661	-7.1625
2191.02278	-5.9625
2193.95707	-4.6625
2196.88948	-5.7625
2199.82001	-6.1625
2202.74867	-5.4625
2205.67545	-5.3625
2208.60037	-8.3625
2211.52341	-3.7625
2214.44458	-8.7625
2217.36388	-7.9625
2220.28132	-7.3625
2223.1969	-6.8625
2226.11061	-9.0625
2229.02246	-8.5625
2231.93245	-6.7625
2234.84058	-3.3625
2237.74686	-6.0625
2240.65128	-6.6625
2243.55385	-4.5625
2246.45456	-5.5625
2249.35343	-7.8625
2252.25044	-4.5625
2255.14561	-7.8625
2258.03893	-4.4625
2260.93041	-3.6625
2263.82004	-8.9625
2266.70783	-8.9625
2269.59378	-3.9625
2272.4779	-6.9625
2275.36017	-7.1625
2278.24061	-11.3625
2281.11922	-8.0625
2283.996	-9.6625
2286.87094	-7.0625
2289.74405	-8.9625
2292.61534	-8.8625
2295.4848	-3.8625
2298.35243	-4.5625
2301.21824	-6.7625
2304.08223	-5.3625
2306.94439	-5.3625
2309.80474	-7.7625
2312.66327	-6.9625
2315.51999	-8.9625
2318.37489	-5.5625
2321.22797	-3.6625
2324.07925	-6.4625
2326.92871	-4.7625
2329.77637	-4.2625
2332.62222	-6.7625
2335.46626	-6.8625
2338.3085	-6.0625
2341.14893	-6.1625
2343.98756	-6.2625
2346.8244	-5.8625
2349.65943	-5.7625
2352.49267	-9.4625
2355.32411	-5.6625
2358.15376	-6.8625
2360.98161	-1.5625
2363.80768	-4.5625
2366.63195	-9.6625
2369.45444	-8.6625
2372.27514	-6.5625
2375.09405	-6.9625
2377.91118	-6.6625
2380.72652	-8.2625
2383.54009	-8.6625
2386.35187	-5.7625
2389.16188	-7.9625
2391.97011	-7.1625
2394.77657	-4.0625
2397.58125	-7.0625
2400.38416	-3.2625
2403.18529	-7.2625
2405.98466	-7.3625
2408.78226	-4.8625
2411.57809	-7.2625
2414.37216	-5.4625
2417.16446	-7.0625
2419.955	-8.4625
2422.74378	-6.5625
2425.5308	-5.8625
2428.31606	-7.0625
2431.09956	-4.2625
2433.88131	-6.5625
2436.6613	-7.5625
2439.43954	-5.0625
2442.21603	-2.5625
2444.99077	-7.6625
2447.76377	-8.8625
2450.53501	-7.7625
2453.30451	-6.4625
2456.07226	-7.0625
2458.83827	-6.4625
2461.60254	-7.9625
2464.36507	-9.1625
2467.12586	-7.3625
2469.88492	-6.6625
2472.64224	-7.8625
2475.39782	-6.8625
2478.15167	-6.1625
2480.90379	-4.0625
2483.65417	-5.9625
2486.40283	-1.8625
2489.14976	-5.7625
2491.89497	-5.1625
2494.63845	-3.3625
2497.3802	-3.8625
2500.12024	-4.0625
2502.85855	-6.3625
2505.59514	-5.9625
2508.33002	-7.1625
2511.06318	-5.8625
2513.79462	-4.5625
2516.52435	-8.0625
2519.25237	-8.3625
2521.97867	-6.1625
2524.70327	-6.1625
2527.42616	-4.3625
2530.14734	-6.6625
2532.86681	-6.0625
2535.58458	-9.1625
2538.30065	-12.2625
2541.01501	-8.0625
2543.72768	-8.2625
2546.43864	-6.0625
2549.14791	-5.9625
2551.85548	-9.1625
2554.56136	-3.3625
2557.26554	-7.7625
2559.96803	-5.4625
2562.66883	-6.8625
2565.36794	-5.4625
2568.06536	-3.8625
2570.7611	-7.2625
2573.45514	-5.7625
2576.14751	-10.6625
2578.83819	-9.6625
2581.52719	-7.0625
2584.21451	-4.2625
2586.90015	-4.2625
2589.58411	-8.0625
2592.2664	-3.6625
2594.94701	-2.2625
2597.62594	-4.0625
2600.30321	-4.2625
2602.9788	-4.7625
2605.65273	-2.2625
2608.32498	-2.3625
2610.99557	-5.7625
2613.66449	-7.8625
2616.33175	-7.9625
2618.99734	-5.0625
2621.66128	-6.3625
2624.32355	-5.0625
2626.98416	-5.3625
2629.64311	-5.9625
2632.30041	-3.9625
2634.95605	-6.6625
2637.61004	-3.2625
2640.26238	-7.4625
2642.91306	-4.1625
2645.56209	-4.5625
2648.20948	-2.2625
2650.85521	0.4375
2653.4993	-6.7625
2656.14175	-2.9625
2658.78255	-4.2625
2661.42171	-3.0625
2664.05923	-3.2625
2666.6951	-5.2625
2669.32934	-5.8625
2671.96194	-4.7625
2674.59291	-5.0625
2677.22224	-6.3625
2679.84993	-5.2625
2682.476	-7.1625
2685.10043	-6.6625
2687.72324	-4.0625
2690.34441	-6.6625
2692.96396	-5.1625
2695.58188	-6.1625
2698.19818	-4.8625
2700.81285	-6.3625
2703.4259	3.7375
2706.03733	7.1375
2708.64714	1.7375
2711.25533	-1.4625
2713.86191	-6.0625
2716.46687	-3.9625
2719.07021	-4.3625
2721.67194	-3.3625
2724.27206	-4.4625
2726.87057	-4.7625
2729.46747	-5.8625
2732.06276	-4.7625
2734.65644	-9.7625
2737.24852	-7.2625
2739.83899	-7.7625
2742.42786	-2.5625
2745.01513	-5.0625
2747.60079	-3.9625
2750.18486	-6.2625
2752.76733	-2.5625
2755.3482	-7.0625
2757.92747	-6.2625
2760.50515	-4.1625
2763.08123	-5.5625
2765.65573	-6.1625
2768.22863	-4.3625
2770.79994	-6.6625
2773.36967	-5.4625
2775.9378	-5.5625
2778.50435	-4.8625
2781.06932	-7.0625
2783.6327	-6.1625
2786.1945	-7.1625
2788.75471	-6.1625
2791.31335	-9.5625
2793.87041	-6.2625
2796.42589	-6.3625
2798.97979	-6.1625
2801.53212	-5.7625
2804.08288	-10.2625
2806.63206	-6.7625
2809.17967	-6.8625
2811.72571	-6.6625
2814.27018	-3.6625
2816.81308	-2.0625
2819.35442	-7.4625
2821.89419	-5.5625
2824.43239	-7.7625
2826.96904	-5.2625
2829.50412	-3.4625
2832.03763	-2.7625
2834.56959	-2.8625
2837.1	-3.2625
2839.62884	-5.3625
2842.15613	-5.3625
2844.68186	-5.7625
2847.20604	-5.4625
2849.72867	-5.4625
2852.24974	-6.2625
2854.76927	2.3375
2857.28724	-3.0625
2859.80367	-5.2625
2862.31855	-3.2625
2864.83189	-5.6625
2867.34368	-3.3625
2869.85393	-8.1625
2872.36264	-4.8625
2874.8698	-5.4625
2877.37543	-6.2625
2879.87952	-5.7625
2882.38207	-6.5625
2884.88308	-8.4625
2887.38256	-2.0625
2889.88051	-6.4625
2892.37692	-2.2625
2894.8718	-4.0625
2897.36515	-5.3625
2899.85698	-5.9625
2902.34727	-4.5625
2904.83604	-5.5625
2907.32328	-5.5625
2909.809	-2.0625
2912.29319	-4.2625
2914.77587	-7.8625
2917.25702	-9.3625
2919.73665	-5.8625
2922.21476	-3.1625
2924.69136	-3.8625
2927.16644	-2.0625
2929.64	-3.8625
2932.11205	-7.3625
2934.58258	-4.5625
2937.05161	-4.7625
2939.51912	-8.8625
2941.98513	-2.9625
2944.44962	-4.7625
2946.91261	-4.6625
2949.37409	-4.9625
2951.83407	-3.0625
2954.29254	-0.8625
2956.74951	-4.7625
2959.20498	-2.6625
2961.65895	3.6375
2964.11142	-4.8625
2966.56239	0.1375
2969.01186	-2.2625
2971.45984	-2.6625
2973.90632	-4.8625
2976.35131	-6.2625
2978.7948	-4.0625
2981.23681	-5.1625
2983.67732	-4.4625
2986.11635	-5.7625
2988.55388	-7.0625
2990.98993	-7.3625
2993.4245	-5.2625
2995.85758	-2.7625
2998.28917	-1.5625
3000.71928	-5.2625
3003.14791	-2.2625
3005.57506	-6.1625
3008.00073	-5.0625
3010.42493	-4.9625
3012.84764	-4.5625
3015.26888	-9.5625
3017.68865	-3.3625
3020.10694	-1.4625
3022.52376	-5.6625
3024.9391	-5.6625
3027.35298	-4.3625
3029.76539	-0.8625
3032.17632	-9.3625
3034.5858	-4.3625
3036.9938	-3.6625
3039.40034	-3.0625
3041.80542	-5.4625
3044.20903	-4.7625
3046.61118	-3.4625
3049.01187	-4.4625
3051.4111	-3.7625
3053.80888	-3.4625
3056.20519	-4.9625
3058.60005	-3.9625
3060.99345	-3.1625
3063.3854	-3.3625
3065.7759	-7.3625
3068.16494	-2.0625
3070.55254	-3.1625
3072.93868	-4.2625
3075.32338	-4.3625
3077.70662	-7.3625
3080.08842	-4.9625
3082.46878	-1.8625
3084.84769	-4.7625
3087.22515	-3.8625
3089.60118	-5.7625
3091.97576	-2.3625
3094.3489	-3.1625
3096.72061	-6.7625
3099.09087	-5.8625
3101.4597	-2.9625
3103.82709	-5.8625
3106.19305	-5.3625
3108.55757	-2.2625
3110.92066	-3.2625
3113.28232	-5.1625
3115.64255	-2.3625
3118.00134	-3.8625
3120.35871	-5.7625
3122.71466	-4.4625
3125.06917	-5.5625
3127.42226	-1.9625
3129.77393	-6.3625
3132.12417	-5.8625
3134.47299	-5.4625
3136.82039	-6.2625
3139.16636	-6.0625
3141.51092	-1.4625
3143.85406	-4.6625
3146.19579	-6.4625
3148.53609	-5.8625
3150.87499	-3.5625
3153.21246	-3.4625
3155.54853	-5.0625
3157.88318	-4.5625
3160.21642	-9.3625
3162.54826	-3.0625
3164.87868	-7.3625
3167.2077	-6.6625
3169.5353	-5.1625
3171.86151	-5.7625
3174.18631	-7.4625
3176.5097	-3.4625
3178.83169	-4.9625
3181.15228	-7.2625
3183.47147	-5.3625
3185.78926	-4.8625
3188.10565	-2.6625
3190.42065	-6.1625
3192.73424	-5.7625
3195.04645	-4.6625
3197.35725	-6.0625
3199.66667	-3.1625
3201.97469	-3.7625
3204.28132	-4.3625
3206.58656	-3.7625
3208.8904	-4.6625
3211.19287	-5.7625
3213.49394	-3.7625
3215.79363	-6.0625
3218.09193	-3.4625
3220.38884	-0.9625
3222.68438	-1.8625
3224.97853	-1.0625
3227.2713	-4.4625
3229.56269	-4.0625
3231.8527	-3.7625
3234.14133	-5.4625
3236.42858	-0.8625
3238.71446	-5.2625
3240.99896	-4.0625
3243.28209	-7.3625
3245.56384	-3.6625
3247.84423	-5.5625
3250.12324	-3.6625
3252.40088	-5.7625
3254.67715	-3.4625
3256.95205	-3.5625
3259.22558	-2.9625
3261.49775	-3.7625
3263.76855	-1.9625
3266.03799	-0.7625
3268.30606	0.8375
3270.57277	-6.1625
3272.83812	-6.0625
3275.10211	-4.3625
3277.36474	-5.6625
3279.62601	-4.1625
3281.88593	-1.9625
3284.14448	-0.7625
3286.40168	-0.1625
3288.65753	-1.0625
3290.91202	-5.0625
3293.16516	-2.7625
3295.41695	-4.9625
3297.66738	-5.6625
3299.91647	-4.4625
3302.16421	-5.7625
3304.4106	-3.6625
3306.65564	-1.9625
3308.89933	-5.1625
3311.14169	-3.5625
3313.38269	-2.1625
3315.62236	-1.0625
3317.86068	-2.4625
3320.09766	-2.9625
3322.3333	-4.4625
3324.5676	2.5375
3326.80056	2.3375
3329.03219	0.2375
3331.26248	0.3375
3333.49143	-0.3625
3335.71905	-0.1625
