#Wave		#Intensity
2001.221680	38249.410156
2000.251953	38191.761719
1999.282227	38370.542969
1998.312500	38198.472656
1997.342773	38555.058594
1996.372070	38608.441406
1995.402344	38433.910156
1994.431641	39095.738281
1993.460938	39068.882813
1992.490234	38776.718750
1991.518555	38767.445313
1990.547852	38853.253906
1989.576172	39294.273438
1988.604492	38894.710938
1987.632813	39022.960938
1986.661133	39042.539063
1985.689453	39062.113281
1984.716797	39081.710938
1983.745117	39101.285156
1982.772461	39120.882813
1981.799805	39140.476563
1980.827148	39160.074219
1979.853516	39179.687500
1978.880859	39199.285156
1977.907227	39218.902344
1976.933594	39238.515625
1975.959961	39258.132813
1974.986328	39277.746094
1974.011719	39297.382813
1973.038086	39317.000000
1972.063477	39336.632813
1971.088867	39356.269531
1970.114258	39375.906250
1969.138672	39395.558594
1968.164063	39415.195313
1967.188477	39434.851563
1966.212891	39454.503906
1965.237305	39474.160156
1964.261719	39830.851563
1963.286133	39572.402344
1962.309570	39535.605469
1961.333984	39645.679688
1960.357422	39462.050781
1959.380859	39557.164063
1958.404297	39448.246094
1957.426758	39879.113281
1956.450195	39357.355469
1955.472656	39544.410156
1954.495117	39539.976563
1953.517578	39423.695313
1952.540039	39205.558594
1951.561523	39643.460938
1950.583008	39842.718750
1949.605469	39691.683594
1948.626953	39354.445313
1947.647461	39774.628906
1946.668945	39152.000000
1945.690430	40001.468750
1944.710938	39185.445313
1943.731445	39764.156250
1942.751953	39365.226563
1941.772461	39353.375000
1940.791992	39091.054688
1939.812500	39778.464844
1938.832031	39317.832031
1937.851563	39429.921875
1936.871094	39410.628906
1935.890625	39019.671875
1934.909180	39860.082031
1933.928711	39746.597656
1932.947266	39113.093750
1931.965820	39177.906250
1930.984375	39242.718750
1930.002930	39307.535156
1929.020508	39372.410156
1928.038086	39437.289063
1927.056641	39502.101563
1926.074219	39566.980469
1925.090820	39631.921875
1924.108398	39696.800781
1923.125000	39890.085938
1922.142578	40177.226563
1921.159180	39920.585938
1920.175781	39925.945313
1919.191406	40435.257813
1918.208008	40102.136719
1917.223633	39667.878906
1916.240234	40226.347656
1915.255859	39858.871094
1914.271484	40096.238281
1913.286133	40506.261719
1912.301758	40356.054688
1911.316406	39986.339844
1910.331055	40544.156250
1909.345703	39920.531250
1908.360352	40081.191406
1907.375000	40478.453125
1906.388672	40567.480469
1905.402344	39944.285156
1904.416016	39757.414063
1903.429688	39666.679688
1902.443359	39979.917969
1901.457031	40105.882813
1900.469727	40108.695313
1899.482422	39761.941406
1898.495117	39853.414063
1897.507813	39942.394531
1896.520508	40110.078125
1895.532227	39935.757813
1894.543945	39700.011719
1893.556641	39717.632813
1892.568359	40298.296875
1891.579102	39720.902344
1890.590820	39777.832031
1889.601563	39773.308594
1888.613281	39611.535156
1887.624023	40002.542969
1886.634766	40140.433594
1885.644531	40231.613281
1884.655273	39492.878906
1883.665039	40200.300781
1882.674805	40033.707031
1881.684570	39982.503906
1880.694336	40088.343750
1879.704102	39912.039063
1878.712891	40231.238281
1877.722656	39937.257813
1876.731445	40185.230469
1875.740234	40305.644531
1874.748047	40055.917969
1873.756836	40043.980469
1872.764648	39706.183594
1871.773438	39890.281250
1870.781250	40057.167969
1869.788086	39944.828125
1868.795898	39729.699219
1867.803711	40307.773438
1866.810547	40104.890625
1865.817383	39779.722656
1864.824219	40225.359375
1863.831055	39966.328125
1862.837891	40201.437500
1861.843750	39859.355469
1860.849609	40035.718750
1859.855469	39938.234375
1858.861328	39769.902344
1857.867188	40046.371094
1856.872070	39799.898438
1855.877930	40139.773438
1854.882813	40042.347656
1853.887695	40462.640625
1852.892578	40318.800781
1851.896484	40148.160156
1850.901367	40363.195313
1849.905273	40197.484375
1848.909180	40258.726563
1847.913086	40458.988281
1846.916992	40217.734375
1845.919922	40274.058594
1844.923828	40430.324219
1843.926758	40333.019531
1842.929688	40769.492188
1841.932617	40525.949219
1840.935547	40431.109375
1839.937500	40448.355469
1838.939453	40197.687500
1837.942383	40436.554688
1836.943359	40529.253906
1835.945313	40505.082031
1834.947266	40797.304688
1833.948242	41004.257813
1832.949219	40875.394531
1831.951172	40676.031250
1830.951172	40975.308594
1829.952148	40980.250000
1828.953125	40581.613281
1827.953125	40863.726563
1826.953125	41320.726563
1825.953125	41476.253906
1824.953125	41034.070313
1823.952148	41473.792969
1822.952148	41476.203125
1821.951172	41330.488281
1820.950195	40852.218750
1819.949219	41194.558594
1818.948242	41201.863281
1817.946289	41619.242188
1816.945313	40993.261719
1815.943359	41199.496094
1814.941406	41109.777344
1813.939453	40886.726563
1812.936523	41146.203125
1811.934570	41303.777344
1810.931641	41042.031250
1809.928711	41383.718750
1808.925781	41669.566406
1807.921875	41705.820313
1806.918945	40950.132813
1805.915039	41746.808594
1804.912109	41574.824219
1803.908203	41381.113281
1802.903320	41460.941406
1801.899414	41560.093750
1800.894531	41680.984375
1799.890625	41917.933594
1798.885742	41598.570313
1797.880859	41716.968750
1796.875000	41956.199219
1795.870117	41972.968750
1794.864258	42170.984375
1793.858398	41571.562500
1792.852539	42214.085938
1791.846680	42223.546875
1790.840820	42397.218750
1789.833984	42220.718750
1788.828125	42085.324219
1787.821289	42454.433594
1786.814453	42451.765625
1785.806641	42434.625000
1784.799805	42224.492188
1783.791992	42848.980469
1782.784180	42038.367188
1781.776367	42624.085938
1780.768555	42766.027344
1779.760742	42724.734375
1778.751953	42977.457031
1777.743164	43319.238281
1776.735352	43265.816406
1775.725586	43067.898438
1774.716797	43375.765625
1773.708008	43023.796875
1772.698242	43362.851563
1771.688477	43181.898438
1770.678711	43236.839844
1769.668945	43472.214844
1768.659180	43832.593750
1767.648438	43276.468750
1766.637695	44379.824219
1765.626953	43696.363281
1764.616211	44044.421875
1763.605469	44118.359375
1762.593750	44091.339844
1761.583008	44266.148438
1760.571289	44174.250000
1759.559570	44070.375000
1758.547852	44566.871094
1757.535156	44350.113281
1756.523438	44668.746094
1755.510742	44300.835938
1754.498047	44700.949219
1753.485352	44558.687500
1752.472656	44817.082031
1751.458984	44761.191406
1750.445313	45053.023438
1749.432617	45284.812500
1748.417969	45734.652344
1747.404297	45309.542969
1746.390625	45737.652344
1745.375977	45339.039063
1744.361328	45599.308594
1743.346680	46189.992188
1742.332031	46394.941406
1741.317383	45979.730469
1740.302734	46586.785156
1739.287109	46762.828125
1738.271484	47082.378906
1737.255859	47050.125000
1736.240234	47713.964844
1735.223633	48081.003906
1734.208008	48062.933594
1733.191406	48219.390625
1732.174805	48798.882813
1731.158203	49041.187500
1730.140625	49183.046875
1729.124023	49403.695313
1728.106445	49939.562500
1727.088867	50119.390625
1726.071289	50614.347656
1725.053711	51252.367188
1724.035156	50558.238281
1723.017578	51320.136719
1721.999023	51859.859375
1720.980469	51979.503906
1719.961914	52168.277344
1718.942383	52438.066406
1717.923828	52316.710938
1716.904297	52305.062500
1715.884766	52214.757813
1714.865234	52493.871094
1713.844727	52603.707031
1712.825195	52256.101563
1711.804688	52651.765625
1710.784180	52892.492188
1709.763672	52678.351563
1708.743164	52719.011719
1707.722656	52433.566406
1706.701172	52755.066406
1705.679688	52519.679688
1704.658203	52688.792969
1703.636719	52294.132813
1702.615234	52413.281250
1701.592773	52135.316406
1700.571289	52171.242188
1699.548828	52283.210938
1698.526367	52186.015625
1697.502930	52400.109375
1696.480469	52198.398438
1695.457031	52049.007813
1694.433594	52158.515625
1693.410156	52248.988281
1692.386719	52109.160156
1691.363281	51974.125000
1690.338867	52313.746094
1689.314453	52513.257813
1688.290039	51882.425781
1687.265625	52212.390625
1686.241211	52056.101563
1685.215820	52421.476563
1684.191406	52431.140625
1683.166016	52258.304688
1682.140625	52616.332031
1681.115234	52820.230469
1680.088867	52517.121094
1679.062500	52938.851563
1678.037109	52856.050781
1677.010742	52721.187500
1675.983398	53216.035156
1674.957031	53081.156250
1673.930664	53074.097656
1672.903320	54129.332031
1671.875977	53632.433594
1670.848633	53646.562500
1669.820313	53637.039063
1668.792969	54102.722656
1667.764648	54305.859375
1666.736328	54334.031250
1665.708008	54118.804688
1664.679688	54473.027344
1663.651367	54437.367188
1662.622070	55275.550781
1661.592773	54843.062500
1660.563477	55232.308594
1659.534180	55335.796875
1658.504883	55625.691406
1657.474609	55788.058594
1656.444336	55686.140625
1655.415039	56126.769531
1654.383789	56371.500000
1653.353516	56524.179688
1652.323242	56903.125000
1651.291992	56940.156250
1650.260742	57474.425781
1649.229492	57018.878906
1648.198242	57204.281250
1647.166016	57344.859375
1646.134766	57440.640625
1645.102539	57844.835938
1644.070313	57745.093750
1643.038086	57840.746094
1642.004883	58279.945313
1640.972656	58140.175781
1639.939453	58725.015625
1638.906250	59348.558594
1637.873047	59972.101563
1636.839844	60595.644531
1635.805664	61219.777344
1634.772461	60729.406250
1633.738281	60547.058594
1632.704102	61473.761719
1631.668945	61075.218750
1630.634766	61783.058594
1629.599609	62185.371094
1628.565430	62636.839844
1627.530273	63153.875000
1626.494141	63975.839844
1625.458984	65018.093750
1624.422852	65339.683594
1623.387695	66709.726563
1622.351563	68093.359375
1621.315430	68641.687500
1620.278320	70047.914063
1619.242188	72210.796875
1618.205078	73840.882813
1617.167969	76142.906250
1616.130859	78664.343750
1615.093750	81175.507813
1614.055664	83458.593750
1613.018555	84998.570313
1611.980469	85983.132813
1610.942383	87208.437500
1609.904297	87202.265625
1608.865234	86360.734375
1607.827148	85814.273438
1606.788086	83820.093750
1605.749023	82196.132813
1604.709961	80787.875000
1603.669922	78328.062500
1602.630859	76495.570313
1601.590820	75474.679688
1600.550781	74281.234375
1599.510742	73359.218750
1598.470703	72484.234375
1597.429688	72396.585938
1596.389648	71991.414063
1595.348633	71831.507813
1594.307617	70677.320313
1593.265625	70440.687500
1592.224609	70229.796875
1591.182617	70280.265625
1590.140625	69451.375000
1589.098633	69380.695313
1588.056641	69370.656250
1587.014648	68768.492188
1585.971680	69280.656250
1584.928711	68862.820313
1583.886719	68228.437500
1582.842773	68297.804688
1581.799805	68318.226563
1580.755859	68143.031250
1579.712891	68990.023438
1578.668945	68630.859375
1577.625000	68695.429688
1576.580078	69078.773438
1575.536133	69613.210938
1574.491211	69733.382813
1573.446289	70272.156250
1572.401367	70494.484375
1571.356445	71107.328125
1570.311523	71122.531250
1569.265625	71867.515625
1568.219727	71540.984375
1567.173828	71456.195313
1566.127930	70714.046875
1565.082031	70480.781250
1564.035156	70326.554688
1562.988281	69559.460938
1561.941406	69108.320313
1560.894531	69307.179688
1559.847656	69139.335938
1558.799805	68727.953125
1557.751953	69263.101563
1556.704102	69570.781250
1555.656250	69706.757813
1554.608398	69875.140625
1553.560547	69382.843750
1552.511719	69759.796875
1551.462891	69114.765625
1550.414063	69658.421875
1549.365234	69462.992188
1548.315430	69117.101563
1547.265625	69255.257813
1546.216797	69222.046875
1545.166992	68492.140625
1544.116211	68477.585938
1543.066406	68664.335938
1542.015625	68288.867188
1540.965820	68609.726563
1539.915039	68167.328125
1538.863281	67845.312500
1537.812500	67523.414063
1536.760742	66875.734375
1535.709961	66738.984375
1534.658203	66484.453125
1533.605469	66793.671875
1532.553711	66111.921875
1531.501953	65481.218750
1530.449219	64825.343750
1529.396484	64926.863281
1528.343750	64467.496094
1527.290039	64119.054688
1526.237305	64077.593750
1525.183594	63574.789063
1524.129883	63293.570313
1523.076172	63321.449219
1522.022461	63312.425781
1520.968750	62561.152344
1519.914063	62298.746094
1518.859375	62460.421875
1517.804688	61935.476563
1516.750000	61866.808594
1515.694336	62307.136719
1514.639648	61416.371094
1513.583984	61654.023438
1512.528320	61235.562500
1511.472656	61885.109375
1510.416016	61466.750000
1509.360352	61980.285156
1508.303711	61614.960938
1507.247070	61502.738281
1506.190430	61374.457031
1505.132813	61384.160156
1504.076172	61543.257813
1503.018555	61594.285156
1501.960938	61091.546875
1500.903320	61420.605469
1499.844727	61122.492188
1498.787109	60925.531250
1497.728516	61075.339844
1496.669922	61385.792969
1495.611328	60697.699219
1494.552734	60661.582031
1493.493164	60903.097656
1492.434570	60068.636719
1491.375000	60273.468750
1490.315430	60060.871094
1489.254883	59995.078125
1488.195313	60495.523438
1487.134766	60321.953125
1486.074219	60203.437500
1485.013672	59954.371094
1483.953125	59283.894531
1482.892578	59355.718750
1481.831055	59654.214844
1480.769531	59673.281250
1479.708008	59525.238281
1478.646484	59633.574219
1477.583984	59675.511719
1476.522461	59596.175781
1475.459961	59237.796875
1474.397461	59627.402344
1473.334961	59541.250000
1472.271484	60188.996094
1471.208984	59396.457031
1470.145508	59765.175781
1469.082031	59011.835938
1468.018555	59430.750000
1466.954102	59228.218750
1465.890625	59831.917969
1464.826172	59933.066406
1463.761719	59374.410156
1462.697266	60098.722656
1461.631836	59576.746094
1460.567383	59493.039063
1459.501953	59956.871094
1458.436523	59658.714844
1457.371094	59700.457031
1456.305664	59872.144531
1455.239258	60342.402344
1454.172852	59613.609375
1453.107422	60058.671875
1452.040039	59706.125000
1450.973633	59399.261719
1449.907227	59780.343750
1448.839844	59951.781250
1447.772461	60075.347656
1446.705078	59766.351563
1445.637695	60103.839844
1444.569336	59740.332031
1443.500977	59800.128906
1442.432617	60121.500000
1441.364258	60283.546875
1440.295898	60584.246094
1439.227539	60357.375000
1438.158203	60842.066406
1437.088867	61185.675781
1436.019531	60838.378906
1434.950195	60741.117188
1433.879883	61166.320313
1432.810547	61664.046875
1431.740234	61534.890625
1430.669922	61721.339844
1429.598633	62195.992188
1428.528320	62168.921875
1427.457031	62116.902344
1426.386719	62709.187500
1425.314453	63289.917969
1424.243164	63643.652344
1423.171875	63260.355469
1422.099609	64099.097656
1421.027344	63967.441406
1419.955078	64266.402344
1418.882813	64470.089844
1417.810547	64191.179688
1416.737305	64202.285156
1415.664063	63889.550781
1414.590820	64244.843750
1413.517578	63710.367188
1412.444336	63314.136719
1411.370117	62250.488281
1410.295898	62540.203125
1409.221680	61940.800781
1408.147461	61841.449219
1407.073242	61620.019531
1405.998047	61369.273438
1404.922852	61387.613281
1403.847656	61042.074219
1402.772461	61198.300781
1401.697266	61044.949219
1400.621094	60814.851563
1399.544922	61343.667969
1398.468750	61341.656250
1397.392578	61712.148438
1396.316406	62387.226563
1395.239258	62468.523438
1394.162109	63298.910156
1393.084961	64009.429688
1392.007813	64760.289063
1390.930664	66036.335938
1389.852539	66419.023438
1388.774414	67347.132813
1387.696289	67028.460938
1386.618164	67530.195313
1385.540039	68065.546875
1384.460938	67710.859375
1383.382813	66745.921875
1382.303711	66585.265625
1381.223633	66555.250000
1380.144531	66232.601563
1379.064453	66150.890625
1377.985352	66163.718750
1376.905273	66462.281250
1375.825195	65656.226563
1374.744141	65606.156250
1373.664063	65502.128906
1372.583008	65162.070313
1371.501953	65617.875000
1370.420898	65037.433594
1369.338867	64834.703125
1368.257813	65366.707031
1367.175781	64775.382813
1366.093750	64635.683594
1365.011719	65531.187500
1363.929688	66217.578125
1362.846680	66331.328125
1361.763672	66938.773438
1360.680664	67925.195313
1359.597656	68179.914063
1358.514648	67974.710938
1357.430664	67980.382813
1356.346680	67860.492188
1355.262695	67003.085938
1354.178711	66042.875000
1353.094727	65791.171875
1352.009766	64488.714844
1350.925781	64040.238281
1349.840820	63114.847656
1348.755859	63159.437500
1347.669922	62879.355469
1346.584961	62214.339844
1345.499023	62066.578125
1344.413086	61529.500000
1343.327148	61240.957031
1342.240234	61075.546875
1341.154297	61554.320313
1340.067383	60903.664063
1338.980469	61780.253906
1337.893555	61398.027344
1336.805664	61060.636719
1335.718750	61346.796875
1334.630859	61076.558594
1333.542969	61862.960938
1332.455078	61755.750000
1331.367188	61947.789063
1330.278320	62008.035156
1329.189453	61871.828125
1328.100586	62050.343750
1327.011719	62442.996094
1325.922852	63125.515625
1324.833008	63653.886719
1323.743164	64041.566406
1322.653320	64672.140625
1321.563477	65969.039063
1320.473633	67064.867188
1319.382813	68307.375000
1318.291992	69988.367188
1317.201172	71648.695313
1316.110352	72756.054688
1315.019531	74439.765625
1313.927734	75459.382813
1312.835938	76227.085938
1311.744141	76475.929688
1310.652344	75976.984375
1309.560547	74950.929688
1308.467773	73507.046875
1307.375000	72601.906250
1306.282227	71701.539063
1305.189453	70392.406250
1304.095703	68803.671875
1303.002930	68180.054688
1301.909180	67303.343750
1300.815430	66764.632813
1299.721680	65515.320313
1298.626953	65496.800781
1297.533203	66373.117188
1296.438477	65928.195313
1295.343750	65454.578125
1294.248047	65760.078125
1293.153320	66049.929688
1292.057617	66483.875000
1290.961914	65901.804688
1289.866211	66453.148438
1288.770508	65687.257813
1287.674805	65857.140625
1286.578125	66421.476563
1285.481445	66196.710938
1284.384766	65708.367188
1283.288086	65658.804688
1282.190430	65595.968750
1281.092773	65570.796875
1279.996094	65136.042969
1278.897461	65110.957031
1277.799805	64926.531250
1276.702148	64100.453125
1275.603516	63916.269531
1274.504883	64232.062500
1273.406250	63594.539063
1272.307617	63649.347656
1271.208008	63206.703125
1270.108398	63084.726563
1269.008789	62640.128906
1267.909180	63181.171875
1266.809570	62732.296875
1265.708984	62535.382813
1264.609375	61740.066406
1263.508789	62227.875000
1262.407227	61552.105469
1261.306641	62083.914063
1260.206055	61187.726563
1259.104492	61311.218750
1258.002930	60812.574219
1256.901367	60517.023438
1255.798828	60600.867188
1254.697266	59904.183594
1253.594727	60038.804688
1252.492188	59745.800781
1251.389648	59796.660156
1250.286133	59426.687500
1249.183594	59233.070313
1248.080078	59473.394531
1246.976563	59308.460938
1245.872070	59969.183594
1244.768555	59047.003906
1243.664063	59918.800781
1242.560547	59813.308594
1241.455078	59855.250000
1240.350586	59831.183594
1239.246094	60128.207031
1238.140625	59554.398438
1237.035156	59857.953125
1235.929688	59743.777344
1234.824219	60040.589844
1233.717773	59761.628906
1232.612305	59805.695313
1231.505859	59337.980469
1230.399414	59553.390625
1229.291992	59063.929688
1228.185547	58866.605469
1227.078125	58783.480469
1225.970703	58757.441406
1224.863281	58358.425781
1223.755859	58227.171875
1222.647461	58234.136719
1221.539063	57956.027344
1220.430664	57844.644531
1219.322266	57494.367188
1218.213867	57733.761719
1217.104492	57692.589844
1215.995117	57213.265625
1214.885742	57308.003906
1213.776367	57685.222656
1212.666992	57576.199219
1211.556641	57394.968750
1210.446289	57487.410156
1209.335938	57855.550781
1208.225586	57654.671875
1207.115234	57928.578125
1206.003906	58364.238281
1204.892578	57968.738281
1203.781250	58010.667969
1202.669922	59174.019531
1201.557617	58369.867188
1200.446289	58346.132813
1199.333984	58910.132813
1198.221680	59246.742188
1197.108398	59246.882813
1195.996094	59102.898438
1194.882813	59854.097656
1193.769531	59771.171875
1192.656250	60011.273438
1191.542969	59849.789063
1190.428711	59736.355469
1189.314453	59666.585938
1188.200195	58853.160156
1187.085938	58648.382813
1185.971680	58727.085938
1184.856445	58478.808594
1183.741211	58359.195313
1182.625977	58723.335938
1181.510742	58257.335938
1180.395508	58497.207031
1179.279297	58382.023438
1178.163086	58554.281250
1177.046875	58140.886719
1175.930664	58465.480469
1174.813477	57856.394531
1173.697266	57963.343750
1172.580078	57515.542969
1171.462891	57324.542969
1170.344727	57448.917969
1169.227539	57705.867188
1168.109375	57112.789063
1166.991211	57041.523438
1165.873047	57350.550781
1164.754883	57133.707031
1163.635742	57021.199219
1162.516602	56958.683594
1161.397461	57193.660156
1160.278320	57222.312500
1159.159180	57897.777344
1158.039063	56767.410156
1156.918945	56963.187500
1155.798828	56505.906250
1154.678711	56912.046875
1153.558594	56665.289063
1152.437500	56876.109375
1151.316406	56588.257813
1150.195313	56491.238281
1149.074219	56478.765625
1147.952148	56938.617188
1146.831055	56566.468750
1145.708984	56963.324219
1144.586914	57583.066406
1143.463867	57819.375000
1142.341797	57663.792969
1141.218750	57982.230469
1140.095703	58521.265625
1138.972656	58084.386719
1137.849609	58517.210938
1136.725586	58525.992188
1135.601563	58673.152344
1134.477539	58411.664063
1133.353516	58617.144531
1132.229492	58537.289063
1131.104492	57619.109375
1129.979492	57915.347656
1128.854492	57911.250000
1127.729492	57386.710938
1126.603516	58267.945313
1125.478516	58067.335938
1124.352539	57389.804688
1123.226563	56852.785156
1122.099609	57530.652344
1120.973633	56952.816406
1119.846680	56800.062500
1118.719727	56647.367188
1117.592773	56621.921875
1116.465820	56408.953125
1115.337891	56728.382813
1114.209961	56325.847656
1113.082031	56130.277344
1111.954102	55659.062500
1110.826172	55323.695313
1109.697266	55472.917969
1108.568359	55398.191406
1107.439453	55388.062500
1106.310547	55160.582031
1105.180664	55088.097656
1104.051758	55424.375000
1102.921875	55347.562500
1101.791992	55236.367188
1100.661133	55161.765625
1099.531250	55226.914063
1098.400391	55362.960938
1097.269531	55928.730469
1096.138672	55355.597656
1095.006836	54550.679688
1093.875977	54901.511719
1092.744141	54597.285156
1091.612305	54688.199219
1090.480469	54276.792969
1089.347656	54438.550781
1088.215820	54585.226563
1087.083008	54028.175781
1085.950195	54380.781250
1084.816406	54666.773438
1083.683594	53848.417969
1082.549805	54310.191406
1081.416016	54220.941406
1080.282227	54331.019531
1079.148438	54308.218750
1078.013672	54253.285156
1076.878906	54819.496094
1075.744141	54254.832031
1074.609375	54041.500000
1073.474609	54367.679688
1072.338867	54678.753906
1071.203125	54061.023438
1070.067383	54256.507813
1068.931641	54317.156250
1067.794922	54001.375000
1066.659180	54096.257813
1065.522461	54000.828125
1064.385742	54119.183594
1063.248047	54207.570313
1062.111328	53964.734375
1060.973633	53681.398438
1059.835938	54308.062500
1058.698242	53537.859375
1057.559570	53837.640625
1056.421875	53475.535156
1055.283203	53730.394531
1054.144531	54032.101563
1053.005859	53945.386719
1051.866211	53624.046875
1050.726563	54279.648438
1049.587891	53922.113281
1048.447266	54091.312500
1047.307617	54339.316406
1046.167969	54250.492188
1045.027344	54621.964844
1043.886719	54648.160156
1042.746094	54359.097656
1041.604492	54368.292969
1040.463867	54726.679688
1039.322266	54382.402344
1038.180664	54712.984375
1037.038086	54702.945313
1035.896484	54533.328125
1034.753906	54538.207031
1033.611328	54281.472656
1032.468750	54360.824219
1031.326172	54104.214844
1030.182617	54240.957031
1029.040039	54452.039063
1027.896484	54484.542969
1026.751953	54283.324219
1025.608398	54383.816406
1024.463867	54269.761719
1023.319336	54376.585938
1022.174805	54071.496094
1021.030273	54307.792969
1019.885742	54416.664063
1018.740234	54604.000000
1017.594727	54163.312500
1016.449219	54259.414063
1015.303711	54277.015625
1014.157227	54483.312500
1013.010742	54329.148438
1011.864258	54467.531250
1010.717773	54446.925781
1009.571289	54500.484375
1008.423828	54390.902344
1007.276367	54109.808594
1006.128906	54279.855469
1004.981445	54828.816406
1003.833008	55174.359375
1002.684570	55337.761719
1001.536133	56110.515625
1000.387695	55971.144531
999.239258	56804.835938
998.089844	56610.394531
996.941406	56843.148438
995.791992	57297.792969
994.641602	56431.210938
993.492188	56494.796875
992.341797	55749.113281
991.191406	56397.964844
990.041016	56374.914063
988.890625	56425.785156
987.739258	56067.027344
986.588867	55963.828125
985.437500	55961.972656
984.285156	55837.726563
983.133789	55802.132813
981.981445	55933.191406
980.829102	55825.882813
979.676758	55539.375000
978.524414	55092.746094
977.372070	55177.457031
976.218750	55329.574219
975.065430	55327.816406
973.912109	55170.160156
972.757813	55315.867188
971.604492	55552.074219
970.450195	55346.031250
969.295898	55613.714844
968.141602	55738.179688
966.986328	54884.058594
965.832031	55395.738281
964.676758	55814.667969
963.521484	55451.046875
962.365234	55865.597656
961.209961	56103.394531
960.053711	55807.175781
958.897461	55841.027344
957.741211	56307.726563
956.584961	56143.984375
955.427734	56314.281250
954.270508	55997.285156
953.113281	55869.378906
951.956055	55829.691406
950.797852	55863.476563
949.639648	55196.328125
948.481445	55628.867188
947.323242	55092.062500
946.165039	55239.210938
945.005859	54920.761719
943.847656	54287.937500
942.687500	55005.320313
941.528320	55009.847656
940.369141	54813.203125
939.208984	54970.699219
938.048828	54654.734375
936.888672	54986.023438
935.728516	55143.390625
934.567383	55049.476563
933.406250	54649.992188
932.245117	54886.855469
931.083984	55159.195313
929.922852	55190.855469
928.760742	54919.218750
927.598633	54934.179688
926.436523	55361.023438
925.274414	54999.609375
924.111328	55194.281250
922.948242	55731.585938
921.785156	55823.671875
920.622070	56066.121094
919.458984	55278.839844
918.294922	55995.300781
917.130859	56279.332031
915.966797	56037.242188
914.802734	56463.070313
913.637695	55943.511719
912.472656	56922.039063
911.307617	56187.746094
910.142578	56596.535156
908.977539	57182.402344
907.811523	57290.664063
906.645508	57069.566406
905.479492	56786.031250
904.313477	56979.718750
903.146484	56558.816406
901.980469	56856.605469
900.813477	56639.945313
899.646484	56340.082031
898.478516	56548.234375
897.311523	56439.964844
896.143555	56585.589844
894.975586	56504.394531
893.806641	56658.269531
892.638672	56666.507813
891.469727	56396.121094
890.300781	56371.140625
889.131836	55945.011719
887.962891	56553.945313
886.792969	56819.824219
885.623047	56647.277344
884.453125	56265.023438
883.283203	56620.089844
882.112305	56860.835938
880.942383	56408.167969
879.771484	57095.074219
878.600586	57244.285156
877.428711	57320.828125
876.257813	57463.718750
875.085938	57612.769531
873.914063	57583.445313
872.741211	57927.292969
871.569336	58196.386719
870.396484	57694.464844
869.223633	57658.917969
868.050781	57983.843750
866.877930	58405.988281
865.704102	58422.093750
864.530273	58827.433594
863.356445	58980.074219
862.182617	59385.152344
861.007813	59543.835938
859.833984	59793.488281
858.659180	59635.546875
857.484375	59740.316406
856.308594	59584.503906
855.133789	59647.890625
853.958008	59196.570313
852.782227	58937.605469
851.605469	58422.523438
850.429688	58758.761719
849.252930	58675.578125
848.076172	58730.785156
846.899414	58998.632813
845.722656	58975.308594
844.544922	58962.312500
843.367188	58879.160156
842.189453	58973.464844
841.011719	59222.437500
839.833008	59477.507813
838.655273	60136.632813
837.476563	60141.972656
836.296875	60559.558594
835.118164	60461.769531
833.938477	60928.589844
832.758789	60466.125000
831.579102	59946.156250
830.399414	60079.187500
829.219727	58937.671875
828.039063	58893.800781
826.858398	58347.742188
825.677734	57976.796875
824.496094	57278.855469
823.315430	57144.804688
822.133789	57165.046875
820.952148	56508.761719
819.769531	56146.714844
818.587891	56958.500000
817.405273	56058.050781
816.222656	56446.265625
815.040039	55944.789063
813.856445	56404.765625
812.673828	55827.496094
811.490234	56077.886719
810.305664	55950.460938
809.122070	56013.957031
807.938477	56654.066406
806.753906	56516.335938
805.569336	56688.406250
804.383789	57135.234375
803.199219	57262.007813
802.013672	56357.488281
800.828125	56607.339844
799.642578	55727.867188
798.457031	55828.160156
797.270508	55002.417969
796.083984	54779.175781
794.897461	54754.656250
793.710938	54449.636719
792.523438	54109.925781
791.336914	54615.648438
790.149414	53492.265625
788.961914	54049.062500
787.773438	54419.496094
786.585938	53415.394531
785.397461	53372.742188
784.208984	53614.289063
783.019531	53520.507813
781.831055	53784.410156
780.641602	53437.257813
779.452148	53010.554688
778.262695	53425.546875
777.072266	53190.964844
775.882813	53174.945313
774.692383	53559.046875
773.501953	53330.687500
772.310547	53269.746094
771.120117	53380.210938
769.928711	53141.804688
768.737305	53103.359375
767.544922	53248.453125
766.353516	53360.867188
765.161133	53326.472656
763.968750	53648.742188
762.776367	53457.402344
761.583984	53879.347656
760.390625	54421.308594
759.197266	54808.292969
758.003906	54855.097656
756.810547	54397.015625
755.616211	54783.781250
754.421875	54244.480469
753.227539	54610.777344
752.033203	54057.468750
750.838867	54269.085938
749.643555	53913.285156
748.448242	53681.632813
747.252930	53543.570313
746.057617	53488.878906
744.861328	53501.261719
743.665039	53332.828125
742.468750	52861.808594
741.272461	52835.707031
740.075195	52639.058594
738.878906	52602.855469
737.681641	52714.828125
736.484375	52548.746094
735.286133	53372.835938
734.087891	52326.296875
732.890625	52665.382813
731.691406	52343.281250
730.493164	52520.042969
729.294922	52242.679688
728.095703	52405.199219
726.896484	52750.023438
725.696289	52318.792969
724.497070	52171.296875
723.296875	52596.968750
722.096680	52180.179688
720.896484	52397.171875
719.696289	52251.789063
718.495117	52116.570313
717.293945	52145.285156
716.092773	52034.410156
714.891602	52255.261719
713.689453	52251.574219
712.487305	52575.406250
711.285156	52601.976563
710.083008	52796.277344
708.880859	52935.941406
707.677734	53113.941406
706.474609	52861.640625
705.271484	52934.566406
704.068359	53217.449219
702.864258	53118.687500
701.660156	53034.085938
700.456055	52572.152344
699.251953	53274.542969
698.046875	52972.093750
696.841797	53161.863281
695.636719	53595.550781
694.431641	53783.113281
693.226563	53704.531250
692.020508	53162.445313
690.814453	53265.347656
689.608398	53078.109375
688.402344	52832.527344
687.195313	52969.660156
685.988281	52772.507813
684.781250	52931.738281
683.574219	52716.546875
682.366211	52863.652344
681.158203	52688.785156
679.950195	52942.449219
678.742188	53067.296875
677.534180	52456.140625
676.325195	52615.207031
675.116211	53280.746094
673.907227	52842.714844
672.697266	52957.406250
671.488281	52718.480469
670.278320	53343.324219
669.068359	52889.531250
667.858398	52725.035156
666.647461	53072.492188
665.436523	52416.289063
664.225586	52251.964844
663.014648	52555.167969
661.802734	52709.816406
660.591797	52663.847656
659.379883	52613.886719
658.167969	52768.429688
656.955078	52375.703125
655.743164	52287.738281
654.530273	52648.628906
653.317383	52202.050781
652.103516	52454.656250
650.890625	52921.441406
649.676758	53079.710938
648.462891	53217.902344
647.249023	53514.152344
646.034180	54456.628906
644.819336	55068.636719
643.604492	55422.375000
642.389648	56217.960938
641.174805	55981.476563
639.958984	56290.855469
638.743164	55542.746094
637.527344	55038.722656
636.311523	54363.054688
635.094727	54107.152344
633.877930	53681.570313
632.661133	53653.535156
631.444336	53038.519531
630.226563	52759.089844
629.008789	52104.550781
627.791016	52428.019531
626.573242	53018.699219
625.355469	52163.007813
624.136719	52250.949219
622.917969	51942.058594
621.699219	51589.421875
620.480469	52151.789063
619.260742	52112.113281
618.041016	52454.996094
616.821289	52208.101563
615.601563	51885.609375
614.380859	51897.777344
613.160156	52262.335938
611.939453	52246.554688
610.718750	51605.855469
609.497070	51566.324219
608.276367	51980.394531
607.054688	51827.425781
605.832031	51835.593750
604.610352	51308.894531
603.387695	51414.562500
602.165039	51557.953125
600.942383	51144.867188
599.719727	51594.222656
598.496094	51562.683594
597.272461	51562.929688
596.048828	51179.929688
594.825195	51378.777344
593.600586	51255.980469
592.375977	51835.777344
591.151367	51262.519531
589.926758	51387.789063
588.701172	51300.777344
587.476563	51332.781250
586.250977	51255.722656
585.024414	51886.390625
583.798828	51688.351563
582.572266	52176.023438
581.345703	51405.414063
580.119141	51972.187500
578.892578	51956.472656
577.665039	52267.488281
576.437500	52105.218750
575.209961	51919.253906
573.982422	52172.699219
572.753906	51666.250000
571.525391	52056.144531
570.296875	52329.191406
569.068359	51856.605469
567.838867	51987.230469
566.610352	51862.796875
565.380859	52240.414063
564.150391	52566.511719
562.920898	51942.191406
561.690430	51861.304688
560.459961	51804.148438
559.229492	52021.472656
557.999023	52408.492188
556.767578	51928.863281
555.536133	51907.246094
554.304688	52341.414063
553.073242	51733.835938
551.840820	52059.390625
550.608398	51899.718750
549.375977	52008.242188
548.143555	51850.609375
546.910156	51797.484375
545.676758	52059.652344
544.443359	51490.343750
543.209961	51994.742188
541.975586	52548.183594
540.742188	52282.316406
539.507813	51841.339844
538.272461	51908.335938
537.038086	52290.160156
535.802734	52181.933594
534.567383	52022.597656
533.332031	52394.343750
532.096680	52653.863281
530.860352	52219.281250
529.624023	52779.476563
528.387695	53190.093750
527.151367	53079.855469
525.914063	53421.500000
524.676758	53336.792969
523.439453	53391.539063
522.202148	53098.738281
520.963867	52662.746094
519.725586	52503.648438
518.487305	52034.566406
517.249023	51797.167969
516.009766	52189.519531
514.771484	52297.347656
513.532227	52226.695313
512.291992	52032.558594
511.052734	51961.976563
509.812500	52375.472656
508.572266	52195.125000
507.332031	52310.652344
506.090820	52218.515625
504.850586	52191.039063
503.609375	52576.675781
502.368164	52359.257813
501.125977	52210.417969
499.884766	52159.468750
498.642578	52331.566406
497.400391	52466.429688
496.157227	52587.550781
494.915039	53054.710938
493.671875	53052.511719
492.428711	52811.855469
491.184570	52747.164063
489.941406	53124.054688
488.697266	52860.074219
487.453125	52904.773438
486.208984	52918.210938
484.963867	53365.058594
483.718750	53034.851563
482.473633	53563.472656
481.228516	53520.179688
479.982422	53625.164063
478.737305	53851.039063
477.491211	53903.265625
476.244141	54128.996094
474.998047	54148.003906
473.750977	54537.316406
472.503906	54219.121094
471.256836	54312.128906
470.009766	54296.015625
468.761719	54229.269531
467.513672	54145.019531
466.265625	54261.324219
465.017578	54618.937500
463.768555	54336.156250
462.519531	54944.609375
461.270508	54484.843750
460.021484	54919.933594
458.771484	55160.394531
457.521484	55501.863281
456.271484	55112.308594
455.021484	55391.460938
453.770508	55336.285156
452.519531	55720.195313
451.268555	56030.140625
450.017578	55889.421875
448.765625	56284.644531
447.514648	56897.144531
446.262695	56655.402344
445.009766	57329.691406
443.757813	57955.214844
442.504883	57575.675781
441.251953	57702.472656
439.999023	57259.132813
438.745117	57102.882813
437.492188	56318.667969
436.238281	56083.191406
434.983398	55659.859375
433.729492	55461.402344
432.474609	55503.187500
431.219727	54696.765625
429.964844	54821.933594
428.709961	54755.406250
427.454102	54596.003906
426.198242	54645.640625
424.942383	54215.460938
423.685547	54731.316406
422.429688	54202.644531
421.172852	54240.707031
419.916016	54238.160156
418.658203	54104.171875
417.401367	54074.589844
416.143555	53635.406250
414.885742	54332.253906
413.626953	54039.968750
412.369141	54039.375000
411.110352	54114.074219
409.851563	53852.875000
408.591797	54545.144531
407.333008	53911.554688
406.073242	54269.800781
404.813477	54489.031250
403.553711	54424.695313
402.292969	53945.843750
401.032227	54280.667969
