#Wave		#Intensity
2001.221680	31541.976563
2000.251953	31526.937500
1999.282227	31386.107422
1998.312500	31596.113281
1997.342773	31765.960938
1996.372070	31597.605469
1995.402344	31684.748047
1994.431641	31378.750000
1993.460938	31375.773438
1992.490234	31723.220703
1991.518555	31740.203125
1990.547852	31732.158203
1989.576172	31766.644531
1988.604492	32188.812500
1987.632813	31680.523438
1986.661133	31612.480469
1985.689453	31569.458984
1984.716797	31563.943359
1983.745117	31588.417969
1982.772461	31350.525391
1981.799805	31669.816406
1980.827148	31926.548828
1979.853516	31376.550781
1978.880859	31578.310547
1977.907227	32159.460938
1976.933594	31914.222656
1975.959961	31936.095703
1974.986328	31688.484375
1974.011719	31974.828125
1973.038086	32168.781250
1972.063477	31602.042969
1971.088867	32244.804688
1970.114258	32024.773438
1969.138672	32049.083984
1968.164063	32479.599609
1967.188477	32047.845703
1966.212891	31945.083984
1965.237305	32076.490234
1964.261719	32125.669922
1963.286133	32095.152344
1962.309570	31823.164063
1961.333984	32034.146484
1960.357422	31782.169922
1959.380859	32008.011719
1958.404297	31723.785156
1957.426758	31820.214844
1956.450195	31742.529297
1955.472656	31930.917969
1954.495117	31562.375000
1953.517578	32093.736328
1952.540039	31588.607422
1951.561523	31863.851563
1950.583008	31560.164063
1949.605469	31884.990234
1948.626953	31934.044922
1947.647461	31764.580078
1946.668945	31910.455078
1945.690430	31790.693359
1944.710938	31737.976563
1943.731445	31737.382813
1942.751953	31498.632813
1941.772461	31691.546875
1940.791992	31809.994141
1939.812500	31663.093750
1938.832031	32034.367188
1937.851563	31994.056641
1936.871094	31792.675781
1935.890625	32243.015625
1934.909180	31625.470703
1933.928711	32206.953125
1932.947266	31916.521484
1931.965820	31883.693359
1930.984375	32323.714844
1930.002930	31818.072266
1929.020508	32359.410156
1928.038086	31794.552734
1927.056641	31573.757813
1926.074219	32023.333984
1925.090820	31829.775391
1924.108398	31562.107422
1923.125000	31680.183594
1922.142578	31855.064453
1921.159180	31765.458984
1920.175781	31942.732422
1919.191406	31764.207031
1918.208008	31859.906250
1917.223633	31844.443359
1916.240234	32051.203125
1915.255859	31976.462891
1914.271484	31706.755859
1913.286133	31479.097656
1912.301758	32075.611328
1911.316406	31909.638672
1910.331055	31938.572266
1909.345703	32009.419922
1908.360352	32181.332031
1907.375000	31906.982422
1906.388672	31965.468750
1905.402344	32243.259766
1904.416016	32380.511719
1903.429688	31640.718750
1902.443359	32376.541016
1901.457031	31974.382813
1900.469727	31956.460938
1899.482422	32108.406250
1898.495117	32068.314453
1897.507813	32097.138672
1896.520508	31850.384766
1895.532227	32029.294922
1894.543945	31802.312500
1893.556641	32347.580078
1892.568359	31842.783203
1891.579102	31743.779297
1890.590820	32146.210938
1889.601563	32278.183594
1888.613281	32080.873047
1887.624023	32166.132813
1886.634766	32096.626953
1885.644531	32481.445313
1884.655273	32478.197266
1883.665039	32200.009766
1882.674805	32272.896484
1881.684570	32142.076172
1880.694336	32391.599609
1879.704102	32447.238281
1878.712891	32242.873047
1877.722656	32254.375000
1876.731445	32319.812500
1875.740234	32441.605469
1874.748047	32384.437500
1873.756836	32555.185547
1872.764648	32206.453125
1871.773438	32516.800781
1870.781250	32207.382813
1869.788086	31942.150391
1868.795898	32470.281250
1867.803711	32427.857422
1866.810547	32588.587891
1865.817383	32279.423828
1864.824219	32501.289063
1863.831055	32612.994141
1862.837891	32763.791016
1861.843750	32635.763672
1860.849609	32473.550781
1859.855469	32541.177734
1858.861328	32513.458984
1857.867188	32544.398438
1856.872070	32690.154297
1855.877930	32408.371094
1854.882813	32961.972656
1853.887695	32755.937500
1852.892578	33018.742188
1851.896484	32912.851563
1850.901367	32799.671875
1849.905273	32801.222656
1848.909180	32714.941406
1847.913086	33162.906250
1846.916992	32713.187500
1845.919922	33204.882813
1844.923828	32818.707031
1843.926758	32929.937500
1842.929688	32965.574219
1841.932617	32540.650391
1840.935547	33209.789063
1839.937500	32804.457031
1838.939453	33139.652344
1837.942383	33053.460938
1836.943359	33381.187500
1835.945313	33241.429688
1834.947266	32931.359375
1833.948242	33429.261719
1832.949219	33226.312500
1831.951172	33388.304688
1830.951172	33163.539063
1829.952148	33357.093750
1828.953125	33555.441406
1827.953125	33272.421875
1826.953125	33555.773438
1825.953125	33229.117188
1824.953125	33281.570313
1823.952148	33363.156250
1822.952148	33507.855469
1821.951172	33458.246094
1820.950195	33479.058594
1819.949219	33669.773438
1818.948242	33387.171875
1817.946289	33475.925781
1816.945313	33472.453125
1815.943359	33852.230469
1814.941406	33640.125000
1813.939453	33680.265625
1812.936523	33751.910156
1811.934570	33668.394531
1810.931641	33771.519531
1809.928711	33746.183594
1808.925781	33512.503906
1807.921875	33855.398438
1806.918945	34052.859375
1805.915039	33843.460938
1804.912109	33890.757813
1803.908203	33749.230469
1802.903320	34002.230469
1801.899414	33771.207031
1800.894531	33823.312500
1799.890625	34201.937500
1798.885742	34009.691406
1797.880859	34068.980469
1796.875000	34026.707031
1795.870117	34260.000000
1794.864258	33963.953125
1793.858398	33970.042969
1792.852539	34572.839844
1791.846680	34042.597656
1790.840820	34493.019531
1789.833984	34530.398438
1788.828125	34396.355469
1787.821289	34095.816406
1786.814453	34459.027344
1785.806641	34281.636719
1784.799805	34666.398438
1783.791992	34732.640625
1782.784180	34695.156250
1781.776367	34447.921875
1780.768555	34649.160156
1779.760742	34888.894531
1778.751953	35034.554688
1777.743164	34756.105469
1776.735352	34868.007813
1775.725586	34777.550781
1774.716797	34723.246094
1773.708008	34719.523438
1772.698242	34918.015625
1771.688477	34885.371094
1770.678711	35131.886719
1769.668945	34868.238281
1768.659180	35309.523438
1767.648438	35055.550781
1766.637695	35186.429688
1765.626953	35148.957031
1764.616211	35512.949219
1763.605469	35458.605469
1762.593750	35264.902344
1761.583008	35501.335938
1760.571289	35701.652344
1759.559570	35548.835938
1758.547852	35631.402344
1757.535156	35968.441406
1756.523438	35815.652344
1755.510742	36171.734375
1754.498047	35726.203125
1753.485352	35832.652344
1752.472656	35979.843750
1751.458984	36285.273438
1750.445313	36293.246094
1749.432617	35924.800781
1748.417969	36417.046875
1747.404297	36667.054688
1746.390625	36190.902344
1745.375977	36498.359375
1744.361328	36575.742188
1743.346680	36830.328125
1742.332031	36996.222656
1741.317383	37178.820313
1740.302734	37325.441406
1739.287109	37428.929688
1738.271484	37719.027344
1737.255859	37525.742188
1736.240234	37952.062500
1735.223633	38698.703125
1734.208008	38330.785156
1733.191406	38682.621094
1732.174805	38967.394531
1731.158203	39173.203125
1730.140625	39266.628906
1729.124023	39426.914063
1728.106445	39732.847656
1727.088867	40358.695313
1726.071289	40693.007813
1725.053711	40575.984375
1724.035156	40521.062500
1723.017578	40879.027344
1721.999023	41329.925781
1720.980469	41305.906250
1719.961914	41150.707031
1718.942383	41448.679688
1717.923828	41305.425781
1716.904297	41624.722656
1715.884766	41841.406250
1714.865234	41926.937500
1713.844727	41952.871094
1712.825195	41490.414063
1711.804688	41952.296875
1710.784180	41797.214844
1709.763672	41739.808594
1708.743164	41403.886719
1707.722656	41834.507813
1706.701172	41746.183594
1705.679688	41831.578125
1704.658203	41833.683594
1703.636719	41647.878906
1702.615234	41640.496094
1701.592773	41618.851563
1700.571289	41625.738281
1699.548828	41169.136719
1698.526367	41135.699219
1697.502930	41404.019531
1696.480469	40935.820313
1695.457031	41410.718750
1694.433594	41507.863281
1693.410156	41360.417969
1692.386719	41547.742188
1691.363281	41426.449219
1690.338867	41393.000000
1689.314453	41395.148438
1688.290039	42108.957031
1687.265625	41660.335938
1686.241211	41873.480469
1685.215820	41759.359375
1684.191406	41612.093750
1683.166016	41979.183594
1682.140625	42087.851563
1681.115234	42155.292969
1680.088867	42222.796875
1679.062500	42290.304688
1678.037109	42357.746094
1677.010742	42425.250000
1675.983398	42492.820313
1674.957031	42691.183594
1673.930664	42747.496094
1672.903320	42645.273438
1671.875977	43023.273438
1670.848633	43171.730469
1669.820313	43327.226563
1668.792969	43499.214844
1667.764648	43843.695313
1666.736328	43881.160156
1665.708008	43918.621094
1664.679688	43956.085938
1663.651367	43993.550781
1662.622070	44031.046875
1661.592773	44068.546875
1660.563477	43893.101563
1659.534180	44187.437500
1658.504883	44323.550781
1657.474609	44497.367188
1656.444336	45003.761719
1655.415039	45094.835938
1654.383789	45105.691406
1653.353516	44887.820313
1652.323242	45747.406250
1651.291992	46050.410156
1650.260742	46235.476563
1649.229492	46074.101563
1648.198242	46588.906250
1647.166016	46790.257813
1646.134766	46760.746094
1645.102539	46260.328125
1644.070313	47191.410156
1643.038086	47272.464844
1642.004883	47144.039063
1640.972656	47933.292969
1639.939453	47880.070313
1638.906250	48421.941406
1637.873047	48255.769531
1636.839844	48950.203125
1635.805664	49369.347656
1634.772461	49621.457031
1633.738281	50216.574219
1632.704102	50078.417969
1631.668945	50713.171875
1630.634766	51413.464844
1629.599609	52155.773438
1628.565430	52526.851563
1627.530273	53332.078125
1626.494141	53838.937500
1625.458984	54474.683594
1624.422852	55839.867188
1623.387695	56700.222656
1622.351563	57593.101563
1621.315430	59116.453125
1620.278320	60604.093750
1619.242188	62410.003906
1618.205078	64304.332031
1617.167969	66144.085938
1616.130859	68261.976563
1615.093750	69472.585938
1614.055664	71546.976563
1613.018555	72679.289063
1611.980469	73829.929688
1610.942383	74046.179688
1609.904297	74138.312500
1608.865234	73383.343750
1607.827148	72761.992188
1606.788086	71142.054688
1605.749023	69316.882813
1604.709961	68013.804688
1603.669922	66722.867188
1602.630859	65182.285156
1601.590820	63289.355469
1600.550781	63439.308594
1599.510742	62150.097656
1598.470703	61660.187500
1597.429688	61406.320313
1596.389648	60811.636719
1595.348633	60357.234375
1594.307617	59956.679688
1593.265625	59488.585938
1592.224609	58826.992188
1591.182617	58653.207031
1590.140625	57940.679688
1589.098633	57904.695313
1588.056641	57595.925781
1587.014648	57287.257813
1585.971680	56423.972656
1584.928711	56749.484375
1583.886719	55900.578125
1582.842773	55774.132813
1581.799805	56078.617188
1580.755859	55716.976563
1579.712891	56144.761719
1578.668945	56002.058594
1577.625000	56615.832031
1576.580078	56214.785156
1575.536133	56311.781250
1574.491211	56727.433594
1573.446289	57068.511719
1572.401367	57642.003906
1571.356445	57624.742188
1570.311523	58139.812500
1569.265625	58050.414063
1568.219727	58074.910156
1567.173828	57355.929688
1566.127930	57269.039063
1565.082031	57263.460938
1564.035156	56556.613281
1562.988281	56785.648438
1561.941406	55900.398438
1560.894531	55980.929688
1559.847656	55922.207031
1558.799805	55863.500000
1557.751953	56034.453125
1556.704102	55864.421875
1555.656250	56141.972656
1554.608398	55867.652344
1553.560547	55377.863281
1552.511719	55945.035156
1551.462891	55835.406250
1550.414063	55899.566406
1549.365234	55261.867188
1548.315430	55536.843750
1547.265625	55927.496094
1546.216797	55801.750000
1545.166992	55706.140625
1544.116211	55851.238281
1543.066406	55790.351563
1542.015625	55618.445313
1540.965820	55409.589844
1539.915039	54830.796875
1538.863281	54238.332031
1537.812500	54203.210938
1536.760742	54015.546875
1535.709961	53860.304688
1534.658203	53850.675781
1533.605469	54298.441406
1532.553711	53240.144531
1531.501953	53020.484375
1530.449219	52787.042969
1529.396484	52680.648438
1528.343750	52391.957031
1527.290039	51777.996094
1526.237305	51962.539063
1525.183594	51713.339844
1524.129883	51923.191406
1523.076172	51879.316406
1522.022461	52040.644531
1520.968750	52238.792969
1519.914063	51505.765625
1518.859375	51782.285156
1517.804688	51660.128906
1516.750000	52067.812500
1515.694336	51777.519531
1514.639648	51887.992188
1513.583984	51802.730469
1512.528320	51885.531250
1511.472656	51733.558594
1510.416016	52196.000000
1509.360352	51830.066406
1508.303711	51547.066406
1507.247070	51512.539063
1506.190430	51597.589844
1505.132813	51563.062500
1504.076172	50912.535156
1503.018555	51075.777344
1501.960938	51363.035156
1500.903320	51080.457031
1499.844727	50726.777344
1498.787109	51137.945313
1497.728516	51112.714844
1496.669922	51512.183594
1495.611328	50791.429688
1494.552734	50447.285156
1493.493164	50197.332031
1492.434570	50555.378906
1491.375000	50287.144531
1490.315430	49645.210938
1489.254883	50390.640625
1488.195313	49620.542969
1487.134766	49840.843750
1486.074219	49953.363281
1485.013672	49687.800781
1483.953125	49765.941406
1482.892578	49621.894531
1481.831055	49400.035156
1480.769531	49480.468750
1479.708008	49112.210938
1478.646484	49682.441406
1477.583984	49845.148438
1476.522461	49721.820313
1475.459961	49728.914063
1474.397461	49639.949219
1473.334961	49770.531250
1472.271484	49514.691406
1471.208984	49608.671875
1470.145508	49163.261719
1469.082031	49714.261719
1468.018555	49058.812500
1466.954102	49084.273438
1465.890625	49310.691406
1464.826172	49386.324219
1463.761719	50194.753906
1462.697266	49567.183594
1461.631836	49170.328125
1460.567383	49697.703125
1459.501953	49168.648438
1458.436523	49837.242188
1457.371094	49333.437500
1456.305664	49495.585938
1455.239258	49276.968750
1454.172852	49147.324219
1453.107422	49124.828125
1452.040039	49245.875000
1450.973633	48961.394531
1449.907227	48836.441406
1448.839844	49203.410156
1447.772461	49328.902344
1446.705078	49247.199219
1445.637695	49543.335938
1444.569336	49705.101563
1443.500977	49796.281250
1442.432617	50021.632813
1441.364258	49730.628906
1440.295898	49860.402344
1439.227539	49855.992188
1438.158203	50606.253906
1437.088867	50297.160156
1436.019531	50801.660156
1434.950195	50354.058594
1433.879883	50635.757813
1432.810547	51087.683594
1431.740234	51062.605469
1430.669922	51373.531250
1429.598633	51831.882813
1428.528320	52081.281250
1427.457031	52432.695313
1426.386719	52709.113281
1425.314453	52828.921875
1424.243164	53814.988281
1423.171875	53857.460938
1422.099609	54450.796875
1421.027344	54647.261719
1419.955078	54995.488281
1418.882813	54915.355469
1417.810547	55322.304688
1416.737305	55158.335938
1415.664063	55272.964844
1414.590820	54595.101563
1413.517578	54908.988281
1412.444336	53953.042969
1411.370117	53219.203125
1410.295898	52729.972656
1409.221680	52168.531250
1408.147461	51491.945313
1407.073242	51439.710938
1405.998047	51206.628906
1404.922852	50148.550781
1403.847656	50211.847656
1402.772461	50105.640625
1401.697266	49997.214844
1400.621094	49929.484375
1399.544922	50704.171875
1398.468750	50256.984375
1397.392578	50703.972656
1396.316406	50834.789063
1395.239258	51216.062500
1394.162109	52298.937500
1393.084961	52957.296875
1392.007813	54283.066406
1390.930664	54920.527344
1389.852539	56488.980469
1388.774414	57445.929688
1387.696289	57762.402344
1386.618164	57296.777344
1385.540039	57572.605469
1384.460938	56591.296875
1383.382813	56254.507813
1382.303711	55958.375000
1381.223633	55040.921875
1380.144531	55139.054688
1379.064453	54748.746094
1377.985352	54288.816406
1376.905273	54162.035156
1375.825195	54107.281250
1374.744141	54045.796875
1373.664063	53244.511719
1372.583008	53450.746094
1371.501953	53268.023438
1370.420898	53862.988281
1369.338867	53716.203125
1368.257813	53389.738281
1367.175781	54067.460938
1366.093750	54688.796875
1365.011719	54919.195313
1363.929688	55845.472656
1362.846680	57204.625000
1361.763672	57153.910156
1360.680664	58130.882813
1359.597656	58596.000000
1358.514648	58968.984375
1357.430664	58987.500000
1356.346680	58645.007813
1355.262695	58652.355469
1354.178711	57514.347656
1353.094727	56143.683594
1352.009766	55559.957031
1350.925781	54429.832031
1349.840820	53828.707031
1348.755859	52988.179688
1347.669922	52371.851563
1346.584961	51717.687500
1345.499023	51168.949219
1344.413086	50944.886719
1343.327148	50944.636719
1342.240234	51172.550781
1341.154297	50161.335938
1340.067383	49928.660156
1338.980469	50205.820313
1337.893555	49841.332031
1336.805664	50075.933594
1335.718750	50169.675781
1334.630859	50363.917969
1333.542969	50216.328125
1332.455078	50213.957031
1331.367188	50024.015625
1330.278320	50657.941406
1329.189453	50575.125000
1328.100586	51764.410156
1327.011719	52245.941406
1325.922852	52111.570313
1324.833008	53016.652344
1323.743164	54244.769531
1322.653320	55349.808594
1321.563477	56891.386719
1320.473633	59116.671875
1319.382813	60509.925781
1318.291992	62965.464844
1317.201172	65571.593750
1316.110352	67842.695313
1315.019531	69883.593750
1313.927734	71082.156250
1312.835938	71763.828125
1311.744141	72489.765625
1310.652344	71884.734375
1309.560547	70214.218750
1308.467773	69011.429688
1307.375000	66350.101563
1306.282227	64476.902344
1305.189453	62755.558594
1304.095703	61034.835938
1303.002930	59272.507813
1301.909180	57999.664063
1300.815430	57151.609375
1299.721680	56066.187500
1298.626953	55025.574219
1297.533203	55017.832031
1296.438477	54832.492188
1295.343750	54687.167969
1294.248047	54925.820313
1293.153320	55033.312500
1292.057617	55140.902344
1290.961914	55248.492188
1289.866211	55356.082031
1288.770508	55463.671875
1287.674805	55557.816406
1286.578125	55585.433594
1285.481445	55615.253906
1284.384766	55157.625000
1283.288086	55606.183594
1282.190430	55410.066406
1281.092773	55227.304688
1279.996094	54761.210938
1278.897461	54388.257813
1277.799805	54201.347656
1276.702148	54005.648438
1275.603516	53991.437500
1274.504883	53492.800781
1273.406250	53326.082031
1272.307617	53088.664063
1271.208008	52599.296875
1270.108398	52996.476563
1269.008789	52341.546875
1267.909180	52285.656250
1266.809570	52318.152344
1265.708984	51913.292969
1264.609375	52312.433594
1263.508789	51430.789063
1262.407227	51637.804688
1261.306641	50893.445313
1260.206055	51104.894531
1259.104492	51060.324219
1258.002930	50929.730469
1256.901367	50631.558594
1255.798828	50404.062500
1254.697266	50454.445313
1253.594727	50678.957031
1252.492188	50511.074219
1251.389648	50270.531250
1250.286133	50849.664063
1249.183594	50646.589844
1248.080078	50756.328125
1246.976563	50755.921875
1245.872070	50685.066406
1244.768555	50803.535156
1243.664063	50924.160156
1242.560547	51176.761719
1241.455078	51534.871094
1240.350586	51807.062500
1239.246094	52028.570313
1238.140625	52480.871094
1237.035156	52581.261719
1235.929688	52631.058594
1234.824219	52806.097656
1233.717773	52414.195313
1232.612305	52578.222656
1231.505859	52291.925781
1230.399414	52240.699219
1229.291992	51759.156250
1228.185547	51571.941406
1227.078125	51507.699219
1225.970703	50921.214844
1224.863281	50832.976563
1223.755859	50512.246094
1222.647461	50450.429688
1221.539063	50193.472656
1220.430664	50030.882813
1219.322266	49368.566406
1218.213867	49751.894531
1217.104492	49365.960938
1215.995117	49959.460938
1214.885742	49194.683594
1213.776367	49295.242188
1212.666992	49522.757813
1211.556641	49688.890625
1210.446289	49320.886719
1209.335938	49329.425781
1208.225586	50281.000000
1207.115234	50225.914063
1206.003906	50391.757813
1204.892578	50605.648438
1203.781250	51086.207031
1202.669922	51090.031250
1201.557617	51113.519531
1200.446289	51805.687500
1199.333984	51800.628906
1198.221680	52112.316406
1197.108398	52495.964844
1195.996094	52530.085938
1194.882813	52854.562500
1193.769531	52513.148438
1192.656250	52975.003906
1191.542969	52583.500000
1190.428711	52251.039063
1189.314453	51986.320313
1188.200195	50951.839844
1187.085938	50423.609375
1185.971680	50643.339844
1184.856445	49705.570313
1183.741211	50618.359375
1182.625977	50208.222656
1181.510742	49955.089844
1180.395508	49386.218750
1179.279297	49510.062500
1178.163086	49884.250000
1177.046875	49846.863281
1175.930664	49424.246094
1174.813477	49902.691406
1173.697266	49961.046875
1172.580078	49943.242188
1171.462891	49255.566406
1170.344727	49311.824219
1169.227539	49518.078125
1168.109375	49356.890625
1166.991211	48932.789063
1165.873047	49143.335938
1164.754883	49286.457031
1163.635742	49538.128906
1162.516602	49361.875000
1161.397461	49745.890625
1160.278320	49168.027344
1159.159180	49486.820313
1158.039063	49655.750000
1156.918945	49225.757813
1155.798828	49505.308594
1154.678711	48962.710938
1153.558594	49357.136719
1152.437500	49404.507813
1151.316406	49469.203125
1150.195313	49700.757813
1149.074219	49245.289063
1147.952148	48965.476563
1146.831055	49526.257813
1145.708984	49885.410156
1144.586914	50101.511719
1143.463867	50341.351563
1142.341797	50589.753906
1141.218750	50604.328125
1140.095703	50724.921875
1138.972656	51167.824219
1137.849609	50877.289063
1136.725586	50874.488281
1135.601563	51148.457031
1134.477539	50711.070313
1133.353516	50630.480469
1132.229492	50508.859375
1131.104492	49618.074219
1129.979492	49855.289063
1128.854492	50014.656250
1127.729492	50199.875000
1126.603516	49609.906250
1125.478516	49790.812500
1124.352539	49792.507813
1123.226563	49615.093750
1122.099609	49025.652344
1120.973633	49094.351563
1119.846680	49335.566406
1118.719727	48755.117188
1117.592773	48925.152344
1116.465820	48605.812500
1115.337891	48390.031250
1114.209961	48443.675781
1113.082031	48053.496094
1111.954102	48003.785156
1110.826172	48550.640625
1109.697266	48367.355469
1108.568359	47867.671875
1107.439453	47647.984375
1106.310547	47686.617188
1105.180664	47363.757813
1104.051758	47559.464844
1102.921875	47770.152344
1101.791992	47656.046875
1100.661133	47477.476563
1099.531250	47636.464844
1098.400391	47902.855469
1097.269531	47999.390625
1096.138672	47741.382813
1095.006836	47676.800781
1093.875977	47502.703125
1092.744141	47549.843750
1091.612305	47369.386719
1090.480469	47081.671875
1089.347656	47090.226563
1088.215820	47210.351563
1087.083008	47066.554688
1085.950195	47006.460938
1084.816406	46607.546875
1083.683594	47128.625000
1082.549805	47463.000000
1081.416016	47385.718750
1080.282227	47456.335938
1079.148438	47430.503906
1078.013672	47798.847656
1076.878906	47762.250000
1075.744141	48301.703125
1074.609375	47965.281250
1073.474609	47761.699219
1072.338867	47630.957031
1071.203125	47735.644531
1070.067383	47600.671875
1068.931641	47020.820313
1067.794922	47318.035156
1066.659180	47114.785156
1065.522461	47046.289063
1064.385742	47565.628906
1063.248047	46954.250000
1062.111328	47082.394531
1060.973633	46902.859375
1059.835938	46691.351563
1058.698242	46887.804688
1057.559570	46723.343750
1056.421875	46582.421875
1055.283203	46699.808594
1054.144531	46996.406250
1053.005859	47164.875000
1051.866211	47356.746094
1050.726563	47290.476563
1049.587891	47659.238281
1048.447266	47288.054688
1047.307617	46936.191406
1046.167969	47445.472656
1045.027344	48252.882813
1043.886719	47411.023438
1042.746094	47608.941406
1041.604492	48383.925781
1040.463867	48208.964844
1039.322266	47552.937500
1038.180664	47854.972656
1037.038086	47390.773438
1035.896484	47448.035156
1034.753906	47677.589844
1033.611328	47483.792969
1032.468750	47298.574219
1031.326172	47247.371094
1030.182617	47119.652344
1029.040039	47102.500000
1027.896484	47044.980469
1026.751953	47049.089844
1025.608398	47367.578125
1024.463867	46982.964844
1023.319336	47311.960938
1022.174805	46719.437500
1021.030273	46787.273438
1019.885742	46959.070313
1018.740234	47048.050781
1017.594727	46950.304688
1016.449219	47283.171875
1015.303711	47013.640625
1014.157227	47151.304688
1013.010742	47119.320313
1011.864258	47354.410156
1010.717773	46805.328125
1009.571289	47264.968750
1008.423828	47076.222656
1007.276367	47368.320313
1006.128906	47162.679688
1004.981445	47526.632813
1003.833008	47949.722656
1002.684570	48131.386719
1001.536133	48173.320313
1000.387695	48469.113281
999.239258	48661.152344
998.089844	48728.335938
996.941406	48871.617188
995.791992	49055.011719
994.641602	48234.332031
993.492188	48605.855469
992.341797	48214.476563
991.191406	48302.785156
990.041016	48194.628906
988.890625	48301.906250
987.739258	48683.621094
986.588867	48013.929688
985.437500	48184.496094
984.285156	47819.003906
983.133789	47989.539063
981.981445	48501.730469
980.829102	48056.234375
979.676758	47752.183594
978.524414	47884.644531
977.372070	47835.781250
976.218750	47622.546875
975.065430	47375.679688
973.912109	47491.253906
972.757813	47354.023438
971.604492	47345.304688
970.450195	47589.246094
969.295898	47498.382813
968.141602	47754.835938
966.986328	47581.898438
965.832031	47463.726563
964.676758	47762.105469
963.521484	47875.292969
962.365234	48192.410156
961.209961	48505.203125
960.053711	48340.714844
958.897461	48907.660156
957.741211	48888.144531
956.584961	49381.246094
955.427734	48897.429688
954.270508	49003.925781
953.113281	48656.835938
951.956055	48368.656250
950.797852	48298.871094
949.639648	48472.539063
948.481445	48436.328125
947.323242	47980.570313
946.165039	48458.316406
945.005859	48269.039063
943.847656	47780.011719
942.687500	47863.433594
941.528320	48112.394531
940.369141	48300.496094
939.208984	47738.484375
938.048828	48439.777344
936.888672	48372.203125
935.728516	48313.023438
934.567383	47916.804688
933.406250	48414.507813
932.245117	48742.507813
931.083984	48059.769531
929.922852	48611.550781
928.760742	47887.250000
927.598633	48252.742188
926.436523	48118.382813
925.274414	48132.496094
924.111328	48575.062500
922.948242	48384.292969
921.785156	48375.359375
920.622070	48404.031250
919.458984	48722.988281
918.294922	48954.125000
917.130859	49053.648438
915.966797	49029.976563
914.802734	49129.445313
913.637695	48986.828125
912.472656	49434.656250
911.307617	49110.566406
910.142578	49186.996094
908.977539	49296.757813
907.811523	49623.281250
906.645508	49693.312500
905.479492	49925.863281
904.313477	49941.636719
903.146484	49509.535156
901.980469	49527.460938
900.813477	49938.941406
899.646484	49461.265625
898.478516	49558.285156
897.311523	49698.968750
896.143555	49483.781250
894.975586	49391.414063
893.806641	49642.285156
892.638672	49194.300781
891.469727	49407.683594
890.300781	49766.511719
889.131836	49591.027344
887.962891	49845.773438
886.792969	49416.851563
885.623047	50035.070313
884.453125	49602.113281
883.283203	49939.726563
882.112305	50148.488281
880.942383	50135.058594
879.771484	50113.328125
878.600586	51164.402344
877.428711	50526.312500
876.257813	50948.410156
875.085938	51254.210938
873.914063	51176.300781
872.741211	51786.691406
871.569336	51656.886719
870.396484	51239.066406
869.223633	51573.531250
868.050781	51566.050781
866.877930	51591.714844
865.704102	52590.652344
864.530273	52220.656250
863.356445	53185.980469
862.182617	53337.566406
861.007813	53743.613281
859.833984	54223.992188
858.659180	53885.050781
857.484375	54121.175781
856.308594	53546.652344
855.133789	53470.574219
853.958008	52898.445313
852.782227	52940.308594
851.605469	52728.007813
850.429688	52980.597656
849.252930	52408.972656
848.076172	52244.378906
846.899414	52459.746094
845.722656	52330.292969
844.544922	52231.843750
843.367188	52275.812500
842.189453	52105.191406
841.011719	52338.937500
839.833008	52269.425781
838.655273	52496.863281
837.476563	52682.984375
836.296875	52700.007813
835.118164	53238.425781
833.938477	52812.332031
832.758789	52477.039063
831.579102	52833.933594
830.399414	52270.171875
829.219727	51994.867188
828.039063	51394.406250
826.858398	51817.093750
825.677734	51107.820313
824.496094	50592.207031
823.315430	51072.394531
822.133789	50318.402344
820.952148	50884.824219
819.769531	50069.464844
818.587891	49698.398438
817.405273	50015.937500
816.222656	49813.503906
815.040039	50270.601563
813.856445	49640.960938
812.673828	49976.750000
811.490234	50063.968750
810.305664	49744.691406
809.122070	50689.851563
807.938477	50551.152344
806.753906	51557.359375
805.569336	51976.507813
804.383789	52180.152344
803.199219	52459.585938
802.013672	52080.804688
800.828125	51923.542969
799.642578	51169.953125
798.457031	50019.128906
797.270508	49995.492188
796.083984	49465.937500
794.897461	48713.355469
793.710938	48997.097656
792.523438	48975.707031
791.336914	48544.968750
790.149414	48544.128906
788.961914	48539.195313
787.773438	48231.511719
786.585938	48132.550781
785.397461	48152.230469
784.208984	48353.855469
783.019531	47768.429688
781.831055	47518.386719
780.641602	47918.210938
779.452148	47756.078125
778.262695	47653.234375
777.072266	47644.371094
775.882813	47547.707031
774.692383	47761.375000
773.501953	47458.578125
772.310547	48019.093750
771.120117	47757.160156
769.928711	48095.058594
768.737305	48304.335938
767.544922	48181.152344
766.353516	48500.425781
765.161133	48112.253906
763.968750	48282.644531
762.776367	49522.726563
761.583984	49258.847656
760.390625	49166.164063
759.197266	49440.082031
758.003906	49027.722656
756.810547	49171.273438
755.616211	48968.753906
754.421875	49403.257813
753.227539	49198.734375
752.033203	48457.250000
750.838867	48584.488281
749.643555	48394.457031
748.448242	48367.144531
747.252930	47784.906250
746.057617	47902.007813
744.861328	47789.449219
743.665039	47540.816406
742.468750	47552.269531
741.272461	47175.828125
740.075195	47104.089844
738.878906	47127.789063
737.681641	47023.609375
736.484375	46994.550781
735.286133	47458.527344
734.087891	47216.394531
732.890625	46781.675781
731.691406	46890.562500
730.493164	47331.902344
729.294922	46862.937500
728.095703	47218.992188
726.896484	46715.773438
725.696289	46591.582031
724.497070	46556.558594
723.296875	46936.699219
722.096680	46691.046875
720.896484	46779.503906
719.696289	46865.902344
718.495117	46919.890625
717.293945	47058.828125
716.092773	47149.167969
714.891602	46954.296875
713.689453	47167.964844
712.487305	47324.941406
711.285156	47724.421875
710.083008	48042.914063
708.880859	48031.921875
707.677734	48422.960938
706.474609	48490.671875
705.271484	49079.382813
704.068359	48710.816406
702.864258	48746.128906
701.660156	48789.500000
700.456055	48879.269531
699.251953	48468.636719
698.046875	48550.355469
696.841797	48997.089844
695.636719	48885.097656
694.431641	49652.156250
693.226563	49185.308594
692.020508	49159.996094
690.814453	48487.886719
689.608398	48414.359375
688.402344	47857.445313
687.195313	47453.789063
685.988281	47710.695313
684.781250	47657.488281
683.574219	47527.816406
682.366211	47736.257813
681.158203	47353.113281
679.950195	47181.320313
678.742188	47405.792969
677.534180	47626.160156
676.325195	47343.832031
675.116211	47552.066406
673.907227	47645.664063
672.697266	47590.535156
671.488281	47459.089844
670.278320	47420.082031
669.068359	47603.992188
667.858398	47538.867188
666.647461	47485.808594
665.436523	47597.343750
664.225586	47612.515625
663.014648	47441.093750
661.802734	47187.492188
660.591797	47605.839844
659.379883	47649.062500
658.167969	47026.671875
656.955078	47482.894531
655.743164	47860.789063
654.530273	47909.933594
653.317383	47858.890625
652.103516	48597.019531
650.890625	48523.835938
649.676758	49391.703125
648.462891	49896.914063
647.249023	50672.125000
646.034180	51917.292969
644.819336	53123.976563
643.604492	54394.218750
642.389648	55415.988281
641.174805	56371.386719
639.958984	55299.261719
638.743164	55073.027344
637.527344	54321.289063
636.311523	53234.156250
635.094727	52375.484375
633.877930	51516.808594
632.661133	50658.136719
631.444336	49666.335938
630.226563	49167.957031
629.008789	49274.496094
627.791016	49157.503906
626.573242	48499.890625
625.355469	48438.933594
624.136719	48693.097656
622.917969	48229.347656
621.699219	48527.308594
620.480469	48197.300781
619.260742	48556.929688
618.041016	48238.992188
616.821289	48373.371094
615.601563	48678.980469
614.380859	48132.191406
613.160156	48278.453125
611.939453	48213.656250
610.718750	48318.046875
609.497070	48468.164063
608.276367	48325.773438
607.054688	48219.238281
605.832031	47802.500000
604.610352	47715.980469
603.387695	47551.960938
602.165039	47872.972656
600.942383	47879.878906
599.719727	47986.125000
598.496094	47597.695313
597.272461	47894.617188
596.048828	48054.406250
594.825195	47725.738281
593.600586	47877.554688
592.375977	48154.343750
591.151367	47925.046875
589.926758	47699.800781
588.701172	47728.527344
587.476563	48005.125000
586.250977	47988.171875
585.024414	47951.398438
583.798828	48057.343750
582.572266	48014.621094
581.345703	48015.503906
580.119141	48656.203125
578.892578	48435.140625
577.665039	48746.816406
576.437500	48484.242188
575.209961	48380.113281
573.982422	48250.296875
572.753906	48522.191406
571.525391	48615.933594
570.296875	48804.582031
569.068359	48765.738281
567.838867	48691.316406
566.610352	48939.140625
565.380859	48242.140625
564.150391	49122.281250
562.920898	48866.082031
561.690430	48615.902344
560.459961	48695.625000
559.229492	48696.332031
557.999023	48499.621094
556.767578	48559.574219
555.536133	48585.957031
554.304688	48884.609375
553.073242	48684.054688
551.840820	48706.445313
550.608398	48849.113281
549.375977	48120.292969
548.143555	48458.160156
546.910156	48711.156250
545.676758	48475.378906
544.443359	48545.054688
543.209961	48520.152344
541.975586	48650.835938
540.742188	48671.207031
539.507813	48813.621094
538.272461	48778.835938
537.038086	48871.976563
535.802734	49348.738281
534.567383	49058.140625
533.332031	49463.878906
532.096680	49586.304688
530.860352	50139.238281
529.624023	50473.777344
528.387695	50654.894531
527.151367	50873.273438
525.914063	51207.476563
524.676758	51158.535156
523.439453	50997.679688
522.202148	50679.804688
520.963867	50256.046875
519.725586	49969.828125
518.487305	49673.906250
517.249023	49472.269531
516.009766	49513.937500
514.771484	48910.355469
513.532227	48846.222656
512.291992	49213.417969
511.052734	49025.761719
509.812500	49490.765625
508.572266	49391.296875
507.332031	49015.644531
506.090820	48892.796875
504.850586	49238.011719
503.609375	49453.871094
502.368164	48992.355469
501.125977	49247.320313
499.884766	49114.746094
498.642578	49346.109375
497.400391	49712.347656
496.157227	49237.515625
494.915039	49750.277344
493.671875	49490.656250
492.428711	49717.808594
491.184570	49890.156250
489.941406	49792.812500
488.697266	50148.699219
487.453125	50121.648438
486.208984	50270.347656
484.963867	50118.328125
483.718750	50108.859375
482.473633	50390.179688
481.228516	50622.609375
479.982422	50975.902344
478.737305	51498.750000
477.491211	51132.144531
476.244141	51742.500000
474.998047	51837.984375
473.750977	52270.613281
472.503906	52174.988281
471.256836	52017.054688
470.009766	52231.230469
468.761719	52088.921875
467.513672	51485.183594
466.265625	51837.550781
465.017578	51856.945313
463.768555	51903.570313
462.519531	51852.894531
461.270508	51391.769531
460.021484	51656.285156
458.771484	51702.906250
457.521484	52046.972656
456.271484	52177.082031
455.021484	52174.980469
453.770508	52100.984375
452.519531	51741.429688
451.268555	52685.347656
450.017578	52807.433594
448.765625	52785.785156
447.514648	53138.816406
446.262695	53053.058594
445.009766	52827.613281
443.757813	53552.941406
442.504883	53831.832031
441.251953	53616.054688
439.999023	53477.921875
438.745117	52715.574219
437.492188	52719.156250
436.238281	52211.109375
434.983398	52005.519531
433.729492	51862.000000
432.474609	51617.808594
431.219727	51172.316406
429.964844	51505.316406
428.709961	51300.042969
427.454102	51052.265625
426.198242	51253.511719
424.942383	51261.207031
423.685547	50725.359375
422.429688	51009.703125
421.172852	51067.707031
419.916016	51270.679688
418.658203	51326.675781
417.401367	50922.718750
416.143555	50725.648438
414.885742	50793.296875
413.626953	51200.843750
412.369141	50766.308594
411.110352	51162.117188
409.851563	51131.179688
408.591797	51465.003906
407.333008	51198.609375
406.073242	51036.492188
404.813477	51553.375000
403.553711	50891.777344
402.292969	50992.019531
401.032227	50866.679688
