#Wave		#Intensity
2001.248047	37868.601563
2000.278320	37507.660156
1999.308594	37263.035156
1998.338867	37602.308594
1997.369141	37510.566406
1996.398438	37564.132813
1995.428711	38151.105469
1994.458008	37698.746094
1993.487305	38080.203125
1992.516602	37670.566406
1991.545898	37789.117188
1990.574219	37992.699219
1989.603516	38176.191406
1988.631836	38354.621094
1987.660156	37540.148438
1986.688477	37858.644531
1985.715820	37752.031250
1984.744141	37910.406250
1983.771484	37746.339844
1982.798828	38234.480469
1981.826172	37960.492188
1980.853516	37739.046875
1979.880859	38516.621094
1978.907227	37740.843750
1977.933594	37724.261719
1976.959961	37909.863281
1975.986328	38167.773438
1975.012695	38143.636719
1974.039063	38321.578125
1973.064453	38145.269531
1972.089844	38056.304688
1971.115234	37987.316406
1970.140625	38317.226563
1969.166016	38639.546875
1968.190430	38433.421875
1967.215820	38501.449219
1966.240234	38591.878906
1965.264648	38560.222656
1964.289063	38707.882813
1963.312500	38489.468750
1962.336914	38418.007813
1961.360352	38329.152344
1960.383789	38198.015625
1959.407227	38519.777344
1958.430664	38679.718750
1957.454102	38769.957031
1956.476563	38890.007813
1955.499023	38826.015625
1954.521484	38928.605469
1953.543945	38740.347656
1952.566406	38813.093750
1951.587891	38396.324219
1950.610352	38998.253906
1949.631836	39177.718750
1948.653320	38932.453125
1947.674805	38540.777344
1946.696289	39023.093750
1945.716797	38668.765625
1944.737305	39346.941406
1943.758789	39091.929688
1942.779297	39008.179688
1941.798828	39318.839844
1940.819336	39056.519531
1939.838867	39332.347656
1938.859375	38819.730469
1937.878906	38988.914063
1936.898438	39329.035156
1935.916992	39034.726563
1934.936523	39733.929688
1933.955078	39444.605469
1932.974609	39556.566406
1931.993164	39207.945313
1931.010742	39223.359375
1930.029297	39921.910156
1929.047852	39298.707031
1928.065430	39088.929688
1927.083008	39641.175781
1926.100586	39658.964844
1925.118164	39392.347656
1924.135742	39790.945313
1923.152344	39324.156250
1922.168945	39309.851563
1921.185547	39905.949219
1920.202148	39204.652344
1919.218750	39973.484375
1918.235352	39393.449219
1917.250977	39230.960938
1916.266602	39483.339844
1915.282227	39915.839844
1914.297852	39817.519531
1913.313477	39874.699219
1912.328125	39603.699219
1911.343750	39599.222656
1910.358398	39858.660156
1909.373047	39920.722656
1908.387695	39896.460938
1907.401367	39778.531250
1906.416016	40143.734375
1905.429688	39796.613281
1904.443359	39671.367188
1903.457031	39748.164063
1902.470703	40187.003906
1901.483398	39657.878906
1900.497070	40071.957031
1899.509766	39700.585938
1898.522461	39961.902344
1897.535156	39979.500000
1896.546875	40043.839844
1895.559570	40029.429688
1894.571289	40125.707031
1893.583008	40017.839844
1892.594727	39732.980469
1891.606445	40198.000000
1890.618164	39642.839844
1889.628906	40078.218750
1888.639648	39867.253906
1887.650391	39975.714844
1886.661133	40091.500000
1885.671875	39907.652344
1884.682617	40020.953125
1883.692383	40362.511719
1882.702148	40181.164063
1881.711914	39815.824219
1880.721680	40127.792969
1879.731445	40358.699219
1878.740234	40263.312500
1877.749023	40408.281250
1876.757813	40594.878906
1875.766602	40401.441406
1874.775391	40301.207031
1873.784180	40602.894531
1872.791992	40240.496094
1871.799805	40311.816406
1870.807617	40405.152344
1869.815430	40018.484375
1868.823242	40755.761719
1867.830078	40540.523438
1866.837891	40366.968750
1865.844727	40665.757813
1864.851563	40668.398438
1863.858398	40800.683594
1862.864258	40698.128906
1861.871094	40764.332031
1860.876953	40698.488281
1859.882813	40806.226563
1858.888672	40718.398438
1857.894531	41004.476563
1856.899414	40870.218750
1855.905273	41034.027344
1854.910156	41124.507813
1853.915039	40714.355469
1852.919922	40870.777344
1851.923828	40704.917969
1850.928711	41119.988281
1849.932617	40959.023438
1848.936523	40800.550781
1847.940430	41276.367188
1846.944336	41198.375000
1845.947266	41174.058594
1844.951172	41500.832031
1843.954102	41647.101563
1842.957031	41705.578125
1841.959961	40916.031250
1840.962891	41763.992188
1839.964844	41366.894531
1838.966797	41478.953125
1837.969727	41605.578125
1836.970703	41663.992188
1835.972656	41756.460938
1834.974609	41873.234375
1833.975586	41766.093750
1832.976563	41800.101563
1831.978516	41714.902344
1830.978516	41928.875000
1829.979492	42018.757813
1828.980469	42052.691406
1827.980469	42251.902344
1826.980469	41906.644531
1825.980469	42028.046875
1824.980469	42144.550781
1823.979492	42105.550781
1822.979492	41894.128906
1821.978516	42369.964844
1820.977539	42622.273438
1819.976563	42340.472656
1818.975586	42393.687500
1817.973633	41789.296875
1816.972656	42512.183594
1815.970703	42172.378906
1814.968750	41987.906250
1813.966797	42739.468750
1812.963867	42477.378906
1811.961914	42096.605469
1810.958984	42670.828125
1809.956055	42539.730469
1808.953125	42512.851563
1807.950195	42447.222656
1806.946289	42512.394531
1805.943359	42449.207031
1804.939453	42402.988281
1803.935547	42891.722656
1802.930664	42494.523438
1801.926758	42651.566406
1800.922852	43074.671875
1799.917969	43088.843750
1798.913086	42703.976563
1797.908203	43141.351563
1796.903320	42879.902344
1795.897461	43130.968750
1794.891602	43002.527344
1793.886719	43132.667969
1792.880859	43028.425781
1791.874023	42950.785156
1790.868164	43447.941406
1789.862305	43230.207031
1788.855469	42995.652344
1787.848633	43282.539063
1786.841797	43185.609375
1785.833984	43329.996094
1784.827148	43269.277344
1783.819336	43153.097656
1782.812500	43403.519531
1781.804688	43263.246094
1780.795898	43520.789063
1779.788086	43638.441406
1778.779297	43425.898438
1777.771484	43579.664063
1776.762695	43769.511719
1775.753906	43826.816406
1774.744141	43917.812500
1773.735352	43743.921875
1772.725586	43784.343750
1771.715820	43957.128906
1770.706055	43764.066406
1769.696289	44150.929688
1768.686523	44056.527344
1767.675781	44130.523438
1766.666016	44692.656250
1765.655273	44042.800781
1764.644531	44508.593750
1763.632813	44320.464844
1762.622070	44339.070313
1761.610352	44477.796875
1760.598633	44726.976563
1759.586914	44651.820313
1758.575195	44612.710938
1757.563477	44960.167969
1756.550781	44568.136719
1755.538086	45073.882813
1754.525391	45077.914063
1753.512695	45357.855469
1752.500000	45273.074219
1751.486328	45332.226563
1750.473633	45146.761719
1749.459961	45241.875000
1748.446289	45389.687500
1747.432617	45518.273438
1746.417969	45613.265625
1745.404297	45571.656250
1744.389648	45898.957031
1743.375000	45795.039063
1742.360352	45631.292969
1741.344727	45759.687500
1740.330078	45746.804688
1739.314453	45899.066406
1738.298828	46266.628906
1737.283203	46423.527344
1736.267578	46597.109375
1735.251953	46670.179688
1734.235352	46893.867188
1733.218750	47213.105469
1732.202148	46963.324219
1731.185547	47129.480469
1730.168945	47395.929688
1729.151367	47748.292969
1728.133789	47565.472656
1727.117188	48206.652344
1726.098633	48307.960938
1725.081055	48590.667969
1724.063477	48770.636719
1723.044922	48492.324219
1722.026367	49442.960938
1721.007813	49608.363281
1719.989258	50019.386719
1718.970703	49755.351563
1717.951172	49570.089844
1716.931641	50147.781250
1715.912109	50329.585938
1714.892578	50363.566406
1713.873047	50645.343750
1712.853516	50174.199219
1711.833008	50360.628906
1710.812500	50330.273438
1709.791992	50347.546875
1708.771484	50614.781250
1707.750000	50382.074219
1706.729492	50675.378906
1705.708008	50047.761719
1704.686523	50524.199219
1703.665039	50225.062500
1702.642578	50306.531250
1701.621094	50426.007813
1700.598633	50193.609375
1699.576172	50479.441406
1698.553711	50121.156250
1697.531250	50708.648438
1696.507813	50447.847656
1695.485352	50507.781250
1694.461914	50845.539063
1693.438477	50359.285156
1692.415039	50540.265625
1691.390625	50367.535156
1690.367188	51058.652344
1689.342773	51417.355469
1688.318359	50865.000000
1687.293945	50355.527344
1686.269531	50761.585938
1685.244141	51063.175781
1684.218750	51030.410156
1683.194336	51687.359375
1682.168945	51182.921875
1681.142578	51209.382813
1680.117188	51486.925781
1679.090820	51195.945313
1678.064453	51409.453125
1677.038086	52110.605469
1676.011719	51691.839844
1674.985352	51796.265625
1673.958008	51692.421875
1672.931641	51848.859375
1671.904297	51357.093750
1670.876953	51790.246094
1669.848633	52218.511719
1668.821289	52164.320313
1667.792969	52266.156250
1666.764648	52306.507813
1665.736328	51798.632813
1664.708008	52096.566406
1663.679688	52443.996094
1662.650391	52760.597656
1661.621094	52425.367188
1660.591797	52708.804688
1659.562500	52810.382813
1658.533203	52480.039063
1657.502930	52697.238281
1656.472656	52926.152344
1655.442383	52669.078125
1654.412109	53437.980469
1653.381836	53197.406250
1652.351563	52848.468750
1651.320313	53081.859375
1650.289063	53572.042969
1649.257813	53508.328125
1648.226563	53112.460938
1647.194336	53211.367188
1646.163086	53100.644531
1645.130859	52999.375000
1644.098633	53347.789063
1643.066406	53392.441406
1642.033203	53912.445313
1641.000977	53324.046875
1639.967773	53100.488281
1638.934570	53676.710938
1637.901367	53867.058594
1636.868164	53356.664063
1635.833984	53311.910156
1634.800781	53208.414063
1633.766602	53934.496094
1632.732422	54047.078125
1631.697266	54107.937500
1630.663086	54960.296875
1629.627930	54412.757813
1628.593750	54271.593750
1627.558594	54501.378906
1626.522461	54639.546875
1625.487305	54611.050781
1624.451172	55237.160156
1623.416016	55375.117188
1622.379883	55513.019531
1621.343750	55725.910156
1620.306641	56449.839844
1619.270508	57161.785156
1618.233398	57695.351563
1617.196289	58451.343750
1616.159180	59427.289063
1615.122070	60721.464844
1614.083984	61640.449219
1613.046875	62662.132813
1612.008789	63025.570313
1610.970703	63896.828125
1609.932617	63656.089844
1608.893555	63677.515625
1607.855469	62987.703125
1606.816406	62634.972656
1605.777344	61580.746094
1604.738281	60321.125000
1603.698242	59637.070313
1602.659180	58576.921875
1601.619141	57603.621094
1600.579102	57121.355469
1599.539063	56907.929688
1598.499023	56271.792969
1597.458008	55829.718750
1596.417969	55170.648438
1595.376953	54997.394531
1594.335938	54611.796875
1593.294922	54585.726563
1592.252930	54130.335938
1591.210938	54022.707031
1590.169922	53656.207031
1589.127930	53681.621094
1588.084961	53662.726563
1587.042969	53858.304688
1586.000000	53506.074219
1584.958008	53449.921875
1583.915039	53370.492188
1582.872070	53798.933594
1581.828125	53437.636719
1580.785156	53581.800781
1579.741211	54186.921875
1578.697266	54121.386719
1577.653320	54404.992188
1576.609375	54157.925781
1575.564453	54397.218750
1574.520508	54236.304688
1573.475586	54705.750000
1572.430664	54670.410156
1571.384766	54567.652344
1570.339844	54274.316406
1569.293945	54469.156250
1568.249023	54057.425781
1567.202148	53559.878906
1566.156250	53420.234375
1565.110352	53036.773438
1564.063477	52625.585938
1563.017578	52569.757813
1561.970703	52182.007813
1560.922852	51810.636719
1559.875977	51430.117188
1558.829102	51557.812500
1557.781250	51356.082031
1556.733398	51611.296875
1555.685547	51544.109375
1554.636719	51801.515625
1553.588867	51340.265625
1552.540039	51391.351563
1551.491211	51667.175781
1550.442383	50909.648438
1549.393555	51292.007813
1548.344727	51407.902344
1547.294922	51079.183594
1546.245117	51391.847656
1545.195313	51005.378906
1544.145508	51088.835938
1543.094727	51165.316406
1542.044922	50753.640625
1540.994141	51278.867188
1539.943359	51124.011719
1538.892578	50823.539063
1537.840820	50860.691406
1536.790039	51397.074219
1535.738281	51189.144531
1534.686523	50972.046875
1533.634766	50889.011719
1532.583008	50946.894531
1531.530273	50990.898438
1530.477539	51173.414063
1529.424805	51097.316406
1528.372070	50998.164063
1527.319336	51014.429688
1526.265625	51104.511719
1525.212891	50968.500000
1524.159180	51134.664063
1523.105469	50906.453125
1522.051758	51180.925781
1520.997070	51074.953125
1519.942383	51047.378906
1518.888672	51052.070313
1517.833984	51082.101563
1516.778320	51245.722656
1515.723633	50695.328125
1514.667969	50693.164063
1513.612305	50651.859375
1512.556641	50585.246094
1511.500977	50564.683594
1510.445313	50187.468750
1509.388672	50143.976563
1508.332031	50411.023438
1507.275391	50321.503906
1506.218750	50238.914063
1505.162109	50547.175781
1504.104492	50140.472656
1503.047852	50278.574219
1501.990234	50092.648438
1500.931641	50430.570313
1499.874023	50444.503906
1498.816406	50394.132813
1497.757813	50022.328125
1496.699219	50458.722656
1495.640625	50213.273438
1494.582031	49853.167969
1493.522461	50371.953125
1492.462891	50255.109375
1491.403320	50110.781250
1490.343750	50386.156250
1489.284180	49645.730469
1488.224609	50650.062500
1487.164063	49923.597656
1486.103516	50421.085938
1485.042969	49839.261719
1483.982422	49855.523438
1482.920898	50158.070313
1481.860352	50300.214844
1480.798828	50240.824219
1479.737305	49963.996094
1478.675781	50170.171875
1477.613281	49813.359375
1476.550781	50367.238281
1475.489258	50248.410156
1474.426758	50218.812500
1473.363281	50342.429688
1472.300781	49972.179688
1471.237305	50422.660156
1470.174805	50438.757813
1469.111328	50637.640625
1468.046875	50338.414063
1466.983398	50624.042969
1465.919922	50777.105469
1464.855469	50580.757813
1463.791016	50870.750000
1462.726563	50642.496094
1461.661133	51130.910156
1460.596680	51317.960938
1459.531250	51114.839844
1458.465820	51194.617188
1457.400391	51351.902344
1456.334961	51424.769531
1455.268555	50870.695313
1454.202148	50991.480469
1453.135742	51422.144531
1452.069336	51387.847656
1451.002930	51697.542969
1449.935547	51440.000000
1448.869141	51856.597656
1447.801758	51961.125000
1446.734375	51705.941406
1445.666016	52147.300781
1444.598633	52483.820313
1443.530273	52649.582031
1442.461914	52906.269531
1441.393555	53440.332031
1440.325195	53135.117188
1439.256836	53550.722656
1438.187500	53986.632813
1437.118164	53904.203125
1436.048828	54321.710938
1434.979492	54509.601563
1433.909180	54661.082031
1432.839844	54773.894531
1431.769531	55125.085938
1430.699219	55203.718750
1429.627930	54900.980469
1428.557617	55104.441406
1427.486328	54817.710938
1426.416016	55241.164063
1425.343750	55242.570313
1424.272461	55216.761719
1423.201172	55349.679688
1422.128906	55217.308594
1421.056641	55984.820313
1419.984375	55179.320313
1418.912109	55568.171875
1417.839844	55286.332031
1416.766602	55104.250000
1415.693359	55110.187500
1414.620117	54858.007813
1413.546875	54535.742188
1412.473633	54648.148438
1411.399414	54092.953125
1410.325195	54307.207031
1409.250977	54593.769531
1408.176758	54552.281250
1407.102539	54721.105469
1406.027344	55344.304688
1404.952148	55336.605469
1403.876953	55945.902344
1402.801758	55621.738281
1401.726563	55846.687500
1400.650391	55920.210938
1399.574219	56248.910156
1398.498047	55891.042969
1397.421875	56016.437500
1396.345703	55916.062500
1395.268555	55630.660156
1394.191406	56076.437500
1393.114258	55330.875000
1392.037109	55244.218750
1390.959961	55288.394531
1389.881836	55542.246094
1388.804688	55248.187500
1387.726563	55722.835938
1386.647461	56314.500000
1385.569336	56099.316406
1384.491211	56584.816406
1383.412109	56398.933594
1382.333008	56668.011719
1381.253906	56878.449219
1380.173828	57093.312500
1379.094727	57256.328125
1378.014648	57122.242188
1376.934570	56565.214844
1375.854492	56770.968750
1374.773438	56263.683594
1373.693359	55909.484375
1372.612305	55496.960938
1371.531250	55383.550781
1370.450195	55099.371094
1369.369141	54889.445313
1368.287109	54122.414063
1367.205078	54463.070313
1366.123047	54064.714844
1365.041016	53884.308594
1363.958984	53840.910156
1362.875977	53534.906250
1361.793945	53282.867188
1360.710938	53230.621094
1359.626953	52971.996094
1358.543945	52738.136719
1357.460938	52856.449219
1356.376953	52624.929688
1355.292969	52566.113281
1354.208984	52189.035156
1353.124023	51912.937500
1352.040039	52622.800781
1350.955078	52075.652344
1349.870117	51936.343750
1348.785156	51837.394531
1347.700195	51843.707031
1346.614258	52044.773438
1345.528320	52113.710938
1344.442383	51486.675781
1343.356445	51484.089844
1342.270508	51803.628906
1341.183594	51407.347656
1340.096680	51758.082031
1339.009766	51956.660156
1337.922852	51350.437500
1336.835938	51734.511719
1335.748047	51966.496094
1334.661133	52473.195313
1333.573242	51911.980469
1332.484375	52074.566406
1331.396484	51917.785156
1330.307617	52270.070313
1329.219727	52115.539063
1328.130859	52425.253906
1327.041992	52554.121094
1325.952148	52337.148438
1324.863281	52361.144531
1323.773438	52423.042969
1322.683594	52455.929688
1321.593750	52343.898438
1320.502930	52120.460938
1319.413086	52336.117188
1318.322266	52039.230469
1317.231445	52303.824219
1316.140625	51893.457031
1315.048828	51685.878906
1313.958008	52115.148438
1312.866211	52726.796875
1311.774414	52111.875000
1310.682617	52133.601563
1309.589844	52139.746094
1308.498047	52677.531250
1307.405273	52494.523438
1306.312500	52898.628906
1305.218750	52195.398438
1304.125977	53272.929688
1303.032227	53338.855469
1301.939453	53773.609375
1300.845703	54337.062500
1299.750977	54789.250000
1298.657227	55827.570313
1297.562500	55844.109375
1296.467773	56178.105469
1295.373047	56531.957031
1294.278320	57371.691406
1293.183594	56835.437500
1292.087891	56856.207031
1290.992188	56397.867188
1289.896484	56059.445313
1288.800781	56075.902344
1287.704102	55256.601563
1286.608398	55197.835938
1285.511719	54983.960938
1284.415039	54229.554688
1283.317383	54385.871094
1282.220703	53470.156250
1281.123047	53360.820313
1280.025391	53229.382813
1278.927734	53036.007813
1277.830078	53004.265625
1276.731445	52791.082031
1275.633789	52518.238281
1274.535156	52763.101563
1273.436523	52583.246094
1272.336914	52295.101563
1271.238281	51934.105469
1270.138672	51374.296875
1269.039063	51769.414063
1267.939453	51362.300781
1266.839844	50977.421875
1265.739258	51339.261719
1264.638672	51276.949219
1263.538086	50965.152344
1262.437500	50774.886719
1261.336914	50948.878906
1260.235352	51012.460938
1259.134766	50444.988281
1258.033203	50243.917969
1256.930664	50750.914063
1255.829102	50333.746094
1254.726563	49987.277344
1253.625000	49890.031250
1252.522461	49856.738281
1251.418945	49757.343750
1250.316406	50294.707031
1249.212891	49452.921875
1248.110352	49494.601563
1247.006836	49600.121094
1245.902344	49954.382813
1244.798828	49637.148438
1243.694336	49071.335938
1242.589844	49370.484375
1241.485352	49786.121094
1240.380859	49216.183594
1239.276367	49530.527344
1238.170898	49240.089844
1237.065430	49589.488281
1235.959961	49132.089844
1234.854492	49813.214844
1233.748047	49235.089844
1232.642578	49325.003906
1231.536133	49366.562500
1230.429688	49144.582031
1229.322266	49482.558594
1228.215820	49633.820313
1227.108398	50024.261719
1226.000977	49545.566406
1224.893555	50003.890625
1223.786133	49869.765625
1222.677734	49481.277344
1221.569336	50149.867188
1220.460938	50046.476563
1219.352539	49535.406250
1218.244141	49940.621094
1217.134766	49101.066406
1216.025391	49300.269531
1214.916016	49186.164063
1213.806641	49672.171875
1212.697266	49089.453125
1211.586914	49069.582031
1210.476563	49360.531250
1209.366211	49200.550781
1208.255859	49336.015625
1207.145508	49075.460938
1206.034180	49519.296875
1204.922852	49451.246094
1203.811523	49667.453125
1202.700195	49927.304688
1201.587891	49996.902344
1200.476563	49821.726563
1199.364258	49893.503906
1198.251953	50397.773438
1197.138672	50019.496094
1196.026367	50484.246094
1194.913086	50527.457031
1193.799805	50465.875000
1192.686523	50731.679688
1191.573242	50458.414063
1190.458984	50512.496094
1189.344727	50365.882813
1188.230469	50219.316406
1187.116211	50301.753906
1186.001953	50085.484375
1184.886719	50252.921875
1183.772461	49385.125000
1182.657227	49201.820313
1181.541016	48981.542969
1180.425781	49432.203125
1179.309570	49806.476563
1178.193359	49189.933594
1177.077148	49235.398438
1175.960938	48708.414063
1174.844727	48703.894531
1173.727539	48592.761719
1172.610352	48677.445313
1171.493164	48759.921875
1170.375977	48764.085938
1169.257813	48598.660156
1168.139648	48024.628906
1167.022461	48361.437500
1165.903320	48128.808594
1164.785156	47935.371094
1163.666992	47878.843750
1162.547852	48093.808594
1161.428711	48184.921875
1160.309570	48097.980469
1159.189453	47937.269531
1158.070313	47954.574219
1156.950195	47954.507813
1155.830078	48169.210938
1154.709961	47802.539063
1153.588867	47639.851563
1152.468750	47529.253906
1151.347656	47644.152344
1150.226563	47399.210938
1149.104492	47765.457031
1147.983398	47462.082031
1146.861328	47999.312500
1145.739258	48263.449219
1144.617188	48209.167969
1143.495117	47620.140625
1142.372070	48392.886719
1141.250000	48487.941406
1140.126953	48282.179688
1139.003906	48433.460938
1137.879883	49030.281250
1136.756836	48789.925781
1135.632813	48992.921875
1134.508789	48789.406250
1133.384766	48678.906250
1132.259766	48970.410156
1131.135742	48360.796875
1130.010742	48418.933594
1128.885742	48559.125000
1127.759766	48783.484375
1126.634766	48571.617188
1125.508789	48409.472656
1124.382813	48402.789063
1123.256836	48368.050781
1122.130859	48482.195313
1121.003906	48635.125000
1119.877930	48132.339844
1118.750977	47987.695313
1117.624023	48067.320313
1116.496094	48036.980469
1115.369141	47883.804688
1114.241211	48334.023438
1113.113281	47810.289063
1111.985352	47715.390625
1110.856445	47504.230469
1109.728516	47852.976563
1108.599609	47745.199219
1107.470703	48027.046875
1106.340820	47245.687500
1105.211914	47574.855469
1104.082031	47682.324219
1102.952148	47725.222656
1101.822266	47557.363281
1100.692383	47589.515625
1099.561523	47656.050781
1098.431641	48133.070313
1097.300781	47771.847656
1096.169922	47412.902344
1095.038086	47767.257813
1093.907227	47442.804688
1092.775391	47187.183594
1091.643555	47464.089844
1090.511719	46852.230469
1089.378906	47416.671875
1088.246094	47028.199219
1087.114258	46837.238281
1085.980469	46820.085938
1084.847656	46742.886719
1083.714844	46494.183594
1082.581055	46875.839844
1081.447266	46760.089844
1080.313477	46860.820313
1079.179688	46363.726563
1078.044922	46980.761719
1076.910156	46792.246094
1075.775391	47102.750000
1074.640625	46605.964844
1073.505859	46653.085938
1072.370117	46783.656250
1071.234375	46817.886719
1070.098633	47029.671875
1068.962891	46922.660156
1067.826172	47134.347656
1066.690430	46903.328125
1065.553711	46948.183594
1064.416992	46811.328125
1063.279297	47144.687500
1062.142578	46950.152344
1061.004883	47394.449219
1059.867188	46518.574219
1058.729492	46836.785156
1057.590820	46958.441406
1056.453125	46262.441406
1055.314453	46279.570313
1054.175781	46689.347656
1053.037109	46335.144531
1051.897461	46633.828125
1050.757813	46832.160156
1049.618164	46932.324219
1048.478516	46721.175781
1047.338867	46403.519531
1046.199219	46883.062500
1045.058594	46322.570313
1043.917969	46710.339844
1042.777344	46714.550781
1041.635742	46614.402344
1040.495117	47053.000000
1039.353516	46388.667969
1038.211914	46295.503906
1037.069336	46202.257813
1035.927734	46109.093750
1034.785156	46015.851563
1033.642578	45922.605469
1032.500000	45829.363281
1031.357422	46188.777344
1030.213867	46224.937500
1029.071289	46133.562500
1027.927734	45984.843750
1026.783203	46301.464844
1025.639648	46254.726563
1024.495117	46093.316406
1023.351563	45840.660156
1022.207031	45978.730469
1021.061523	46150.710938
1019.916992	45915.152344
1018.771484	45913.082031
1017.625977	46191.050781
1016.480469	46231.347656
1015.334961	46031.992188
1014.188477	45934.480469
1013.041992	45784.003906
1011.895508	46564.058594
1010.749023	46099.886719
1009.602539	45788.433594
1008.455078	45979.144531
1007.307617	46186.726563
1006.160156	45928.363281
1005.012695	46470.390625
1003.864258	46408.929688
1002.716797	46197.218750
1001.568359	46402.445313
1000.419922	46228.894531
999.270508	46926.886719
998.122070	46641.210938
996.972656	46112.472656
995.823242	46116.675781
994.673828	46659.871094
993.523438	46706.234375
992.373047	46687.078125
991.222656	46845.378906
990.072266	46788.183594
988.921875	47013.980469
987.771484	46802.636719
986.620117	46886.910156
985.468750	46711.546875
984.317383	47416.199219
983.165039	46899.007813
982.013672	47040.144531
980.861328	46949.234375
979.708984	47703.921875
978.555664	46953.035156
977.403320	47572.535156
976.250000	47648.078125
975.096680	47569.769531
973.943359	47285.035156
972.790039	47360.578125
971.635742	46941.203125
970.481445	47029.414063
969.327148	46991.277344
968.172852	47151.003906
967.018555	47352.757813
965.863281	47078.933594
964.708008	47190.167969
963.552734	46882.816406
962.397461	47002.453125
961.241211	47048.457031
960.084961	47031.402344
958.929688	47014.359375
957.772461	46997.289063
956.616211	46980.234375
955.458984	46963.164063
954.301758	46946.093750
953.144531	46929.023438
951.987305	46911.953125
950.830078	46710.203125
949.671875	47037.363281
948.513672	46848.246094
947.355469	46608.851563
946.196289	47015.542969
945.038086	46734.261719
943.878906	46740.320313
942.719727	46844.894531
941.560547	47068.898438
940.400391	47146.128906
939.241211	46632.515625
938.081055	46697.230469
936.919922	46724.218750
935.759766	47094.597656
934.599609	46891.210938
933.438477	46943.261719
932.277344	47254.792969
931.116211	46702.050781
929.954102	47040.703125
928.791992	47128.238281
927.630859	47556.605469
926.467773	47464.191406
925.305664	46727.953125
924.143555	47457.121094
922.980469	47427.460938
921.817383	47251.562500
920.654297	47119.593750
919.490234	47150.574219
918.327148	47214.953125
917.163086	47490.167969
915.999023	47172.464844
914.833984	47695.933594
913.669922	47989.679688
912.504883	47590.695313
911.339844	48480.894531
910.174805	48565.781250
909.008789	48535.960938
907.843750	49629.785156
906.677734	49059.941406
905.511719	49209.250000
904.345703	48900.132813
903.178711	48978.585938
902.011719	48409.273438
900.844727	48244.148438
899.677734	48216.492188
898.510742	48503.167969
897.342773	48125.828125
896.174805	48019.128906
895.006836	47648.257813
893.838867	47789.210938
892.670898	47310.367188
891.501953	47415.980469
890.333008	47594.312500
889.164063	47369.343750
887.994141	47252.519531
886.825195	47580.375000
885.655273	47698.292969
884.485352	47623.003906
883.315430	47657.804688
882.144531	47312.640625
880.973633	47808.312500
879.803711	47865.878906
878.631836	47396.359375
877.460938	48039.035156
876.289063	48200.234375
875.118164	48120.800781
873.945313	48638.570313
872.773438	48679.320313
871.601563	48344.886719
870.428711	48665.445313
869.255859	48304.195313
868.083008	47982.441406
866.910156	48489.289063
865.736328	48714.316406
864.562500	49044.847656
863.388672	49083.375000
862.214844	49773.839844
861.040039	49586.660156
859.866211	49649.886719
858.691406	49489.687500
857.516602	49410.203125
856.340820	49351.421875
855.166016	49844.652344
853.990234	48628.285156
852.814453	48838.335938
851.637695	48796.226563
850.461914	48758.261719
849.285156	49247.003906
848.108398	49287.437500
846.931641	49073.898438
845.754883	49192.789063
844.577148	49877.152344
843.399414	49595.515625
842.221680	50459.042969
841.043945	50961.257813
839.865234	51617.968750
838.687500	52319.792969
837.508789	52576.042969
836.329102	53028.015625
835.150391	53430.355469
833.970703	53690.371094
832.791992	53639.207031
831.611328	52850.679688
830.431641	52338.394531
829.251953	51435.089844
828.071289	51065.292969
826.890625	50397.191406
825.709961	49793.128906
824.528320	49473.214844
823.347656	49091.707031
822.166016	49045.574219
820.984375	48960.390625
819.801758	48268.738281
818.620117	48765.437500
817.437500	48546.757813
816.254883	48159.667969
815.072266	47980.214844
813.888672	48076.058594
812.706055	47872.035156
811.522461	47610.597656
810.338867	47460.109375
809.154297	47576.496094
807.970703	47424.011719
806.786133	47244.910156
805.601563	47591.015625
804.416992	47828.289063
803.231445	47345.718750
802.045898	47275.417969
800.861328	47276.878906
799.674805	47417.703125
798.489258	46831.058594
797.302734	47238.238281
796.117188	47211.023438
794.930664	47425.468750
793.743164	46822.871094
792.556641	46744.562500
791.369141	46742.015625
790.181641	46913.406250
788.994141	46837.164063
787.805664	46562.527344
786.618164	46398.429688
785.429688	46770.144531
784.241211	46274.859375
783.052734	46266.253906
781.863281	46556.031250
780.673828	46101.921875
779.484375	46626.562500
778.294922	46333.968750
777.105469	46184.433594
775.915039	45806.273438
774.724609	45920.234375
773.534180	45962.718750
772.343750	46115.378906
771.152344	46129.238281
769.960938	46318.527344
768.769531	46330.300781
767.578125	46448.105469
766.385742	46531.207031
765.194336	46732.500000
764.001953	47003.007813
762.808594	47037.046875
761.616211	47207.570313
760.422852	47019.531250
759.230469	47446.589844
758.037109	47639.332031
756.842773	48005.035156
755.649414	48101.933594
754.455078	47956.628906
753.260742	48033.152344
752.066406	47678.382813
750.871094	47809.835938
749.676758	48018.511719
748.481445	47602.945313
747.286133	47378.605469
746.089844	47247.835938
744.894531	47153.687500
743.698242	47150.996094
742.501953	46677.062500
741.304688	46576.972656
740.108398	46635.296875
738.911133	46750.437500
737.713867	46319.546875
736.516602	46467.167969
735.319336	46326.621094
734.121094	45894.015625
732.922852	46268.785156
731.724609	46134.429688
730.526367	45937.277344
729.327148	46163.847656
728.127930	45881.636719
726.928711	45737.316406
725.729492	45975.945313
724.530273	45580.492188
723.330078	46193.707031
722.129883	46146.617188
720.929688	45761.468750
719.728516	45368.367188
718.528320	45697.847656
717.327148	45784.414063
716.125977	45666.632813
714.923828	45753.167969
713.722656	45574.765625
712.520508	45517.738281
711.318359	45454.664063
710.116211	45725.074219
708.913086	45823.628906
707.710938	45675.675781
706.507813	45444.960938
705.304688	45402.144531
704.100586	45587.496094
702.897461	45635.507813
701.693359	45838.910156
700.489258	46090.667969
699.284180	45765.292969
698.080078	45984.691406
696.875000	45957.949219
695.669922	46056.234375
694.464844	46263.351563
693.258789	46280.910156
692.053711	46560.453125
690.847656	46676.679688
689.641602	46730.410156
688.434570	47327.953125
687.228516	47232.511719
686.021484	46796.828125
684.814453	46667.292969
683.607422	46551.894531
682.399414	46452.636719
681.191406	46532.476563
679.983398	46151.632813
678.775391	46466.804688
677.567383	46246.976563
676.358398	46608.250000
675.149414	46030.683594
673.940430	46194.906250
672.730469	45963.230469
671.521484	46085.210938
670.311523	46307.574219
669.101563	46445.507813
667.890625	45842.503906
666.680664	45978.460938
665.469727	46379.296875
664.258789	45620.117188
663.047852	45808.195313
661.835938	46050.363281
660.625000	45871.269531
659.413086	46073.226563
658.201172	45876.148438
656.988281	45456.652344
655.776367	45450.144531
654.563477	45660.035156
653.350586	45561.335938
652.136719	45402.582031
650.923828	45177.804688
649.709961	45493.695313
648.496094	45423.117188
647.282227	45294.523438
646.067383	45632.222656
644.852539	45031.468750
643.637695	45673.132813
642.422852	45306.585938
641.208008	45144.132813
639.992188	45585.488281
638.776367	45219.156250
637.560547	45622.363281
636.344727	45356.058594
635.127930	45733.113281
633.911133	46002.167969
632.694336	45883.710938
631.477539	45847.156250
630.259766	45774.683594
629.042969	45039.621094
627.825195	45382.375000
626.606445	45635.218750
625.388672	45104.050781
624.169922	45061.687500
622.951172	45428.097656
621.732422	45527.230469
620.513672	45237.648438
619.293945	44876.429688
618.074219	45501.609375
616.854492	45277.929688
615.634766	45143.957031
614.414063	45025.960938
613.193359	44995.613281
611.972656	45084.707031
610.751953	45082.214844
609.530273	44962.324219
608.309570	45182.671875
607.087891	44957.378906
605.866211	44929.050781
604.643555	45067.753906
603.420898	45303.812500
602.198242	45080.644531
600.975586	45443.789063
599.752930	45244.519531
598.529297	44655.968750
597.305664	45152.054688
596.082031	45348.101563
594.858398	45700.917969
593.633789	45285.414063
592.410156	45102.257813
591.185547	45236.652344
589.959961	45589.214844
588.735352	45156.179688
587.509766	45250.816406
586.284180	45835.156250
585.058594	46157.597656
583.832031	46160.812500
582.606445	45999.550781
581.379883	45967.128906
580.153320	47010.339844
578.925781	46524.195313
577.699219	47032.265625
576.471680	47055.097656
575.244141	47030.417969
574.015625	47094.796875
572.788086	46745.613281
571.559570	46772.429688
570.331055	46300.800781
569.101563	46786.476563
567.873047	46534.484375
566.643555	46316.191406
565.414063	45971.484375
564.184570	45599.242188
562.954102	45981.847656
561.724609	45530.726563
560.494141	45399.714844
559.263672	45434.609375
558.032227	45226.664063
556.800781	45409.613281
555.570313	45154.386719
554.337891	45080.773438
553.106445	45380.027344
551.874023	44846.843750
550.642578	44832.484375
549.409180	45113.867188
548.176758	44845.171875
546.944336	44535.187500
545.710938	45074.589844
544.477539	44544.023438
543.243164	45059.582031
542.009766	44639.500000
540.775391	44479.476563
539.541016	44652.210938
538.306641	44673.324219
537.071289	44812.496094
535.836914	44756.832031
534.601563	44665.777344
533.366211	44633.757813
532.129883	44483.765625
530.894531	44833.199219
529.658203	44867.992188
528.421875	44670.867188
527.184570	44194.796875
525.948242	44373.097656
524.710938	44718.281250
523.473633	44843.390625
522.235352	44634.664063
520.998047	44178.667969
519.759766	44749.332031
518.521484	44654.550781
517.283203	44465.628906
516.043945	44869.171875
514.804688	45019.566406
513.565430	44789.500000
512.326172	44765.363281
511.085938	45027.414063
509.846680	44893.492188
508.606445	45039.812500
507.366211	44592.500000
506.125000	44987.558594
504.883789	44988.859375
503.643555	44598.582031
502.401367	44578.417969
501.160156	44609.144531
499.917969	44328.730469
498.675781	44594.257813
497.433594	44779.488281
496.191406	44780.808594
494.948242	44535.761719
493.705078	44939.839844
492.461914	44685.082031
491.218750	44610.199219
489.975586	44674.062500
488.731445	45112.964844
487.487305	44561.484375
486.242188	44537.445313
484.998047	44683.265625
483.752930	44934.437500
482.507813	44861.542969
481.262695	45132.089844
480.016602	44842.636719
478.771484	44793.203125
477.525391	45449.730469
476.278320	45409.941406
475.032227	45338.976563
473.785156	45041.949219
472.538086	45195.175781
471.291016	45264.558594
470.043945	45511.179688
468.795898	45268.867188
467.547852	46002.183594
466.299805	45828.003906
465.051758	45963.375000
463.802734	46005.277344
462.553711	46370.152344
461.304688	46561.750000
460.055664	46622.960938
458.805664	46388.566406
457.555664	46591.710938
456.305664	47175.773438
455.055664	47087.164063
453.804688	47177.351563
452.553711	47448.183594
451.302734	47979.187500
450.051758	47888.542969
448.799805	48516.339844
447.548828	48976.949219
446.296875	49159.832031
445.043945	50016.011719
443.791992	50218.023438
442.539063	50154.199219
441.286133	49632.683594
440.033203	49505.000000
438.779297	48995.433594
437.526367	48092.570313
436.272461	47740.437500
435.017578	46952.468750
433.763672	46449.574219
432.508789	46235.464844
431.253906	46104.703125
429.999023	46063.050781
428.744141	45738.789063
427.488281	45697.218750
426.232422	45177.707031
424.976563	45393.566406
423.720703	45410.109375
422.463867	45239.046875
421.207031	45348.421875
419.950195	45022.777344
418.693359	45008.441406
417.435547	45338.093750
416.177734	44906.359375
414.919922	44998.296875
413.662109	45441.707031
412.403320	44938.746094
411.144531	44849.136719
409.885742	44983.472656
408.626953	44897.742188
407.367188	44630.664063
406.107422	45090.988281
404.847656	44542.363281
403.587891	45129.804688
402.327148	45157.875000
401.067383	45050.992188
