#Wave		#Intensity
2001.182617	31155.755859
2000.212891	31531.730469
1999.243164	31340.779297
1998.273438	31550.791016
1997.303711	31329.837891
1996.333008	31444.595703
1995.363281	31293.855469
1994.392578	31473.677734
1993.421875	31395.582031
1992.451172	31675.441406
1991.479492	31364.597656
1990.508789	31203.988281
1989.537109	31698.876953
1988.566406	31365.675781
1987.594727	31565.263672
1986.622070	31942.308594
1985.650391	31646.736328
1984.677734	31538.728516
1983.706055	31328.294922
1982.733398	31705.111328
1981.760742	31172.453125
1980.788086	31521.689453
1979.814453	31718.462891
1978.841797	31293.445313
1977.868164	31530.130859
1976.894531	31172.683594
1975.920898	31406.810547
1974.947266	31261.593750
1973.972656	31281.076172
1972.999023	31497.599609
1972.024414	31531.994141
1971.049805	31252.208984
1970.075195	31511.000000
1969.099609	31792.130859
1968.125000	31106.232422
1967.149414	31474.541016
1966.173828	31553.738281
1965.198242	31376.357422
1964.222656	31413.207031
1963.247070	31201.050781
1962.270508	31317.578125
1961.294922	31458.953125
1960.318359	31266.806641
1959.341797	31428.044922
1958.364258	31230.992188
1957.387695	31106.138672
1956.410156	31341.921875
1955.433594	31316.546875
1954.456055	31432.880859
1953.478516	31203.681641
1952.500000	31471.585938
1951.522461	31227.548828
1950.543945	31202.208984
1949.565430	31253.876953
1948.586914	30853.548828
1947.608398	31203.210938
1946.629883	31118.308594
1945.650391	30824.941406
1944.671875	31581.410156
1943.692383	31536.183594
1942.712891	31081.640625
1941.733398	31076.199219
1940.752930	31256.751953
1939.773438	31132.265625
1938.792969	31511.064453
1937.812500	31133.755859
1936.832031	31138.216797
1935.851563	31194.707031
1934.870117	31137.220703
1933.888672	31186.257813
1932.908203	31430.916016
1931.926758	31578.921875
1930.945313	31107.984375
1929.962891	31248.568359
1928.981445	31314.859375
1927.999023	31279.681641
1927.016602	31284.097656
1926.034180	31434.439453
1925.051758	30951.650391
1924.069336	31386.337891
1923.085938	31286.896484
1922.102539	31143.000000
1921.119141	31261.105469
1920.135742	31401.402344
1919.152344	31220.503906
1918.168945	31237.259766
1917.184570	31157.699219
1916.200195	31525.066406
1915.215820	31272.675781
1914.231445	31531.291016
1913.247070	31019.871094
1912.261719	31285.837891
1911.276367	31768.800781
1910.291992	31188.541016
1909.306641	30921.671875
1908.320313	31352.662109
1907.334961	31453.166016
1906.348633	31371.242188
1905.363281	31861.066406
1904.376953	31350.382813
1903.390625	31586.300781
1902.403320	31878.785156
1901.416992	32006.171875
1900.429688	31665.703125
1899.443359	31701.998047
1898.456055	31930.257813
1897.467773	31508.769531
1896.480469	31569.671875
1895.493164	31069.673828
1894.504883	31305.257813
1893.516602	31533.380859
1892.528320	31294.271484
1891.540039	31355.150391
1890.550781	31740.443359
1889.562500	31304.826172
1888.573242	31466.404297
1887.583984	31274.183594
1886.594727	31487.287109
1885.605469	31474.390625
1884.615234	31711.933594
1883.625000	31561.531250
1882.635742	31401.363281
1881.645508	31658.421875
1880.654297	31677.396484
1879.664063	31345.572266
1878.673828	31663.818359
1877.682617	31748.988281
1876.691406	31559.527344
1875.700195	31470.636719
1874.708984	31595.007813
1873.716797	31714.433594
1872.725586	31476.103516
1871.733398	31468.125000
1870.741211	31369.525391
1869.749023	31341.974609
1868.755859	31725.753906
1867.763672	31526.792969
1866.770508	31836.978516
1865.777344	31312.607422
1864.784180	31272.849609
1863.791016	31739.470703
1862.797852	31210.496094
1861.803711	31388.410156
1860.809570	31590.708984
1859.815430	31998.273438
1858.821289	31518.501953
1857.827148	31806.195313
1856.832031	31304.634766
1855.837891	31633.787109
1854.842773	31616.013672
1853.847656	31608.011719
1852.852539	31590.246094
1851.856445	31509.017578
1850.861328	31698.724609
1849.865234	31512.574219
1848.869141	31858.357422
1847.873047	31857.630859
1846.876953	31910.560547
1845.879883	31885.437500
1844.883789	31818.876953
1843.886719	31564.642578
1842.889648	31639.515625
1841.892578	31926.357422
1840.895508	31889.068359
1839.897461	32212.302734
1838.899414	32067.810547
1837.901367	32086.517578
1836.903320	32329.199219
1835.905273	31938.908203
1834.907227	32359.193359
1833.908203	32117.464844
1832.909180	31849.056641
1831.910156	32072.101563
1830.911133	32066.455078
1829.912109	31854.121094
1828.912109	32152.410156
1827.913086	32299.886719
1826.913086	31978.255859
1825.913086	32310.380859
1824.913086	32285.253906
1823.912109	32461.746094
1822.912109	32305.453125
1821.911133	31860.261719
1820.910156	32454.306641
1819.909180	32317.511719
1818.908203	32171.058594
1817.906250	32187.228516
1816.904297	32397.476563
1815.903320	32486.367188
1814.900391	31988.328125
1813.898438	32232.441406
1812.896484	32292.218750
1811.893555	32073.222656
1810.891602	32249.332031
1809.888672	32454.453125
1808.885742	32325.179688
1807.881836	32372.769531
1806.878906	32430.029297
1805.875000	32426.732422
1804.871094	32498.486328
1803.867188	32420.140625
1802.863281	32743.554688
1801.859375	32609.539063
1800.854492	32923.125000
1799.849609	32934.250000
1798.844727	32691.443359
1797.839844	32721.947266
1796.834961	32941.003906
1795.830078	32903.773438
1794.824219	32849.632813
1793.818359	32855.921875
1792.812500	32441.853516
1791.806641	33134.175781
1790.799805	32679.148438
1789.793945	32820.667969
1788.787109	33242.171875
1787.780273	33303.890625
1786.773438	33078.406250
1785.766602	33099.109375
1784.758789	33151.167969
1783.751953	33251.441406
1782.744141	32661.980469
1781.736328	33008.238281
1780.728516	33532.765625
1779.719727	33534.074219
1778.711914	33301.628906
1777.703125	33474.046875
1776.694336	33735.535156
1775.685547	33780.160156
1774.676758	33880.152344
1773.666992	33669.515625
1772.657227	33586.535156
1771.648438	33448.226563
1770.638672	33596.332031
1769.627930	33910.398438
1768.618164	33887.566406
1767.607422	33770.945313
1766.597656	33702.457031
1765.586914	33629.179688
1764.576172	34209.789063
1763.564453	34085.976563
1762.553711	34262.582031
1761.541992	34057.113281
1760.530273	34005.453125
1759.518555	33898.570313
1758.506836	34538.539063
1757.495117	34169.898438
1756.482422	34312.687500
1755.469727	34186.621094
1754.457031	34211.773438
1753.444336	34205.726563
1752.431641	34597.878906
1751.417969	34510.218750
1750.405273	34456.156250
1749.391602	34675.433594
1748.377930	34551.843750
1747.364258	34950.773438
1746.349609	34673.816406
1745.335938	34924.039063
1744.321289	34877.140625
1743.306641	35144.000000
1742.291992	35132.996094
1741.276367	35282.398438
1740.261719	35582.554688
1739.246094	35478.132813
1738.230469	35435.964844
1737.214844	35884.257813
1736.199219	35533.460938
1735.182617	36215.953125
1734.166992	36214.328125
1733.150391	36619.128906
1732.133789	36528.984375
1731.117188	36606.167969
1730.099609	36821.910156
1729.083008	36703.109375
1728.065430	37200.613281
1727.047852	37640.625000
1726.030273	37598.144531
1725.012695	37679.820313
1723.994141	37642.121094
1722.976563	38084.121094
1721.958008	38294.515625
1720.939453	38316.363281
1719.920898	39082.398438
1718.901367	38696.289063
1717.882813	38963.644531
1716.863281	39209.445313
1715.843750	39259.707031
1714.824219	39781.812500
1713.803711	39698.519531
1712.784180	39762.953125
1711.763672	39632.054688
1710.743164	39265.433594
1709.722656	39889.449219
1708.702148	39546.714844
1707.681641	39239.804688
1706.660156	39497.003906
1705.638672	39780.285156
1704.617188	40046.812500
1703.595703	39499.796875
1702.574219	39754.382813
1701.551758	39561.878906
1700.529297	39718.898438
1699.507813	39704.726563
1698.484375	39837.894531
1697.461914	40151.589844
1696.439453	39467.437500
1695.416016	39997.218750
1694.392578	39605.425781
1693.369141	40106.500000
1692.345703	39987.816406
1691.322266	39992.593750
1690.297852	39859.730469
1689.273438	40286.847656
1688.249023	39919.128906
1687.224609	40208.519531
1686.200195	40315.210938
1685.174805	40926.871094
1684.150391	40739.453125
1683.125000	40511.808594
1682.099609	40765.281250
1681.073242	41191.621094
1680.047852	40978.222656
1679.021484	40930.687500
1677.995117	41299.933594
1676.968750	41178.960938
1675.942383	41983.582031
1674.916016	41164.347656
1673.888672	41050.554688
1672.862305	41121.343750
1671.834961	41792.929688
1670.806641	41986.539063
1669.779297	42170.621094
1668.751953	42052.015625
1667.723633	42167.464844
1666.695313	42422.312500
1665.666992	42161.941406
1664.638672	42541.910156
1663.609375	42222.558594
1662.581055	42460.671875
1661.551758	42512.164063
1660.522461	42237.835938
1659.493164	42954.984375
1658.462891	42692.472656
1657.433594	42677.808594
1656.403320	42922.660156
1655.373047	42952.773438
1654.342773	42709.308594
1653.312500	43286.480469
1652.281250	43224.566406
1651.250977	43075.460938
1650.219727	43239.839844
1649.188477	43034.234375
1648.156250	43335.195313
1647.125000	43233.277344
1646.092773	43206.753906
1645.060547	43549.902344
1644.028320	43735.199219
1642.996094	43480.285156
1641.963867	43834.960938
1640.930664	43740.109375
1639.898438	44120.492188
1638.865234	43802.175781
1637.832031	44410.511719
1636.797852	44390.859375
1635.764648	44352.402344
1634.730469	44786.386719
1633.696289	44825.417969
1632.662109	45364.886719
1631.627930	45328.628906
1630.592773	45386.328125
1629.558594	45723.453125
1628.523438	45907.839844
1627.488281	46078.078125
1626.453125	45919.671875
1625.416992	46817.292969
1624.381836	46872.308594
1623.345703	47293.246094
1622.309570	48072.871094
1621.273438	48118.246094
1620.237305	48585.621094
1619.200195	49556.808594
1618.163086	49599.550781
1617.125977	50968.566406
1616.088867	52276.175781
1615.051758	52229.390625
1614.014648	53700.250000
1612.976563	54610.941406
1611.938477	54912.593750
1610.900391	55785.285156
1609.862305	55742.585938
1608.823242	55807.539063
1607.785156	54857.109375
1606.746094	54246.187500
1605.707031	54201.445313
1604.667969	52994.593750
1603.628906	51928.445313
1602.588867	52054.765625
1601.548828	51353.730469
1600.508789	50900.625000
1599.468750	50573.835938
1598.428711	50553.144531
1597.387695	50401.679688
1596.347656	50138.187500
1595.306641	50547.132813
1594.265625	49814.550781
1593.224609	49829.007813
1592.182617	49278.804688
1591.140625	49535.968750
1590.099609	49242.578125
1589.057617	48872.335938
1588.014648	49336.937500
1586.972656	49020.421875
1585.929688	48752.964844
1584.887695	48674.363281
1583.844727	48700.628906
1582.800781	48507.914063
1581.757813	48995.363281
1580.714844	48884.160156
1579.670898	49112.929688
1578.626953	49655.875000
1577.583008	49516.679688
1576.538086	49533.441406
1575.494141	49566.484375
1574.449219	50048.472656
1573.404297	50360.503906
1572.359375	50477.085938
1571.314453	51137.671875
1570.269531	50889.117188
1569.223633	51065.964844
1568.177734	50884.894531
1567.131836	50146.292969
1566.085938	50148.957031
1565.040039	49979.753906
1563.993164	49692.187500
1562.946289	49116.832031
1561.899414	48615.960938
1560.852539	48451.785156
1559.805664	47825.906250
1558.757813	47562.167969
1557.709961	46908.832031
1556.662109	47208.902344
1555.614258	46924.542969
1554.566406	46554.500000
1553.517578	46481.285156
1552.469727	46072.050781
1551.420898	45980.406250
1550.372070	45949.027344
1549.322266	45611.906250
1548.273438	45907.136719
1547.223633	45317.757813
1546.173828	45180.019531
1545.124023	44503.023438
1544.074219	44981.054688
1543.024414	44674.535156
1541.973633	44821.546875
1540.922852	44519.792969
1539.872070	44377.707031
1538.821289	44203.300781
1537.770508	44165.347656
1536.718750	43595.804688
1535.666992	43835.277344
1534.615234	43885.203125
1533.563477	43627.867188
1532.511719	43830.246094
1531.458984	43709.253906
1530.407227	43389.746094
1529.354492	43116.519531
1528.300781	43238.058594
1527.248047	43181.867188
1526.195313	43335.644531
1525.141602	42622.023438
1524.087891	42881.933594
1523.034180	43155.589844
1521.980469	42799.734375
1520.925781	42656.074219
1519.871094	42574.691406
1518.817383	42532.511719
1517.762695	42361.324219
1516.707031	42683.136719
1515.652344	42378.406250
1514.596680	42009.308594
1513.541016	42022.507813
1512.485352	42033.402344
1511.429688	41936.125000
1510.374023	41735.332031
1509.317383	41882.000000
1508.260742	41982.609375
1507.204102	41259.871094
1506.147461	42287.187500
1505.090820	41737.066406
1504.033203	41639.949219
1502.975586	41437.156250
1501.917969	41928.332031
1500.860352	41509.609375
1499.802734	41350.582031
1498.744141	41373.031250
1497.686523	41556.191406
1496.627930	41741.578125
1495.569336	41701.968750
1494.509766	41276.839844
1493.451172	41374.988281
1492.391602	41629.089844
1491.332031	41341.812500
1490.272461	41481.167969
1489.212891	41255.921875
1488.152344	41567.164063
1487.092773	41282.390625
1486.032227	41527.058594
1484.971680	41356.945313
1483.910156	41257.902344
1482.849609	40817.640625
1481.788086	41137.777344
1480.726563	41128.113281
1479.665039	40983.394531
1478.603516	41081.324219
1477.541992	40625.460938
1476.479492	40947.625000
1475.416992	40693.238281
1474.354492	40834.597656
1473.291992	40916.449219
1472.229492	40959.406250
1471.166016	40707.480469
1470.102539	40823.589844
1469.039063	40994.492188
1467.975586	40724.414063
1466.912109	40982.070313
1465.847656	40801.152344
1464.783203	41122.628906
1463.718750	40953.164063
1462.654297	41030.265625
1461.589844	41077.671875
1460.524414	41202.636719
1459.458984	41133.648438
1458.393555	41263.117188
1457.328125	41365.171875
1456.262695	41300.746094
1455.196289	41174.789063
1454.130859	41406.714844
1453.064453	41773.007813
1451.998047	41405.519531
1450.930664	41229.511719
1449.864258	41433.921875
1448.796875	41745.289063
1447.729492	41867.566406
1446.662109	41898.746094
1445.594727	41950.394531
1444.526367	42097.593750
1443.458008	42203.789063
1442.390625	42166.636719
1441.321289	42898.214844
1440.252930	42742.703125
1439.184570	42648.628906
1438.115234	43191.054688
1437.045898	42683.304688
1435.976563	43441.390625
1434.907227	43717.566406
1433.836914	43514.363281
1432.767578	43349.839844
1431.697266	43766.660156
1430.626953	43865.492188
1429.555664	43544.371094
1428.485352	44042.625000
1427.414063	44411.359375
1426.342773	44544.027344
1425.271484	44642.625000
1424.200195	44539.351563
1423.128906	44735.406250
1422.056641	45065.140625
1420.984375	45170.363281
1419.912109	44756.597656
1418.839844	44970.589844
1417.767578	45336.281250
1416.694336	45074.453125
1415.621094	45150.132813
1414.547852	45067.292969
1413.474609	44796.593750
1412.400391	44381.140625
1411.327148	44339.210938
1410.252930	44249.781250
1409.178711	43938.699219
1408.104492	43546.304688
1407.029297	44024.640625
1405.955078	44003.152344
1404.879883	44747.964844
1403.804688	44459.664063
1402.729492	44578.199219
1401.653320	44696.691406
1400.578125	44839.984375
1399.501953	44163.417969
1398.425781	44360.945313
1397.349609	45037.011719
1396.272461	44647.437500
1395.196289	44950.832031
1394.119141	44778.019531
1393.041992	44896.289063
1391.964844	44894.972656
1390.886719	45121.421875
1389.809570	45627.378906
1388.731445	45713.843750
1387.653320	45903.953125
1386.575195	46109.769531
1385.497070	45713.921875
1384.417969	45777.773438
1383.338867	46154.671875
1382.259766	46227.421875
1381.180664	46072.742188
1380.101563	46438.125000
1379.021484	46249.695313
1377.941406	46284.117188
1376.861328	46104.781250
1375.781250	45882.769531
1374.701172	45923.976563
1373.620117	46208.023438
1372.539063	45502.730469
1371.458008	45377.636719
1370.376953	44892.992188
1369.295898	44705.132813
1368.213867	44897.019531
1367.132813	44695.746094
1366.050781	44907.777344
1364.967773	44733.515625
1363.885742	45026.277344
1362.802734	45242.617188
1361.720703	45382.574219
1360.637695	45369.898438
1359.554688	45610.730469
1358.470703	45346.800781
1357.387695	45298.250000
1356.303711	45249.714844
1355.219727	45320.011719
1354.135742	44574.417969
1353.050781	44194.371094
1351.966797	44291.699219
1350.881836	44252.343750
1349.796875	43767.285156
1348.711914	43784.015625
1347.626953	43491.761719
1346.541016	43459.285156
1345.455078	43395.484375
1344.369141	43208.628906
1343.283203	43337.304688
1342.197266	43363.035156
1341.110352	43030.906250
1340.023438	43461.414063
1338.936523	43395.433594
1337.849609	43720.660156
1336.762695	43314.945313
1335.674805	43103.781250
1334.586914	43636.648438
1333.499023	44091.140625
1332.411133	43893.343750
1331.323242	43604.066406
1330.234375	43783.718750
1329.145508	44173.117188
1328.056641	43756.734375
1326.967773	44081.289063
1325.878906	44726.968750
1324.789063	43996.210938
1323.699219	45127.824219
1322.609375	44816.433594
1321.519531	45481.570313
1320.429688	45210.339844
1319.338867	45917.503906
1318.248047	46261.234375
1317.157227	46399.894531
1316.066406	46894.863281
1314.975586	47476.500000
1313.883789	47686.105469
1312.791992	48080.394531
1311.700195	48679.296875
1310.608398	48096.378906
1309.516602	47862.968750
1308.423828	47691.925781
1307.331055	47507.601563
1306.238281	47527.910156
1305.145508	47241.410156
1304.051758	47055.035156
1302.958984	46604.257813
1301.865234	46704.699219
1300.771484	47053.929688
1299.677734	47247.542969
1298.583008	47814.183594
1297.489258	47530.195313
1296.394531	48884.679688
1295.299805	48716.019531
1294.204102	48738.269531
1293.109375	48733.878906
1292.013672	49053.378906
1290.917969	48563.191406
1289.822266	48301.589844
1288.726563	48470.218750
1287.630859	47481.617188
1286.534180	47391.007813
1285.437500	47431.175781
1284.340820	46744.613281
1283.244141	47106.082031
1282.146484	46165.121094
1281.048828	46650.566406
1279.951172	46557.984375
1278.853516	45925.316406
1277.755859	46040.933594
1276.658203	46087.910156
1275.559570	45791.945313
1274.460938	45861.066406
1273.362305	45436.976563
1272.262695	45302.703125
1271.164063	45133.105469
1270.064453	44727.054688
1268.964844	44729.996094
1267.865234	44759.449219
1266.765625	44433.214844
1265.665039	44047.457031
1264.564453	43840.714844
1263.463867	43905.628906
1262.363281	43643.796875
1261.262695	44006.687500
1260.161133	43859.675781
1259.059570	44118.695313
1257.958008	43916.566406
1256.856445	43807.140625
1255.754883	43882.992188
1254.652344	43341.476563
1253.549805	43919.976563
1252.447266	43554.960938
1251.344727	43212.117188
1250.242188	43076.488281
1249.138672	43297.761719
1248.035156	43565.199219
1246.931641	43467.011719
1245.828125	43362.253906
1244.724609	43187.093750
1243.620117	43075.816406
1242.515625	43129.609375
1241.411133	43174.578125
1240.306641	43659.445313
1239.201172	43629.523438
1238.096680	43243.414063
1236.991211	43009.125000
1235.885742	43317.824219
1234.779297	43593.445313
1233.673828	43077.980469
1232.567383	43193.175781
1231.460938	43328.093750
1230.354492	43166.503906
1229.248047	43349.679688
1228.140625	43131.066406
1227.033203	43590.718750
1225.926758	43674.964844
1224.818359	43752.593750
1223.710938	43584.511719
1222.602539	43589.750000
1221.495117	43329.656250
1220.386719	43729.566406
1219.278320	43182.386719
1218.168945	43393.699219
1217.060547	43442.781250
1215.951172	43461.171875
1214.841797	42850.910156
1213.731445	43445.371094
1212.622070	42572.578125
1211.511719	43201.894531
1210.402344	43191.851563
1209.291992	43157.734375
1208.180664	43469.335938
1207.070313	43367.363281
1205.958984	43278.546875
1204.847656	44022.941406
1203.736328	43905.613281
1202.625000	43510.699219
1201.512695	43679.820313
1200.401367	44222.550781
1199.289063	43795.015625
1198.176758	43662.535156
1197.063477	44014.957031
1195.951172	43950.171875
1194.837891	44206.343750
1193.724609	44669.796875
1192.611328	44816.617188
1191.498047	44804.097656
1190.383789	44261.433594
1189.269531	44905.574219
1188.155273	44177.714844
1187.041016	44272.152344
1185.926758	43620.972656
1184.811523	43582.511719
1183.696289	43217.175781
1182.581055	43387.972656
1181.465820	43678.523438
1180.350586	43380.882813
1179.234375	43527.597656
1178.118164	43504.429688
1177.001953	43518.273438
1175.885742	42935.750000
1174.768555	42608.039063
1173.652344	42870.062500
1172.535156	42981.894531
1171.417969	42974.062500
1170.299805	42370.414063
1169.182617	42723.597656
1168.064453	42667.988281
1166.946289	42416.800781
1165.828125	42695.894531
1164.709961	42121.082031
1163.590820	42347.992188
1162.471680	42466.234375
1161.352539	42145.820313
1160.233398	42481.144531
1159.114258	42555.878906
1157.994141	42383.187500
1156.874023	42299.515625
1155.753906	42365.562500
1154.633789	42097.558594
1153.513672	41879.527344
1152.392578	42199.285156
1151.271484	42234.945313
1150.150391	42827.605469
1149.029297	42122.019531
1147.907227	42222.664063
1146.786133	42368.761719
1145.664063	42261.406250
1144.541992	42199.558594
1143.418945	42830.535156
1142.296875	42489.367188
1141.173828	42527.062500
1140.050781	42900.136719
1138.927734	42909.613281
1137.803711	42733.062500
1136.680664	42826.906250
1135.556641	42741.246094
1134.432617	42962.601563
1133.308594	42937.464844
1132.183594	42756.738281
1131.059570	42826.714844
1129.934570	43021.960938
1128.809570	42642.605469
1127.684570	42433.984375
1126.558594	42465.097656
1125.432617	42718.542969
1124.307617	42583.398438
1123.180664	42331.777344
1122.054688	42412.500000
1120.928711	42361.609375
1119.801758	42133.882813
1118.674805	41957.988281
1117.547852	41911.515625
1116.419922	42108.632813
1115.292969	41475.941406
1114.165039	42069.539063
1113.037109	41771.011719
1111.909180	42073.550781
1110.780273	41792.351563
1109.652344	41612.457031
1108.523438	41615.613281
1107.394531	42014.808594
1106.264648	42116.878906
1105.135742	41618.609375
1104.005859	42077.816406
1102.875977	41947.523438
1101.746094	42073.179688
1100.616211	41859.078125
1099.485352	41986.851563
1098.355469	42095.230469
1097.224609	41799.582031
1096.092773	41824.164063
1094.961914	42201.015625
1093.830078	42042.957031
1092.699219	41874.218750
1091.567383	41939.550781
1090.434570	41521.894531
1089.302734	41640.914063
1088.169922	41607.546875
1087.037109	41516.261719
1085.904297	41845.417969
1084.771484	41548.246094
1083.637695	41068.929688
1082.504883	41209.328125
1081.371094	41718.332031
1080.236328	41554.257813
1079.102539	41420.238281
1077.968750	41052.765625
1076.833984	41465.039063
1075.699219	41358.941406
1074.564453	41432.726563
1073.428711	41562.136719
1072.292969	41807.066406
1071.158203	41572.589844
1070.022461	41244.058594
1068.885742	41704.953125
1067.750000	41740.082031
1066.613281	41644.765625
1065.476563	41754.718750
1064.339844	41700.042969
1063.203125	41747.964844
1062.065430	41808.687500
1060.927734	42040.292969
1059.790039	42083.847656
1058.652344	41702.417969
1057.514648	41743.882813
1056.375977	41962.511719
1055.237305	41690.160156
1054.098633	42085.832031
1052.959961	41898.898438
1051.820313	42164.261719
1050.681641	41644.660156
1049.541992	41764.968750
1048.402344	41829.796875
1047.261719	42009.703125
1046.122070	42189.546875
1044.981445	42066.742188
1043.840820	42120.808594
1042.700195	41827.656250
1041.558594	41981.835938
1040.417969	41980.519531
1039.276367	41859.988281
1038.134766	41590.503906
1036.992188	42289.394531
1035.850586	41915.671875
1034.708008	42056.890625
1033.565430	41823.714844
1032.422852	41962.769531
1031.280273	42080.507813
1030.136719	41915.480469
1028.994141	42077.812500
1027.850586	41936.214844
1026.706055	41854.152344
1025.562500	41646.796875
1024.417969	41826.042969
1023.273438	41952.136719
1022.128906	42078.179688
1020.984375	42042.859375
1019.839844	42092.437500
1018.694336	42152.601563
1017.548828	42023.937500
1016.403320	42202.871094
1015.256836	42008.496094
1014.111328	42174.644531
1012.964844	41827.710938
1011.818359	42038.332031
1010.671875	42384.500000
1009.524414	42118.226563
1008.377930	42510.851563
1007.230469	42384.433594
1006.083008	42605.339844
1004.934570	42650.437500
1003.787109	43195.078125
1002.638672	43589.250000
1001.490234	43629.906250
1000.341797	44573.910156
999.193359	44715.894531
998.043945	44773.230469
996.894531	44750.195313
995.745117	45192.261719
994.595703	44843.648438
993.446289	44093.640625
992.295898	44691.929688
991.145508	44502.031250
989.995117	44020.730469
988.844727	44354.730469
987.693359	44420.468750
986.541992	44127.316406
985.390625	44482.214844
984.239258	43657.390625
983.087891	43809.699219
981.935547	44029.453125
980.783203	43460.351563
979.630859	43734.906250
978.478516	43419.054688
977.325195	43630.277344
976.172852	43792.949219
975.019531	43683.746094
973.865234	43372.343750
972.711914	43566.558594
971.557617	43364.792969
970.404297	43283.113281
969.250000	43658.277344
968.094727	43597.617188
966.940430	43080.332031
965.785156	43158.660156
964.629883	43316.894531
963.474609	43571.812500
962.319336	43361.914063
961.163086	43414.898438
960.007813	43421.609375
958.851563	43438.828125
957.694336	43651.457031
956.538086	43981.652344
955.380859	43528.242188
954.223633	43826.835938
953.066406	43774.664063
951.909180	43733.003906
950.751953	43399.609375
949.593750	43355.929688
948.435547	43603.914063
947.277344	43530.843750
946.118164	43348.734375
944.959961	43361.710938
943.800781	43345.328125
942.641602	43433.757813
941.482422	43513.773438
940.322266	43855.687500
939.162109	43585.714844
938.001953	43357.734375
936.841797	43768.593750
935.681641	43440.152344
934.520508	43976.449219
933.360352	44047.875000
932.198242	43930.925781
931.037109	43759.613281
929.875977	43939.816406
928.713867	43977.718750
927.551758	44283.285156
926.389648	44421.464844
925.227539	43965.914063
924.064453	44223.234375
922.901367	44708.230469
921.738281	44388.671875
920.575195	44246.789063
919.412109	44533.097656
918.248047	44529.050781
917.083984	44792.230469
915.919922	44963.468750
914.755859	44928.035156
913.590820	44782.023438
912.426758	45145.089844
911.261719	45332.816406
910.095703	45218.085938
908.930664	45505.804688
907.764648	45443.199219
906.598633	45647.394531
905.432617	45797.335938
904.266602	45730.535156
903.099609	45149.226563
901.933594	45311.667969
900.766602	45297.042969
899.599609	45190.820313
898.431641	45444.742188
897.264648	44905.640625
896.096680	44993.054688
894.928711	45338.406250
893.759766	45700.269531
892.591797	45504.648438
891.422852	45250.882813
890.253906	45371.406250
889.084961	45217.519531
887.916016	45038.750000
886.746094	45410.644531
885.576172	45362.773438
884.406250	45296.226563
883.236328	44934.832031
882.065430	45038.632813
880.895508	45680.023438
879.724609	45617.609375
878.552734	45202.460938
877.381836	45391.187500
876.209961	46322.429688
875.039063	45691.691406
873.866211	45927.906250
872.694336	45973.304688
871.522461	45780.320313
870.349609	45842.304688
869.176758	46092.812500
868.003906	46150.570313
866.830078	46208.304688
865.657227	46497.941406
864.483398	47191.207031
863.309570	47064.472656
862.135742	47105.429688
860.960938	47227.066406
859.786133	47203.839844
858.611328	47486.753906
857.436523	47283.550781
856.261719	47485.703125
855.085938	47055.164063
853.910156	46918.292969
852.734375	47304.316406
851.558594	46985.617188
850.382813	46772.394531
849.206055	46964.074219
848.029297	46777.773438
846.852539	46864.078125
845.674805	47257.929688
844.498047	47507.156250
843.320313	47595.335938
842.142578	47530.804688
840.963867	47988.179688
839.786133	48268.011719
838.607422	48659.089844
837.428711	48757.269531
836.250000	49067.718750
835.070313	49174.027344
833.891602	48779.597656
832.711914	49211.406250
831.532227	48631.738281
830.352539	48744.218750
829.171875	47433.921875
827.991211	47783.312500
826.810547	46965.582031
825.629883	47057.695313
824.449219	46326.812500
823.267578	47032.003906
822.085938	46727.117188
820.904297	46335.976563
819.722656	46193.742188
818.540039	45913.843750
817.357422	46065.617188
816.174805	46447.464844
814.992188	46056.730469
813.809570	46202.226563
812.625977	46039.628906
811.442383	45996.171875
810.258789	45967.101563
809.074219	46194.597656
807.890625	46440.476563
806.706055	46528.277344
805.521484	46129.886719
804.336914	45774.707031
803.151367	45825.671875
801.966797	46063.175781
800.781250	45855.789063
799.594727	46164.925781
798.409180	45877.679688
797.222656	45594.632813
796.037109	44971.679688
794.849609	45000.183594
793.663086	45202.710938
792.476563	44768.507813
791.289063	44807.257813
790.101563	44657.730469
788.914063	44469.378906
787.725586	44995.015625
786.538086	44471.250000
785.349609	44816.738281
784.161133	44718.449219
782.971680	44873.656250
781.783203	44546.492188
780.593750	44446.257813
779.404297	44333.800781
778.214844	44333.722656
777.024414	43957.882813
775.834961	43845.574219
774.644531	44245.699219
773.454102	43984.375000
772.262695	44198.625000
771.072266	44153.671875
769.880859	44108.738281
768.689453	43906.773438
767.497070	43974.046875
766.305664	44581.566406
765.113281	44344.968750
763.920898	44487.527344
762.728516	45070.152344
761.536133	44688.945313
760.342773	44810.984375
759.149414	45165.132813
757.956055	45124.144531
756.762695	45132.027344
755.568359	45414.675781
754.374023	45550.699219
753.179688	44891.144531
751.985352	45147.230469
750.791016	44967.976563
749.595703	45128.375000
748.400391	44394.160156
747.205078	44747.707031
746.009766	44560.523438
744.813477	44373.410156
743.617188	43940.542969
742.420898	44501.085938
741.224609	44423.742188
740.027344	43915.976563
738.830078	43702.757813
737.632813	43883.367188
736.435547	43854.894531
735.238281	43933.960938
734.040039	43621.488281
732.841797	43621.464844
731.643555	43522.082031
730.445313	43388.265625
729.246094	43313.281250
728.046875	42857.316406
726.847656	43532.171875
725.648438	43228.269531
724.449219	43896.726563
723.249023	43422.757813
722.048828	43102.843750
720.848633	43870.132813
719.647461	43501.675781
718.447266	43505.699219
717.246094	43210.281250
716.044922	43580.492188
714.842773	43728.085938
713.641602	43374.144531
712.439453	43651.109375
711.237305	43855.203125
710.035156	43798.511719
708.832031	44010.578125
707.629883	43699.328125
706.426758	44222.386719
705.223633	44359.527344
704.019531	44280.578125
702.815430	44365.167969
701.612305	44582.933594
700.408203	44796.578125
699.203125	44689.351563
697.999023	45076.371094
696.793945	44914.671875
695.588867	44882.082031
694.383789	44914.019531
693.177734	45470.019531
691.971680	45822.261719
690.766602	45551.757813
689.559570	45470.718750
688.353516	45651.554688
687.146484	45852.457031
685.939453	45682.808594
684.732422	45889.667969
683.525391	46036.062500
682.318359	45606.882813
681.110352	45381.066406
679.902344	45328.328125
678.693359	45880.968750
677.485352	45558.703125
676.276367	45395.378906
675.067383	45197.941406
673.858398	45462.804688
672.649414	45548.734375
671.439453	45056.066406
670.229492	45409.171875
669.019531	45312.316406
667.809570	45018.730469
666.598633	44954.097656
665.387695	44285.371094
664.176758	44283.101563
662.965820	44242.710938
661.754883	44354.785156
660.542969	44482.859375
659.331055	44263.992188
658.119141	44127.398438
656.906250	44556.097656
655.694336	43990.632813
654.481445	44118.644531
653.268555	44232.582031
652.054688	44106.128906
650.841797	44095.863281
649.627930	44359.898438
648.414063	44743.941406
647.200195	44939.703125
645.985352	44711.167969
644.770508	45266.980469
643.555664	45280.500000
642.340820	45877.992188
641.125977	45395.503906
639.910156	45836.808594
638.694336	45648.328125
637.478516	45170.144531
636.262695	45195.644531
635.045898	45141.226563
633.829102	44929.042969
632.612305	44665.011719
631.395508	44329.207031
630.177734	44221.085938
628.959961	44428.339844
627.742188	44146.636719
626.524414	43865.039063
625.306641	43643.382813
624.087891	44000.152344
622.869141	43696.800781
621.650391	44141.136719
620.430664	44083.027344
619.211914	43634.351563
617.992188	44080.437500
616.772461	43990.492188
615.551758	43643.652344
614.332031	43800.742188
613.111328	44091.160156
611.890625	44234.167969
610.669922	44283.582031
609.448242	44157.871094
608.226563	43785.515625
607.004883	43733.535156
605.783203	43870.500000
604.561523	43907.996094
603.338867	43792.402344
602.116211	43996.851563
600.893555	43781.917969
599.669922	44494.914063
598.447266	43684.031250
597.223633	44108.792969
596.000000	44106.464844
594.775391	44540.906250
593.551758	44330.074219
592.327148	44569.820313
591.102539	44353.105469
589.877930	44668.136719
588.652344	44869.992188
587.426758	44677.132813
586.201172	44833.300781
584.975586	44923.992188
583.750000	45171.222656
582.523438	45004.207031
581.296875	45031.406250
580.070313	46007.429688
578.842773	45854.203125
577.616211	46152.500000
576.388672	46157.679688
575.161133	46342.980469
573.932617	46253.125000
572.705078	46400.738281
571.476563	46170.449219
570.248047	45898.707031
569.018555	46281.621094
567.790039	46126.605469
566.560547	45554.550781
565.331055	45518.308594
564.101563	45357.593750
562.871094	45228.542969
561.641602	45328.671875
560.411133	45067.355469
559.179688	44861.417969
557.949219	44825.339844
556.717773	44189.234375
555.486328	44573.628906
554.254883	44421.203125
553.023438	44217.546875
551.791016	44155.968750
550.558594	43944.546875
549.326172	44243.835938
548.093750	43833.382813
546.860352	44223.234375
545.627930	43824.753906
544.393555	44037.148438
543.160156	44338.101563
541.926758	43731.070313
540.692383	44136.312500
539.458008	44411.476563
538.223633	43958.292969
536.988281	44052.335938
535.752930	44042.070313
534.517578	44051.472656
533.282227	44037.273438
532.046875	44483.203125
530.810547	44358.824219
529.574219	44401.570313
528.337891	44532.734375
527.101563	44268.902344
525.864258	44596.488281
524.626953	44535.050781
523.389648	44685.718750
522.152344	44541.816406
520.914063	44555.011719
519.675781	44715.398438
518.437500	44296.843750
517.199219	44731.886719
515.959961	44623.410156
514.721680	44805.226563
513.482422	45194.820313
512.242188	44411.917969
511.002930	45095.441406
509.762695	44922.320313
508.522461	44956.949219
507.282227	44611.523438
506.041016	44746.078125
504.800781	44639.722656
503.559570	44239.726563
502.318359	44316.113281
501.076172	44392.558594
499.833984	44469.007813
498.592773	44545.394531
497.349609	44621.898438
496.107422	44698.347656
494.864258	44774.855469
493.622070	44851.300781
492.377930	44774.421875
491.134766	44869.535156
489.891602	45480.414063
488.647461	45098.718750
487.403320	45228.863281
486.158203	45036.765625
484.914063	45244.964844
483.668945	45146.625000
482.423828	45030.757813
481.178711	45110.054688
479.932617	45292.710938
478.686523	45286.101563
477.440430	45285.343750
476.194336	45920.195313
474.948242	45790.656250
473.701172	45797.589844
472.454102	46005.230469
471.207031	45778.324219
469.958984	45796.941406
468.711914	45790.226563
467.463867	46060.011719
466.215820	46164.214844
464.966797	45966.679688
463.718750	46103.941406
462.469727	45941.511719
461.220703	46673.984375
459.970703	46844.089844
458.721680	46685.496094
457.471680	47032.453125
456.221680	47326.792969
454.970703	46927.199219
453.720703	47252.531250
452.469727	47340.726563
451.218750	47739.664063
449.966797	47831.613281
448.715820	47548.789063
447.463867	48277.468750
446.211914	48716.679688
444.959961	48268.894531
443.707031	48622.566406
442.454102	49327.207031
441.201172	49032.765625
439.948242	48790.792969
438.695313	48436.464844
437.441406	48279.976563
436.187500	47394.871094
434.933594	47196.007813
433.678711	47295.550781
432.424805	46769.449219
431.169922	46845.792969
429.914063	46259.949219
428.659180	47044.847656
427.403320	46352.738281
426.147461	46566.480469
424.891602	46739.511719
423.635742	45970.476563
422.378906	46572.882813
421.122070	46090.332031
419.865234	46232.382813
418.608398	46366.644531
417.350586	46135.621094
416.092773	46287.238281
414.834961	46326.753906
413.577148	46064.957031
412.318359	46517.730469
411.059570	46113.128906
409.800781	46355.316406
408.541992	46387.050781
407.282227	46110.042969
406.022461	46047.281250
404.762695	46503.382813
403.502930	46691.261719
402.242188	46335.347656
400.981445	46066.316406
