EXPLAIN
TAG	CHRONOA
TITLE	LABEL	Chronoamperometry Scan	Test Identifier
DATE	LABEL	10/2/2022	Date
TIME	LABEL	18:56:06	Time
NOTES	NOTES	1	Notes...
	
PSTAT	PSTAT	IFC1010-21051	Potentiostat
VPRESTEP	POTEN	1.00000E-001	F	Pre-step Voltage (V)
TPRESTEP	QUANT	5.00000E-001	Pre-step Delay Time (s)
VSTEP1	POTEN	0.00000E+000	F	Step 1 Voltage (V)
TSTEP1	QUANT	6.00000E+001	Step 1 Time (s)
VSTEP2	POTEN	1.00000E-001	F	Step 2 Voltage (V)
TSTEP2	QUANT	1.00000E+000	Step 2 Time (s)
SAMPLETIME	QUANT	1.00000E-002	Sample Period (s)
DECIMATE	TOGGLE	T	Decimate
ILIMIT	QUANT	1.00000E+000	Limit I (mA/cm^2)
IMODE	SELECTOR	1	I/E Range Mode
IRANGE	QUANT	3.00000E-001	Max Current (mA)
EQDELAY	QUANT	5.00000E+000	Equil. Time (s)
SAMPLINGMODE	SELECTOR	1	Sampling Mode
AREA	QUANT	1.00000E+000	Sample Area (cm^2)
IRCOMP	SELECTOR	0	IRComp
PFCOR	QUANT	5.00000E+001	PF Corr. (ohm)
SEQUENCER	TOGGLE	TRUE	Run as Sequence
PSTATMODEL	IQUANT	64	Pstat Model
PSTATSECTION	LABEL	IFC1010-21051	Pstat Section
PSTATSERIALNO	LABEL	21051	Pstat Serial Number
CTRLMODE	IQUANT	1	Control Mode
ELECTROMETER	IQUANT	0	RE=0 or CS=1
IESTAB	IQUANT	0	I/E Stability
CASPEED	IQUANT	4	Control Amp Speed
CONVENTION	IQUANT	1	Current Convention
ICHRANGE	IQUANT	2	Ich Range
ICHRANGEMODE	TOGGLE	T	Ich Auto Range
ICHOFFSETENABLE	TOGGLE	F	Ich Offset Enable
ICHOFFSET	QUANT	0	Ich Offset (V)
ICHFILTER	IQUANT	3	Ich Filter
VCHRANGE	IQUANT	3	Vch Range
VCHRANGEMODE	TOGGLE	T	Vch Auto Range
VCHOFFSETENABLE	TOGGLE	F	Vch Offset Enable
VCHOFFSET	QUANT	0	Vch Offset (V)
VCHFILTER	IQUANT	3	Vch Filter
IERANGELOWERLIMIT	IQUANT	4	I/E Range Lower Limit
IERANGEMODE	TOGGLE	F	I/E AutoRange
IERANGE	IQUANT	9	I/E Range
ACHSELECT	IQUANT	0	Ach Select
ACHRANGE	IQUANT	2	Ach Range
ACHOFFSETENABLE	TOGGLE	F	Ach Offset Enable
ACHOFFSET	QUANT	0	Ach Offset (V)
ACHFILTER	IQUANT	1	Ach Filter
SENSECABLEID	IQUANT	14	Sense Cable ID
PWRCABLEID	IQUANT	14	Power Cable ID
DCCALDATE	LABEL	1/24/2022	DC Calibration Date
ACCALDATE	LABEL	4/2/2018	AC Calibration Date
FRAMEWORKVERSION	QUANT	7.06	Framework Version
INSTRUMENTVERSION	LABEL	4.30	Instrument Version
CURVE	TABLE	201
	Pt	T	Vf	Im	Vu	Sig	Ach	IERange	Over	Temp
	#	s	V vs. Ref.	A	V	V	V	#	bits	deg C
	0	-0.49	9.90741E-002	-8.42281E-005	0.00000E+000	9.99387E-002	0.00000E+000	9	...........	1426.22
	1	-0.48	9.97727E-002	-8.41603E-005	0.00000E+000	9.99387E-002	0.00000E+000	9	...........	1426.22
	2	-0.47	9.99512E-002	-8.40352E-005	0.00000E+000	9.99387E-002	0.00000E+000	9	...........	1426.22
	3	-0.46	9.99490E-002	-8.39887E-005	0.00000E+000	9.99387E-002	0.00000E+000	9	...........	1426.22
	4	-0.45	9.99537E-002	-8.38450E-005	0.00000E+000	9.99387E-002	0.00000E+000	9	...........	1426.22
	5	-0.44	9.99524E-002	-8.37930E-005	0.00000E+000	9.99387E-002	0.00000E+000	9	...........	1426.22
	6	-0.43	9.99543E-002	-8.36534E-005	0.00000E+000	9.99387E-002	0.00000E+000	9	...........	1426.22
	7	-0.42	9.99550E-002	-8.36236E-005	0.00000E+000	9.99387E-002	0.00000E+000	9	...........	1426.22
	8	-0.41	9.99506E-002	-8.34671E-005	0.00000E+000	9.99387E-002	0.00000E+000	9	...........	1426.22
	9	-0.4	9.99530E-002	-8.34673E-005	0.00000E+000	9.99387E-002	0.00000E+000	9	...........	1426.22
	10	-0.39	9.99528E-002	-8.32855E-005	0.00000E+000	9.99387E-002	0.00000E+000	9	...........	1426.22
	11	-0.38	9.99525E-002	-8.32972E-005	0.00000E+000	9.99387E-002	0.00000E+000	9	...........	1426.22
	12	-0.37	9.99509E-002	-8.31053E-005	0.00000E+000	9.99387E-002	0.00000E+000	9	...........	1426.22
	13	-0.36	9.99489E-002	-8.31381E-005	0.00000E+000	9.99387E-002	0.00000E+000	9	...........	1426.22
	14	-0.35	9.99525E-002	-8.29282E-005	0.00000E+000	9.99387E-002	0.00000E+000	9	...........	1426.22
	15	-0.34	9.99484E-002	-8.29707E-005	0.00000E+000	9.99387E-002	0.00000E+000	9	...........	1426.22
	16	-0.33	9.99526E-002	-8.27575E-005	0.00000E+000	9.99387E-002	0.00000E+000	9	...........	1426.22
	17	-0.32	9.99500E-002	-8.27950E-005	0.00000E+000	9.99387E-002	0.00000E+000	9	...........	1426.22
	18	-0.31	9.99525E-002	-8.25736E-005	0.00000E+000	9.99387E-002	0.00000E+000	9	...........	1426.22
	19	-0.3	9.99474E-002	-8.26404E-005	0.00000E+000	9.99387E-002	0.00000E+000	9	...........	1426.22
	20	-0.29	9.99498E-002	-8.24241E-005	0.00000E+000	9.99387E-002	0.00000E+000	9	...........	1426.22
	21	-0.28	9.99507E-002	-8.24710E-005	0.00000E+000	9.99387E-002	0.00000E+000	9	...........	1426.22
	22	-0.27	9.99536E-002	-8.22141E-005	0.00000E+000	9.99387E-002	0.00000E+000	9	...........	1426.22
	23	-0.26	9.99510E-002	-8.23173E-005	0.00000E+000	9.99387E-002	0.00000E+000	9	...........	1426.22
	24	-0.25	9.99518E-002	-8.20590E-005	0.00000E+000	9.99387E-002	0.00000E+000	9	...........	1426.22
	25	-0.24	9.99525E-002	-8.21713E-005	0.00000E+000	9.99387E-002	0.00000E+000	9	...........	1426.22
	26	-0.23	9.99539E-002	-8.19082E-005	0.00000E+000	9.99387E-002	0.00000E+000	9	...........	1426.22
	27	-0.22	9.99520E-002	-8.20100E-005	0.00000E+000	9.99387E-002	0.00000E+000	9	...........	1426.22
	28	-0.21	9.99508E-002	-8.17347E-005	0.00000E+000	9.99387E-002	0.00000E+000	9	...........	1426.22
	29	-0.2	9.99518E-002	-8.18415E-005	0.00000E+000	9.99387E-002	0.00000E+000	9	...........	1426.22
	30	-0.19	9.99516E-002	-8.15587E-005	0.00000E+000	9.99387E-002	0.00000E+000	9	...........	1426.22
	31	-0.18	9.99501E-002	-8.16730E-005	0.00000E+000	9.99387E-002	0.00000E+000	9	...........	1426.22
	32	-0.17	9.99514E-002	-8.14010E-005	0.00000E+000	9.99387E-002	0.00000E+000	9	...........	1426.22
	33	-0.16	9.99458E-002	-8.15373E-005	0.00000E+000	9.99387E-002	0.00000E+000	9	...........	1426.22
	34	-0.15	9.99512E-002	-8.12145E-005	0.00000E+000	9.99387E-002	0.00000E+000	9	...........	1426.22
	35	-0.14	9.99494E-002	-8.13638E-005	0.00000E+000	9.99387E-002	0.00000E+000	9	...........	1426.22
	36	-0.13	9.99537E-002	-8.10724E-005	0.00000E+000	9.99387E-002	0.00000E+000	9	...........	1426.22
	37	-0.12	9.99521E-002	-8.11989E-005	0.00000E+000	9.99387E-002	0.00000E+000	9	...........	1426.22
	38	-0.11	9.99540E-002	-8.09036E-005	0.00000E+000	9.99387E-002	0.00000E+000	9	...........	1426.22
	39	-0.1	9.99533E-002	-8.10677E-005	0.00000E+000	9.99387E-002	0.00000E+000	9	...........	1426.22
	40	-0.09	9.99533E-002	-8.07395E-005	0.00000E+000	9.99387E-002	0.00000E+000	9	...........	1426.22
	41	-0.08	9.99502E-002	-8.09066E-005	0.00000E+000	9.99387E-002	0.00000E+000	9	...........	1426.22
	42	-0.07	9.99519E-002	-8.05902E-005	0.00000E+000	9.99387E-002	0.00000E+000	9	...........	1426.22
	43	-0.06	9.99505E-002	-8.07751E-005	0.00000E+000	9.99387E-002	0.00000E+000	9	...........	1426.22
	44	-0.05	9.99557E-002	-8.04465E-005	0.00000E+000	9.99387E-002	0.00000E+000	9	...........	1426.22
	45	-0.04	9.99490E-002	-8.06383E-005	0.00000E+000	9.99387E-002	0.00000E+000	9	...........	1426.22
	46	-0.03	9.99546E-002	-8.02766E-005	0.00000E+000	9.99387E-002	0.00000E+000	9	...........	1426.22
	47	-0.02	9.99525E-002	-8.04782E-005	0.00000E+000	9.99387E-002	0.00000E+000	9	...........	1426.22
	48	-0.01	9.99514E-002	-8.01464E-005	0.00000E+000	9.99387E-002	0.00000E+000	9	...........	1426.22
	49	0	9.99498E-002	-8.03202E-005	0.00000E+000	9.99387E-002	0.00000E+000	9	...........	1426.22
	50	0.01	-6.71194E-005	-6.70216E-004	0.00000E+000	-6.08154E-005	0.00000E+000	9	...........	1426.22
	51	0.02	-5.40686E-005	-5.95076E-004	0.00000E+000	-6.08154E-005	0.00000E+000	9	...........	1426.22
	52	0.03	-5.42688E-005	-5.38723E-004	0.00000E+000	-6.08154E-005	0.00000E+000	9	...........	1426.22
	53	0.04	-5.58207E-005	-4.93955E-004	0.00000E+000	-6.08154E-005	0.00000E+000	9	...........	1426.22
	54	0.05	-5.52867E-005	-4.56515E-004	0.00000E+000	-6.08154E-005	0.00000E+000	9	...........	1426.22
	55	0.06	-5.41186E-005	-4.25718E-004	0.00000E+000	-6.08154E-005	0.00000E+000	9	...........	1426.22
	56	0.07	-5.27169E-005	-3.99062E-004	0.00000E+000	-6.08154E-005	0.00000E+000	9	...........	1426.22
	57	0.08	-5.52617E-005	-3.76849E-004	0.00000E+000	-6.08154E-005	0.00000E+000	9	...........	1426.22
	58	0.09	-5.34845E-005	-3.57061E-004	0.00000E+000	-6.08154E-005	0.00000E+000	9	...........	1426.22
	59	0.1	-5.30256E-005	-3.40492E-004	0.00000E+000	-6.08154E-005	0.00000E+000	9	...........	1426.22
	60	0.11	-5.40519E-005	-3.25376E-004	0.00000E+000	-6.08154E-005	0.00000E+000	9	...........	1426.22
	61	0.12	-5.35596E-005	-3.12734E-004	0.00000E+000	-6.08154E-005	0.00000E+000	9	...........	1426.22
	62	0.13	-5.14737E-005	-3.00864E-004	0.00000E+000	-6.08154E-005	0.00000E+000	9	...........	1426.22
	63	0.14	-5.20828E-005	-2.91038E-004	0.00000E+000	-6.08154E-005	0.00000E+000	9	...........	1426.22
	64	0.15	-5.30507E-005	-2.81539E-004	0.00000E+000	-6.08154E-005	0.00000E+000	9	...........	1426.22
	65	0.16	-5.32259E-005	-2.73756E-004	0.00000E+000	-6.08154E-005	0.00000E+000	9	...........	1426.22
	66	0.17	-5.21829E-005	-2.66007E-004	0.00000E+000	-6.08154E-005	0.00000E+000	9	...........	1426.22
	67	0.18	-5.62045E-005	-2.59751E-004	0.00000E+000	-6.08154E-005	0.00000E+000	9	...........	1426.22
	68	0.19	-5.29339E-005	-2.53329E-004	0.00000E+000	-6.08154E-005	0.00000E+000	9	...........	1426.22
	69	0.2	-5.33677E-005	-2.48225E-004	0.00000E+000	-6.08154E-005	0.00000E+000	9	...........	1426.22
	70	0.21	-5.13235E-005	-2.42807E-004	0.00000E+000	-6.08154E-005	0.00000E+000	9	...........	1426.22
	71	0.22	-4.95881E-005	-2.38620E-004	0.00000E+000	-6.08154E-005	0.00000E+000	9	...........	1426.22
	72	0.23	-5.23248E-005	-2.33965E-004	0.00000E+000	-6.08154E-005	0.00000E+000	9	...........	1426.22
	73	0.24	-5.31007E-005	-2.30531E-004	0.00000E+000	-6.08154E-005	0.00000E+000	9	...........	1426.22
	74	0.25	-4.94879E-005	-2.26433E-004	0.00000E+000	-6.08154E-005	0.00000E+000	9	...........	1426.22
	75	0.26	-5.36514E-005	-2.23597E-004	0.00000E+000	-6.08154E-005	0.00000E+000	9	...........	1426.22
	76	0.27	-5.34762E-005	-2.20002E-004	0.00000E+000	-6.08154E-005	0.00000E+000	9	...........	1426.22
	77	0.28	-5.49196E-005	-2.17591E-004	0.00000E+000	-6.08154E-005	0.00000E+000	9	...........	1426.22
	78	0.29	-5.24416E-005	-2.14364E-004	0.00000E+000	-6.08154E-005	0.00000E+000	9	...........	1426.22
	79	0.3	-5.32342E-005	-2.12334E-004	0.00000E+000	-6.08154E-005	0.00000E+000	9	...........	1426.22
	80	0.31	-5.25250E-005	-2.09422E-004	0.00000E+000	-6.08154E-005	0.00000E+000	9	...........	1426.22
	81	0.32	-5.35513E-005	-2.07706E-004	0.00000E+000	-6.08154E-005	0.00000E+000	9	...........	1426.22
	82	0.33	-5.26085E-005	-2.05064E-004	0.00000E+000	-6.08154E-005	0.00000E+000	9	...........	1426.22
	83	0.34	-5.39267E-005	-2.03627E-004	0.00000E+000	-6.08154E-005	0.00000E+000	9	...........	1426.22
	84	0.35	-5.42355E-005	-2.01161E-004	0.00000E+000	-6.08154E-005	0.00000E+000	9	...........	1426.22
	85	0.36	-5.59042E-005	-1.99943E-004	0.00000E+000	-6.08154E-005	0.00000E+000	9	...........	1426.22
	86	0.37	-5.38183E-005	-1.97660E-004	0.00000E+000	-6.08154E-005	0.00000E+000	9	...........	1426.22
	87	0.38	-5.44107E-005	-1.96652E-004	0.00000E+000	-6.08154E-005	0.00000E+000	9	...........	1426.22
	88	0.39	-5.09898E-005	-1.94488E-004	0.00000E+000	-6.08154E-005	0.00000E+000	9	...........	1426.22
	89	0.4	-5.71057E-005	-1.93669E-004	0.00000E+000	-6.08154E-005	0.00000E+000	9	...........	1426.22
	90	0.41	-5.75228E-005	-1.91736E-004	0.00000E+000	-6.08154E-005	0.00000E+000	9	...........	1426.22
	91	0.42	-5.07478E-005	-1.91076E-004	0.00000E+000	-6.08154E-005	0.00000E+000	9	...........	1426.22
	92	0.43	-5.28588E-005	-1.89100E-004	0.00000E+000	-6.08154E-005	0.00000E+000	9	...........	1426.22
	93	0.44	-5.77398E-005	-1.88580E-004	0.00000E+000	-6.08154E-005	0.00000E+000	9	...........	1426.22
	94	0.45	-5.02305E-005	-1.86684E-004	0.00000E+000	-6.08154E-005	0.00000E+000	9	...........	1426.22
	95	0.46	-5.76313E-005	-1.86275E-004	0.00000E+000	-6.08154E-005	0.00000E+000	9	...........	1426.22
	96	0.47	-4.99635E-005	-1.84429E-004	0.00000E+000	-6.08154E-005	0.00000E+000	9	...........	1426.22
	97	0.48	-5.73810E-005	-1.84197E-004	0.00000E+000	-6.08154E-005	0.00000E+000	9	...........	1426.22
	98	0.49	-5.03223E-005	-1.82382E-004	0.00000E+000	-6.08154E-005	0.00000E+000	9	...........	1426.22
	99	0.5	-5.51699E-005	-1.82170E-004	0.00000E+000	-6.08154E-005	0.00000E+000	9	...........	1426.22
	100	0.51	-5.11233E-005	-1.80427E-004	0.00000E+000	-6.08154E-005	0.00000E+000	9	...........	1426.22
	101	0.52	-5.66801E-005	-1.80316E-004	0.00000E+000	-6.08154E-005	0.00000E+000	9	...........	1426.22
	102	0.53	-5.18992E-005	-1.78584E-004	0.00000E+000	-6.08154E-005	0.00000E+000	9	...........	1426.22
	103	0.54	-5.38600E-005	-1.78541E-004	0.00000E+000	-6.08154E-005	0.00000E+000	9	...........	1426.22
	104	0.55	-5.05810E-005	-1.76845E-004	0.00000E+000	-6.08154E-005	0.00000E+000	9	...........	1426.22
	105	0.56	-5.62379E-005	-1.76905E-004	0.00000E+000	-6.08154E-005	0.00000E+000	9	...........	1426.22
	106	0.57	-5.08146E-005	-1.75219E-004	0.00000E+000	-6.08154E-005	0.00000E+000	9	...........	1426.22
	107	0.58	-5.50948E-005	-1.75374E-004	0.00000E+000	-6.08154E-005	0.00000E+000	9	...........	1426.22
	108	0.59	-4.90624E-005	-1.73690E-004	0.00000E+000	-6.08154E-005	0.00000E+000	9	...........	1426.22
	109	0.6	-5.89329E-005	-1.73905E-004	0.00000E+000	-6.08154E-005	0.00000E+000	9	...........	1426.22
	110	0.61	-5.35596E-005	-1.72203E-004	0.00000E+000	-6.08154E-005	0.00000E+000	9	...........	1426.22
	111	0.71	-5.31007E-005	-1.65743E-004	0.00000E+000	-6.08154E-005	0.00000E+000	9	...........	1426.22
	112	0.81	-5.14821E-005	-1.60335E-004	0.00000E+000	-6.08154E-005	0.00000E+000	9	...........	1425.95
	113	0.91	-5.48529E-005	-1.55630E-004	0.00000E+000	-6.08154E-005	0.00000E+000	9	...........	1425.95
	114	1.01	-5.61044E-005	-1.51390E-004	0.00000E+000	-6.08154E-005	0.00000E+000	9	...........	1425.95
	115	1.11	-5.44190E-005	-1.47458E-004	0.00000E+000	-6.08154E-005	0.00000E+000	9	...........	1425.95
	116	1.21	-5.59459E-005	-1.43805E-004	0.00000E+000	-6.08154E-005	0.00000E+000	9	...........	1425.95
	117	1.31	-5.30924E-005	-1.40259E-004	0.00000E+000	-6.08154E-005	0.00000E+000	9	...........	1425.95
	118	1.41	-5.43356E-005	-1.36912E-004	0.00000E+000	-6.08154E-005	0.00000E+000	9	...........	1425.95
	119	1.51	-5.67969E-005	-1.33737E-004	0.00000E+000	-6.08154E-005	0.00000E+000	9	...........	1425.95
	120	1.61	-5.41854E-005	-1.30635E-004	0.00000E+000	-6.08154E-005	0.00000E+000	9	...........	1425.95
	121	2.61	-5.49280E-005	-1.02977E-004	0.00000E+000	-6.08154E-005	0.00000E+000	9	...........	1426.49
	122	3.61	-5.44023E-005	-8.24549E-005	0.00000E+000	-6.08154E-005	0.00000E+000	9	...........	1426.49
	123	4.61	-5.32426E-005	-6.77592E-005	0.00000E+000	-6.08154E-005	0.00000E+000	9	...........	1426.57
	124	5.61	-5.40269E-005	-5.76885E-005	0.00000E+000	-6.08154E-005	0.00000E+000	9	...........	1426.57
	125	6.61	-5.32092E-005	-5.02464E-005	0.00000E+000	-6.08154E-005	0.00000E+000	9	...........	1426.57
	126	7.61	-5.47110E-005	-4.46431E-005	0.00000E+000	-6.08154E-005	0.00000E+000	9	...........	1426.57
	127	8.61	-5.41020E-005	-3.98682E-005	0.00000E+000	-6.08154E-005	0.00000E+000	9	...........	1426.57
	128	9.61	-5.45609E-005	-3.59770E-005	0.00000E+000	-6.08154E-005	0.00000E+000	9	...........	1426.57
	129	10.61	-5.46693E-005	-3.30520E-005	0.00000E+000	-6.08154E-005	0.00000E+000	9	...........	1426.57
	130	11.61	-5.72475E-005	-3.07866E-005	0.00000E+000	-6.08154E-005	0.00000E+000	9	...........	1426.57
	131	21.61	-5.55120E-005	-1.99310E-005	0.00000E+000	-6.08154E-005	0.00000E+000	9	...........	1426.57
	132	31.61	-5.67219E-005	-1.49330E-005	0.00000E+000	-6.08154E-005	0.00000E+000	9	...........	1426.57
	133	41.61	-5.70806E-005	-1.14695E-005	0.00000E+000	-6.08154E-005	0.00000E+000	9	...........	1426.49
	134	51.61	-5.32092E-005	-1.14625E-005	0.00000E+000	-6.08154E-005	0.00000E+000	9	...........	1426.57
	135	60	-5.80151E-005	-8.36653E-006	0.00000E+000	-6.08154E-005	0.00000E+000	9	...........	1426.57
	136	60.01	3.26887E-002	5.74921E-004	0.00000E+000	9.99387E-002	0.00000E+000	9	.........v.	1426.57
	137	60.02	9.88055E-002	4.84507E-004	0.00000E+000	9.99387E-002	0.00000E+000	9	...........	1426.57
	138	60.03	9.97427E-002	4.13933E-004	0.00000E+000	9.99387E-002	0.00000E+000	9	...........	1426.57
	139	60.04	9.99013E-002	3.60953E-004	0.00000E+000	9.99387E-002	0.00000E+000	9	...........	1426.57
	140	60.05	9.99301E-002	3.12727E-004	0.00000E+000	9.99387E-002	0.00000E+000	9	...........	1426.57
	141	60.06	9.99398E-002	2.76506E-004	0.00000E+000	9.99387E-002	0.00000E+000	9	...........	1426.57
	142	60.07	9.99462E-002	2.41607E-004	0.00000E+000	9.99387E-002	0.00000E+000	9	...........	1426.57
	143	60.08	9.99433E-002	2.16151E-004	0.00000E+000	9.99387E-002	0.00000E+000	9	...........	1426.57
	144	60.09	9.99469E-002	1.90156E-004	0.00000E+000	9.99387E-002	0.00000E+000	9	...........	1426.57
	145	60.1	9.99458E-002	1.72150E-004	0.00000E+000	9.99387E-002	0.00000E+000	9	...........	1426.57
	146	60.11	9.99520E-002	1.52331E-004	0.00000E+000	9.99387E-002	0.00000E+000	9	...........	1426.57
	147	60.12	9.99517E-002	1.39538E-004	0.00000E+000	9.99387E-002	0.00000E+000	9	...........	1426.57
	148	60.13	9.99522E-002	1.24067E-004	0.00000E+000	9.99387E-002	0.00000E+000	9	...........	1426.57
	149	60.14	9.99565E-002	1.14979E-004	0.00000E+000	9.99387E-002	0.00000E+000	9	...........	1426.57
	150	60.15	9.99528E-002	1.02675E-004	0.00000E+000	9.99387E-002	0.00000E+000	9	...........	1426.57
	151	60.16	9.99502E-002	9.62650E-005	0.00000E+000	9.99387E-002	0.00000E+000	9	...........	1426.57
	152	60.17	9.99479E-002	8.62455E-005	0.00000E+000	9.99387E-002	0.00000E+000	9	...........	1426.57
	153	60.18	9.99499E-002	8.18688E-005	0.00000E+000	9.99387E-002	0.00000E+000	9	...........	1426.57
	154	60.19	9.99518E-002	7.35594E-005	0.00000E+000	9.99387E-002	0.00000E+000	9	...........	1426.57
	155	60.2	9.99520E-002	7.05877E-005	0.00000E+000	9.99387E-002	0.00000E+000	9	...........	1426.57
	156	60.21	9.99525E-002	6.35357E-005	0.00000E+000	9.99387E-002	0.00000E+000	9	...........	1426.57
	157	60.22	9.99515E-002	6.16671E-005	0.00000E+000	9.99387E-002	0.00000E+000	9	...........	1426.57
	158	60.23	9.99529E-002	5.55725E-005	0.00000E+000	9.99387E-002	0.00000E+000	9	...........	1426.57
	159	60.24	9.99523E-002	5.45556E-005	0.00000E+000	9.99387E-002	0.00000E+000	9	...........	1426.57
	160	60.25	9.99501E-002	4.91550E-005	0.00000E+000	9.99387E-002	0.00000E+000	9	...........	1426.57
	161	60.26	9.99523E-002	4.87607E-005	0.00000E+000	9.99387E-002	0.00000E+000	9	...........	1426.57
	162	60.27	9.99494E-002	4.39235E-005	0.00000E+000	9.99387E-002	0.00000E+000	9	...........	1426.57
	163	60.28	9.99498E-002	4.40267E-005	0.00000E+000	9.99387E-002	0.00000E+000	9	...........	1426.57
	164	60.29	9.99511E-002	3.95935E-005	0.00000E+000	9.99387E-002	0.00000E+000	9	...........	1426.57
	165	60.3	9.99475E-002	4.01015E-005	0.00000E+000	9.99387E-002	0.00000E+000	9	...........	1426.57
	166	60.31	9.99509E-002	3.60073E-005	0.00000E+000	9.99387E-002	0.00000E+000	9	...........	1426.57
	167	60.32	9.99550E-002	3.68026E-005	0.00000E+000	9.99387E-002	0.00000E+000	9	...........	1426.57
	168	60.33	9.99509E-002	3.29733E-005	0.00000E+000	9.99387E-002	0.00000E+000	9	...........	1426.57
	169	60.34	9.99506E-002	3.40192E-005	0.00000E+000	9.99387E-002	0.00000E+000	9	...........	1426.57
	170	60.35	9.99506E-002	3.03815E-005	0.00000E+000	9.99387E-002	0.00000E+000	9	...........	1426.57
	171	60.36	9.99500E-002	3.16225E-005	0.00000E+000	9.99387E-002	0.00000E+000	9	...........	1426.57
	172	60.37	9.99509E-002	2.81806E-005	0.00000E+000	9.99387E-002	0.00000E+000	9	...........	1426.57
	173	60.38	9.99525E-002	2.95776E-005	0.00000E+000	9.99387E-002	0.00000E+000	9	...........	1426.57
	174	60.39	9.99523E-002	2.62428E-005	0.00000E+000	9.99387E-002	0.00000E+000	9	...........	1426.57
	175	60.4	9.99506E-002	2.77816E-005	0.00000E+000	9.99387E-002	0.00000E+000	9	...........	1426.57
	176	60.41	9.99479E-002	2.45355E-005	0.00000E+000	9.99387E-002	0.00000E+000	9	...........	1426.57
	177	60.42	9.99474E-002	2.61711E-005	0.00000E+000	9.99387E-002	0.00000E+000	9	...........	1426.57
	178	60.43	9.99496E-002	2.30617E-005	0.00000E+000	9.99387E-002	0.00000E+000	9	...........	1426.57
	179	60.44	9.99489E-002	2.47771E-005	0.00000E+000	9.99387E-002	0.00000E+000	9	...........	1426.57
	180	60.45	9.99515E-002	2.17579E-005	0.00000E+000	9.99387E-002	0.00000E+000	9	...........	1426.57
	181	60.46	9.99513E-002	2.35369E-005	0.00000E+000	9.99387E-002	0.00000E+000	9	...........	1426.57
	182	60.47	9.99479E-002	2.05575E-005	0.00000E+000	9.99387E-002	0.00000E+000	9	...........	1426.57
	183	60.48	9.99490E-002	2.24163E-005	0.00000E+000	9.99387E-002	0.00000E+000	9	...........	1426.57
	184	60.49	9.99493E-002	1.94853E-005	0.00000E+000	9.99387E-002	0.00000E+000	9	...........	1426.57
	185	60.5	9.99469E-002	2.13878E-005	0.00000E+000	9.99387E-002	0.00000E+000	9	...........	1426.57
	186	60.51	9.99491E-002	1.85379E-005	0.00000E+000	9.99387E-002	0.00000E+000	9	...........	1426.57
	187	60.52	9.99523E-002	2.04610E-005	0.00000E+000	9.99387E-002	0.00000E+000	9	...........	1426.57
	188	60.53	9.99481E-002	1.76467E-005	0.00000E+000	9.99387E-002	0.00000E+000	9	...........	1426.57
	189	60.54	9.99493E-002	1.95951E-005	0.00000E+000	9.99387E-002	0.00000E+000	9	...........	1426.57
	190	60.55	9.99481E-002	1.68392E-005	0.00000E+000	9.99387E-002	0.00000E+000	9	...........	1426.57
	191	60.56	9.99467E-002	1.88224E-005	0.00000E+000	9.99387E-002	0.00000E+000	9	...........	1426.57
	192	60.57	9.99486E-002	1.61110E-005	0.00000E+000	9.99387E-002	0.00000E+000	9	...........	1426.57
	193	60.58	9.99530E-002	1.81102E-005	0.00000E+000	9.99387E-002	0.00000E+000	9	...........	1426.57
	194	60.59	9.99506E-002	1.54314E-005	0.00000E+000	9.99387E-002	0.00000E+000	9	...........	1426.57
	195	60.6	9.99508E-002	1.74451E-005	0.00000E+000	9.99387E-002	0.00000E+000	9	...........	1426.57
	196	60.61	9.99459E-002	1.47576E-005	0.00000E+000	9.99387E-002	0.00000E+000	9	...........	1426.57
	197	60.71	9.99501E-002	1.21802E-005	0.00000E+000	9.99387E-002	0.00000E+000	9	...........	1426.57
	198	60.81	9.99496E-002	1.02788E-005	0.00000E+000	9.99387E-002	0.00000E+000	9	...........	1426.49
	199	60.91	9.99469E-002	8.79062E-006	0.00000E+000	9.99387E-002	0.00000E+000	9	...........	1426.49
	200	61	9.99507E-002	9.66124E-006	0.00000E+000	9.99387E-002	0.00000E+000	9	...........	1426.49
