EXPLAIN
TAG	CHRONOA
TITLE	LABEL	Chronoamperometry Scan	Test Identifier
DATE	LABEL	10/2/2022	Date
TIME	LABEL	15:14:33	Time
NOTES	NOTES	1	Notes...
	
PSTAT	PSTAT	IFC1010-21051	Potentiostat
VPRESTEP	POTEN	-7.00000E-001	F	Pre-step Voltage (V)
TPRESTEP	QUANT	5.00000E-001	Pre-step Delay Time (s)
VSTEP1	POTEN	-8.00000E-001	F	Step 1 Voltage (V)
TSTEP1	QUANT	3.00000E+002	Step 1 Time (s)
VSTEP2	POTEN	-7.00000E-001	F	Step 2 Voltage (V)
TSTEP2	QUANT	1.00000E+000	Step 2 Time (s)
SAMPLETIME	QUANT	1.00000E-001	Sample Period (s)
DECIMATE	TOGGLE	T	Decimate
ILIMIT	QUANT	1.00000E+000	Limit I (mA/cm^2)
IMODE	SELECTOR	1	I/E Range Mode
IRANGE	QUANT	3.00000E-001	Max Current (mA)
EQDELAY	QUANT	5.00000E+000	Equil. Time (s)
SAMPLINGMODE	SELECTOR	1	Sampling Mode
AREA	QUANT	1.00000E+000	Sample Area (cm^2)
IRCOMP	SELECTOR	0	IRComp
PFCOR	QUANT	5.00000E+001	PF Corr. (ohm)
SEQUENCER	TOGGLE	TRUE	Run as Sequence
PSTATMODEL	IQUANT	64	Pstat Model
PSTATSECTION	LABEL	IFC1010-21051	Pstat Section
PSTATSERIALNO	LABEL	21051	Pstat Serial Number
CTRLMODE	IQUANT	1	Control Mode
ELECTROMETER	IQUANT	0	RE=0 or CS=1
IESTAB	IQUANT	0	I/E Stability
CASPEED	IQUANT	4	Control Amp Speed
CONVENTION	IQUANT	1	Current Convention
ICHRANGE	IQUANT	2	Ich Range
ICHRANGEMODE	TOGGLE	T	Ich Auto Range
ICHOFFSETENABLE	TOGGLE	F	Ich Offset Enable
ICHOFFSET	QUANT	0	Ich Offset (V)
ICHFILTER	IQUANT	3	Ich Filter
VCHRANGE	IQUANT	3	Vch Range
VCHRANGEMODE	TOGGLE	T	Vch Auto Range
VCHOFFSETENABLE	TOGGLE	F	Vch Offset Enable
VCHOFFSET	QUANT	0	Vch Offset (V)
VCHFILTER	IQUANT	3	Vch Filter
IERANGELOWERLIMIT	IQUANT	4	I/E Range Lower Limit
IERANGEMODE	TOGGLE	F	I/E AutoRange
IERANGE	IQUANT	9	I/E Range
ACHSELECT	IQUANT	0	Ach Select
ACHRANGE	IQUANT	2	Ach Range
ACHOFFSETENABLE	TOGGLE	F	Ach Offset Enable
ACHOFFSET	QUANT	0	Ach Offset (V)
ACHFILTER	IQUANT	1	Ach Filter
SENSECABLEID	IQUANT	14	Sense Cable ID
PWRCABLEID	IQUANT	14	Power Cable ID
DCCALDATE	LABEL	1/24/2022	DC Calibration Date
ACCALDATE	LABEL	4/2/2018	AC Calibration Date
FRAMEWORKVERSION	QUANT	7.06	Framework Version
INSTRUMENTVERSION	LABEL	4.30	Instrument Version
CURVE	TABLE	98
	Pt	T	Vf	Im	Vu	Sig	Ach	IERange	Over	Temp
	#	s	V vs. Ref.	A	V	V	V	#	bits	deg C
	0	-0.4	-7.01782E-001	-1.14741E-004	0.00000E+000	-7.00083E-001	0.00000E+000	9	...........	1426.31
	1	-0.3	-7.01228E-001	-1.14417E-004	0.00000E+000	-7.00083E-001	0.00000E+000	9	...........	1426.31
	2	-0.2	-7.01243E-001	-1.14245E-004	0.00000E+000	-7.00083E-001	0.00000E+000	9	...........	1426.31
	3	-0.1	-7.01228E-001	-1.13910E-004	0.00000E+000	-7.00083E-001	0.00000E+000	9	...........	1426.31
	4	0	-7.01236E-001	-1.13723E-004	0.00000E+000	-7.00083E-001	0.00000E+000	9	...........	1426.31
	5	0.1	-8.01267E-001	-6.45808E-004	0.00000E+000	-8.00083E-001	0.00000E+000	9	...........	1426.31
	6	0.2	-8.01261E-001	-5.37796E-004	0.00000E+000	-8.00083E-001	0.00000E+000	9	...........	1426.31
	7	0.3	-8.01257E-001	-4.73071E-004	0.00000E+000	-8.00083E-001	0.00000E+000	9	...........	1426.31
	8	0.4	-8.01260E-001	-4.26751E-004	0.00000E+000	-8.00083E-001	0.00000E+000	9	...........	1426.31
	9	0.5	-8.01270E-001	-3.91029E-004	0.00000E+000	-8.00083E-001	0.00000E+000	9	...........	1426.31
	10	0.6	-8.01263E-001	-3.62308E-004	0.00000E+000	-8.00083E-001	0.00000E+000	9	...........	1426.31
	11	0.7	-8.01266E-001	-3.38692E-004	0.00000E+000	-8.00083E-001	0.00000E+000	9	...........	1426.31
	12	0.8	-8.01256E-001	-3.18718E-004	0.00000E+000	-8.00083E-001	0.00000E+000	9	...........	1426.31
	13	0.9	-8.01257E-001	-3.01664E-004	0.00000E+000	-8.00083E-001	0.00000E+000	9	...........	1426.31
	14	1	-8.01263E-001	-2.86958E-004	0.00000E+000	-8.00083E-001	0.00000E+000	9	...........	1426.31
	15	1.1	-8.01268E-001	-2.74023E-004	0.00000E+000	-8.00083E-001	0.00000E+000	9	...........	1426.31
	16	1.2	-8.01265E-001	-2.62686E-004	0.00000E+000	-8.00083E-001	0.00000E+000	9	...........	1425.95
	17	1.3	-8.01266E-001	-2.52519E-004	0.00000E+000	-8.00083E-001	0.00000E+000	9	...........	1425.95
	18	1.4	-8.01259E-001	-2.43419E-004	0.00000E+000	-8.00083E-001	0.00000E+000	9	...........	1425.95
	19	1.5	-8.01266E-001	-2.35250E-004	0.00000E+000	-8.00083E-001	0.00000E+000	9	...........	1425.95
	20	1.6	-8.01269E-001	-2.27753E-004	0.00000E+000	-8.00083E-001	0.00000E+000	9	...........	1425.95
	21	1.7	-8.01266E-001	-2.21137E-004	0.00000E+000	-8.00083E-001	0.00000E+000	9	...........	1425.95
	22	1.8	-8.01277E-001	-2.15108E-004	0.00000E+000	-8.00083E-001	0.00000E+000	9	...........	1425.95
	23	1.9	-8.01261E-001	-2.09396E-004	0.00000E+000	-8.00083E-001	0.00000E+000	9	...........	1425.95
	24	2	-8.01269E-001	-2.04588E-004	0.00000E+000	-8.00083E-001	0.00000E+000	9	...........	1425.95
	25	2.1	-8.01265E-001	-1.99955E-004	0.00000E+000	-8.00083E-001	0.00000E+000	9	...........	1425.95
	26	2.2	-8.01261E-001	-1.95610E-004	0.00000E+000	-8.00083E-001	0.00000E+000	9	...........	1426.13
	27	2.3	-8.01264E-001	-1.91776E-004	0.00000E+000	-8.00083E-001	0.00000E+000	9	...........	1426.13
	28	2.4	-8.01270E-001	-1.88169E-004	0.00000E+000	-8.00083E-001	0.00000E+000	9	...........	1426.13
	29	2.5	-8.01262E-001	-1.84754E-004	0.00000E+000	-8.00083E-001	0.00000E+000	9	...........	1426.13
	30	2.6	-8.01265E-001	-1.81793E-004	0.00000E+000	-8.00083E-001	0.00000E+000	9	...........	1426.13
	31	2.7	-8.01265E-001	-1.78974E-004	0.00000E+000	-8.00083E-001	0.00000E+000	9	...........	1426.13
	32	2.8	-8.01262E-001	-1.76337E-004	0.00000E+000	-8.00083E-001	0.00000E+000	9	...........	1426.13
	33	2.9	-8.01252E-001	-1.73802E-004	0.00000E+000	-8.00083E-001	0.00000E+000	9	...........	1426.13
	34	3	-8.01260E-001	-1.71609E-004	0.00000E+000	-8.00083E-001	0.00000E+000	9	...........	1426.13
	35	3.1	-8.01261E-001	-1.69411E-004	0.00000E+000	-8.00083E-001	0.00000E+000	9	...........	1426.13
	36	3.2	-8.01271E-001	-1.67482E-004	0.00000E+000	-8.00083E-001	0.00000E+000	9	...........	1426.22
	37	3.3	-8.01266E-001	-1.65668E-004	0.00000E+000	-8.00083E-001	0.00000E+000	9	...........	1426.22
	38	3.4	-8.01271E-001	-1.63966E-004	0.00000E+000	-8.00083E-001	0.00000E+000	9	...........	1426.22
	39	3.5	-8.01268E-001	-1.62374E-004	0.00000E+000	-8.00083E-001	0.00000E+000	9	...........	1426.22
	40	3.6	-8.01269E-001	-1.60801E-004	0.00000E+000	-8.00083E-001	0.00000E+000	9	...........	1426.22
	41	3.7	-8.01269E-001	-1.59428E-004	0.00000E+000	-8.00083E-001	0.00000E+000	9	...........	1426.22
	42	3.8	-8.01266E-001	-1.58042E-004	0.00000E+000	-8.00083E-001	0.00000E+000	9	...........	1426.22
	43	3.9	-8.01267E-001	-1.56781E-004	0.00000E+000	-8.00083E-001	0.00000E+000	9	...........	1426.22
	44	4	-8.01265E-001	-1.55610E-004	0.00000E+000	-8.00083E-001	0.00000E+000	9	...........	1426.22
	45	4.1	-8.01263E-001	-1.54455E-004	0.00000E+000	-8.00083E-001	0.00000E+000	9	...........	1426.22
	46	4.2	-8.01268E-001	-1.53442E-004	0.00000E+000	-8.00083E-001	0.00000E+000	9	...........	1426.22
	47	4.3	-8.01264E-001	-1.52350E-004	0.00000E+000	-8.00083E-001	0.00000E+000	9	...........	1426.22
	48	4.4	-8.01262E-001	-1.51546E-004	0.00000E+000	-8.00083E-001	0.00000E+000	9	...........	1426.22
	49	4.5	-8.01263E-001	-1.50618E-004	0.00000E+000	-8.00083E-001	0.00000E+000	9	...........	1426.22
	50	4.6	-8.01252E-001	-1.49738E-004	0.00000E+000	-8.00083E-001	0.00000E+000	9	...........	1426.22
	51	4.7	-8.01255E-001	-1.48893E-004	0.00000E+000	-8.00083E-001	0.00000E+000	9	...........	1426.22
	52	4.8	-8.01267E-001	-1.48191E-004	0.00000E+000	-8.00083E-001	0.00000E+000	9	...........	1426.22
	53	4.9	-8.01273E-001	-1.47543E-004	0.00000E+000	-8.00083E-001	0.00000E+000	9	...........	1426.22
	54	5	-8.01275E-001	-1.46805E-004	0.00000E+000	-8.00083E-001	0.00000E+000	9	...........	1426.22
	55	5.1	-8.01281E-001	-1.46121E-004	0.00000E+000	-8.00083E-001	0.00000E+000	9	...........	1426.22
	56	5.2	-8.01278E-001	-1.45512E-004	0.00000E+000	-8.00083E-001	0.00000E+000	9	...........	1426.22
	57	5.3	-8.01265E-001	-1.44946E-004	0.00000E+000	-8.00083E-001	0.00000E+000	9	...........	1426.22
	58	5.4	-8.01274E-001	-1.44333E-004	0.00000E+000	-8.00083E-001	0.00000E+000	9	...........	1426.22
	59	5.5	-8.01265E-001	-1.43692E-004	0.00000E+000	-8.00083E-001	0.00000E+000	9	...........	1426.22
	60	5.6	-8.01271E-001	-1.43319E-004	0.00000E+000	-8.00083E-001	0.00000E+000	9	...........	1426.22
	61	5.7	-8.01268E-001	-1.42750E-004	0.00000E+000	-8.00083E-001	0.00000E+000	9	...........	1426.22
	62	5.8	-8.01270E-001	-1.42263E-004	0.00000E+000	-8.00083E-001	0.00000E+000	9	...........	1426.22
	63	5.9	-8.01272E-001	-1.41801E-004	0.00000E+000	-8.00083E-001	0.00000E+000	9	...........	1426.22
	64	6	-8.01269E-001	-1.41256E-004	0.00000E+000	-8.00083E-001	0.00000E+000	9	...........	1426.22
	65	6.1	-8.01282E-001	-1.40956E-004	0.00000E+000	-8.00083E-001	0.00000E+000	9	...........	1426.22
	66	7.1	-8.01272E-001	-1.37257E-004	0.00000E+000	-8.00083E-001	0.00000E+000	9	...........	1425.87
	67	8.1	-8.01277E-001	-1.34854E-004	0.00000E+000	-8.00083E-001	0.00000E+000	9	...........	1426.13
	68	9.1	-8.01271E-001	-1.33042E-004	0.00000E+000	-8.00083E-001	0.00000E+000	9	...........	1425.87
	69	10.1	-8.01256E-001	-1.31617E-004	0.00000E+000	-8.00083E-001	0.00000E+000	9	...........	1426.22
	70	11.1	-8.01260E-001	-1.30597E-004	0.00000E+000	-8.00083E-001	0.00000E+000	9	...........	1426.31
	71	12.1	-8.01260E-001	-1.29935E-004	0.00000E+000	-8.00083E-001	0.00000E+000	9	...........	1426.22
	72	13.1	-8.01259E-001	-1.29227E-004	0.00000E+000	-8.00083E-001	0.00000E+000	9	...........	1426.22
	73	14.1	-8.01282E-001	-1.28605E-004	0.00000E+000	-8.00083E-001	0.00000E+000	9	...........	1426.13
	74	15.1	-8.01255E-001	-1.28094E-004	0.00000E+000	-8.00083E-001	0.00000E+000	9	...........	1426.22
	75	16.1	-8.01271E-001	-1.27676E-004	0.00000E+000	-8.00083E-001	0.00000E+000	9	...........	1426.22
	76	26.1	-8.01270E-001	-1.25136E-004	0.00000E+000	-8.00083E-001	0.00000E+000	9	...........	1426.22
	77	36.1	-8.01262E-001	-1.24328E-004	0.00000E+000	-8.00083E-001	0.00000E+000	9	...........	1426.22
	78	46.1	-8.01263E-001	-1.23667E-004	0.00000E+000	-8.00083E-001	0.00000E+000	9	...........	1426.31
	79	56.1	-8.01278E-001	-1.23275E-004	0.00000E+000	-8.00083E-001	0.00000E+000	9	...........	1426.31
	80	66.1	-8.01263E-001	-1.22955E-004	0.00000E+000	-8.00083E-001	0.00000E+000	9	...........	1426.31
	81	76.1	-8.01270E-001	-1.22733E-004	0.00000E+000	-8.00083E-001	0.00000E+000	9	...........	1426.31
	82	86.1	-8.01268E-001	-1.22738E-004	0.00000E+000	-8.00083E-001	0.00000E+000	9	...........	1426.31
	83	96.1	-8.01260E-001	-1.22913E-004	0.00000E+000	-8.00083E-001	0.00000E+000	9	...........	1426.31
	84	106.1	-8.01267E-001	-1.22908E-004	0.00000E+000	-8.00083E-001	0.00000E+000	9	...........	1426.22
	85	116.1	-8.01274E-001	-1.23042E-004	0.00000E+000	-8.00083E-001	0.00000E+000	9	...........	1426.22
	86	216.1	-8.01272E-001	-1.22480E-004	0.00000E+000	-8.00083E-001	0.00000E+000	9	...........	1426.31
	87	300	-8.01265E-001	-1.22698E-004	0.00000E+000	-8.00083E-001	0.00000E+000	9	...........	1426.31
	88	300.1	-7.01255E-001	3.05195E-004	0.00000E+000	-7.00083E-001	0.00000E+000	9	...........	1426.31
	89	300.2	-7.01248E-001	1.70863E-004	0.00000E+000	-7.00083E-001	0.00000E+000	9	...........	1426.31
	90	300.3	-7.01249E-001	9.92900E-005	0.00000E+000	-7.00083E-001	0.00000E+000	9	...........	1426.31
	91	300.4	-7.01236E-001	5.53253E-005	0.00000E+000	-7.00083E-001	0.00000E+000	9	...........	1426.31
	92	300.5	-7.01253E-001	2.50153E-005	0.00000E+000	-7.00083E-001	0.00000E+000	9	...........	1426.31
	93	300.6	-7.01242E-001	2.86824E-006	0.00000E+000	-7.00083E-001	0.00000E+000	9	...........	1426.31
	94	300.7	-7.01243E-001	-1.39265E-005	0.00000E+000	-7.00083E-001	0.00000E+000	9	...........	1426.31
	95	300.8	-7.01242E-001	-2.69215E-005	0.00000E+000	-7.00083E-001	0.00000E+000	9	...........	1426.31
	96	300.9	-7.01237E-001	-3.70789E-005	0.00000E+000	-7.00083E-001	0.00000E+000	9	...........	1426.31
	97	301	-7.01234E-001	-4.51660E-005	0.00000E+000	-7.00083E-001	0.00000E+000	9	...........	1426.31
