EXPLAIN
TAG	CHRONOA
TITLE	LABEL	Chronoamperometry Scan	Test Identifier
DATE	LABEL	10/2/2022	Date
TIME	LABEL	19:37:00	Time
NOTES	NOTES	1	Notes...
	
PSTAT	PSTAT	IFC1010-21051	Potentiostat
VPRESTEP	POTEN	0.00000E+000	F	Pre-step Voltage (V)
TPRESTEP	QUANT	5.00000E-001	Pre-step Delay Time (s)
VSTEP1	POTEN	-2.00000E-001	F	Step 1 Voltage (V)
TSTEP1	QUANT	3.00000E+002	Step 1 Time (s)
VSTEP2	POTEN	-3.00000E-001	F	Step 2 Voltage (V)
TSTEP2	QUANT	1.00000E+000	Step 2 Time (s)
SAMPLETIME	QUANT	1.00000E-001	Sample Period (s)
DECIMATE	TOGGLE	T	Decimate
ILIMIT	QUANT	1.00000E+000	Limit I (mA/cm^2)
IMODE	SELECTOR	1	I/E Range Mode
IRANGE	QUANT	3.00000E-001	Max Current (mA)
EQDELAY	QUANT	5.00000E+000	Equil. Time (s)
SAMPLINGMODE	SELECTOR	1	Sampling Mode
AREA	QUANT	1.00000E+000	Sample Area (cm^2)
IRCOMP	SELECTOR	0	IRComp
PFCOR	QUANT	5.00000E+001	PF Corr. (ohm)
SEQUENCER	TOGGLE	TRUE	Run as Sequence
PSTATMODEL	IQUANT	64	Pstat Model
PSTATSECTION	LABEL	IFC1010-21051	Pstat Section
PSTATSERIALNO	LABEL	21051	Pstat Serial Number
CTRLMODE	IQUANT	1	Control Mode
ELECTROMETER	IQUANT	0	RE=0 or CS=1
IESTAB	IQUANT	0	I/E Stability
CASPEED	IQUANT	4	Control Amp Speed
CONVENTION	IQUANT	1	Current Convention
ICHRANGE	IQUANT	2	Ich Range
ICHRANGEMODE	TOGGLE	T	Ich Auto Range
ICHOFFSETENABLE	TOGGLE	F	Ich Offset Enable
ICHOFFSET	QUANT	0	Ich Offset (V)
ICHFILTER	IQUANT	3	Ich Filter
VCHRANGE	IQUANT	3	Vch Range
VCHRANGEMODE	TOGGLE	T	Vch Auto Range
VCHOFFSETENABLE	TOGGLE	F	Vch Offset Enable
VCHOFFSET	QUANT	0	Vch Offset (V)
VCHFILTER	IQUANT	3	Vch Filter
IERANGELOWERLIMIT	IQUANT	4	I/E Range Lower Limit
IERANGEMODE	TOGGLE	F	I/E AutoRange
IERANGE	IQUANT	9	I/E Range
ACHSELECT	IQUANT	0	Ach Select
ACHRANGE	IQUANT	2	Ach Range
ACHOFFSETENABLE	TOGGLE	F	Ach Offset Enable
ACHOFFSET	QUANT	0	Ach Offset (V)
ACHFILTER	IQUANT	1	Ach Filter
SENSECABLEID	IQUANT	14	Sense Cable ID
PWRCABLEID	IQUANT	14	Power Cable ID
DCCALDATE	LABEL	1/24/2022	DC Calibration Date
ACCALDATE	LABEL	4/2/2018	AC Calibration Date
FRAMEWORKVERSION	QUANT	7.06	Framework Version
INSTRUMENTVERSION	LABEL	4.30	Instrument Version
CURVE	TABLE	98
	Pt	T	Vf	Im	Vu	Sig	Ach	IERange	Over	Temp
	#	s	V vs. Ref.	A	V	V	V	#	bits	deg C
	0	-0.4	-1.08153E-003	-8.74341E-006	0.00000E+000	-6.72489E-005	0.00000E+000	9	...........	1426.22
	1	-0.3	-3.84401E-004	-8.71598E-006	0.00000E+000	-6.72489E-005	0.00000E+000	9	...........	1426.22
	2	-0.2	-2.19309E-004	-8.69409E-006	0.00000E+000	-6.72489E-005	0.00000E+000	9	...........	1426.22
	3	-0.1	-2.03616E-004	-8.67443E-006	0.00000E+000	-6.72489E-005	0.00000E+000	9	...........	1426.22
	4	0	-2.04373E-004	-8.65401E-006	0.00000E+000	-6.72489E-005	0.00000E+000	9	...........	1426.22
	5	0.1	-3.29270E-002	-5.32717E-004	0.00000E+000	-2.00066E-001	0.00000E+000	9	.........v.	1426.22
	6	0.2	-2.00247E-001	-3.76176E-004	0.00000E+000	-2.00066E-001	0.00000E+000	9	...........	1426.22
	7	0.3	-2.00246E-001	-3.22138E-004	0.00000E+000	-2.00066E-001	0.00000E+000	9	...........	1426.22
	8	0.4	-2.00247E-001	-2.88832E-004	0.00000E+000	-2.00066E-001	0.00000E+000	9	...........	1426.22
	9	0.5	-2.00248E-001	-2.63858E-004	0.00000E+000	-2.00066E-001	0.00000E+000	9	...........	1426.22
	10	0.6	-2.00245E-001	-2.43721E-004	0.00000E+000	-2.00066E-001	0.00000E+000	9	...........	1426.22
	11	0.7	-2.00246E-001	-2.27004E-004	0.00000E+000	-2.00066E-001	0.00000E+000	9	...........	1426.22
	12	0.8	-2.00248E-001	-2.12805E-004	0.00000E+000	-2.00066E-001	0.00000E+000	9	...........	1426.22
	13	0.9	-2.00246E-001	-2.00580E-004	0.00000E+000	-2.00066E-001	0.00000E+000	9	...........	1426.22
	14	1	-2.00247E-001	-1.89936E-004	0.00000E+000	-2.00066E-001	0.00000E+000	9	...........	1426.44
	15	1.1	-2.00248E-001	-1.80593E-004	0.00000E+000	-2.00066E-001	0.00000E+000	9	...........	1426.49
	16	1.2	-2.00248E-001	-1.72301E-004	0.00000E+000	-2.00066E-001	0.00000E+000	9	...........	1426.49
	17	1.3	-2.00248E-001	-1.64924E-004	0.00000E+000	-2.00066E-001	0.00000E+000	9	...........	1426.49
	18	1.4	-2.00247E-001	-1.58306E-004	0.00000E+000	-2.00066E-001	0.00000E+000	9	...........	1426.49
	19	1.5	-2.00249E-001	-1.52330E-004	0.00000E+000	-2.00066E-001	0.00000E+000	9	...........	1426.49
	20	1.6	-2.00250E-001	-1.46912E-004	0.00000E+000	-2.00066E-001	0.00000E+000	9	...........	1426.49
	21	1.7	-2.00248E-001	-1.41929E-004	0.00000E+000	-2.00066E-001	0.00000E+000	9	...........	1426.49
	22	1.8	-2.00249E-001	-1.37438E-004	0.00000E+000	-2.00066E-001	0.00000E+000	9	...........	1426.49
	23	1.9	-2.00249E-001	-1.33273E-004	0.00000E+000	-2.00066E-001	0.00000E+000	9	...........	1426.49
	24	2	-2.00248E-001	-1.29404E-004	0.00000E+000	-2.00066E-001	0.00000E+000	9	...........	1426.27
	25	2.1	-2.00249E-001	-1.25868E-004	0.00000E+000	-2.00066E-001	0.00000E+000	9	...........	1426.22
	26	2.2	-2.00248E-001	-1.22556E-004	0.00000E+000	-2.00066E-001	0.00000E+000	9	...........	1426.22
	27	2.3	-2.00248E-001	-1.19450E-004	0.00000E+000	-2.00066E-001	0.00000E+000	9	...........	1426.22
	28	2.4	-2.00249E-001	-1.16580E-004	0.00000E+000	-2.00066E-001	0.00000E+000	9	...........	1426.22
	29	2.5	-2.00248E-001	-1.13857E-004	0.00000E+000	-2.00066E-001	0.00000E+000	9	...........	1426.22
	30	2.6	-2.00249E-001	-1.11340E-004	0.00000E+000	-2.00066E-001	0.00000E+000	9	...........	1426.22
	31	2.7	-2.00249E-001	-1.08963E-004	0.00000E+000	-2.00066E-001	0.00000E+000	9	...........	1426.22
	32	2.8	-2.00250E-001	-1.06720E-004	0.00000E+000	-2.00066E-001	0.00000E+000	9	...........	1426.22
	33	2.9	-2.00248E-001	-1.04609E-004	0.00000E+000	-2.00066E-001	0.00000E+000	9	...........	1426.22
	34	3	-2.00249E-001	-1.02608E-004	0.00000E+000	-2.00066E-001	0.00000E+000	9	...........	1426.22
	35	3.1	-2.00249E-001	-1.00738E-004	0.00000E+000	-2.00066E-001	0.00000E+000	9	...........	1426.22
	36	3.2	-2.00249E-001	-9.89342E-005	0.00000E+000	-2.00066E-001	0.00000E+000	9	...........	1426.22
	37	3.3	-2.00249E-001	-9.72722E-005	0.00000E+000	-2.00066E-001	0.00000E+000	9	...........	1426.22
	38	3.4	-2.00250E-001	-9.56615E-005	0.00000E+000	-2.00066E-001	0.00000E+000	9	...........	1426.22
	39	3.5	-2.00249E-001	-9.41192E-005	0.00000E+000	-2.00066E-001	0.00000E+000	9	...........	1426.22
	40	3.6	-2.00247E-001	-9.26567E-005	0.00000E+000	-2.00066E-001	0.00000E+000	9	...........	1426.22
	41	3.7	-2.00249E-001	-9.12757E-005	0.00000E+000	-2.00066E-001	0.00000E+000	9	...........	1426.22
	42	3.8	-2.00247E-001	-8.99169E-005	0.00000E+000	-2.00066E-001	0.00000E+000	9	...........	1426.22
	43	3.9	-2.00249E-001	-8.86787E-005	0.00000E+000	-2.00066E-001	0.00000E+000	9	...........	1426.22
	44	4	-2.00250E-001	-8.74447E-005	0.00000E+000	-2.00066E-001	0.00000E+000	9	...........	1426.22
	45	4.1	-2.00248E-001	-8.62914E-005	0.00000E+000	-2.00066E-001	0.00000E+000	9	...........	1426.22
	46	4.2	-2.00248E-001	-8.51674E-005	0.00000E+000	-2.00066E-001	0.00000E+000	9	...........	1426.22
	47	4.3	-2.00248E-001	-8.40823E-005	0.00000E+000	-2.00066E-001	0.00000E+000	9	...........	1426.22
	48	4.4	-2.00247E-001	-8.30493E-005	0.00000E+000	-2.00066E-001	0.00000E+000	9	...........	1426.22
	49	4.5	-2.00250E-001	-8.20536E-005	0.00000E+000	-2.00066E-001	0.00000E+000	9	...........	1426.22
	50	4.6	-2.00248E-001	-8.10829E-005	0.00000E+000	-2.00066E-001	0.00000E+000	9	...........	1426.22
	51	4.7	-2.00248E-001	-8.01783E-005	0.00000E+000	-2.00066E-001	0.00000E+000	9	...........	1426.22
	52	4.8	-2.00249E-001	-7.93014E-005	0.00000E+000	-2.00066E-001	0.00000E+000	9	...........	1426.22
	53	4.9	-2.00248E-001	-7.84361E-005	0.00000E+000	-2.00066E-001	0.00000E+000	9	...........	1426.22
	54	5	-2.00249E-001	-7.76465E-005	0.00000E+000	-2.00066E-001	0.00000E+000	9	...........	1426.22
	55	5.1	-2.00249E-001	-7.68889E-005	0.00000E+000	-2.00066E-001	0.00000E+000	9	...........	1426.22
	56	5.2	-2.00247E-001	-7.61271E-005	0.00000E+000	-2.00066E-001	0.00000E+000	9	...........	1426.22
	57	5.3	-2.00250E-001	-7.53927E-005	0.00000E+000	-2.00066E-001	0.00000E+000	9	...........	1426.22
	58	5.4	-2.00251E-001	-7.47139E-005	0.00000E+000	-2.00066E-001	0.00000E+000	9	...........	1426.22
	59	5.5	-2.00250E-001	-7.40241E-005	0.00000E+000	-2.00066E-001	0.00000E+000	9	...........	1426.22
	60	5.6	-2.00247E-001	-7.33207E-005	0.00000E+000	-2.00066E-001	0.00000E+000	9	...........	1426.22
	61	5.7	-2.00249E-001	-7.26934E-005	0.00000E+000	-2.00066E-001	0.00000E+000	9	...........	1426.22
	62	5.8	-2.00249E-001	-7.20563E-005	0.00000E+000	-2.00066E-001	0.00000E+000	9	...........	1426.22
	63	5.9	-2.00248E-001	-7.14425E-005	0.00000E+000	-2.00066E-001	0.00000E+000	9	...........	1426.22
	64	6	-2.00251E-001	-7.08545E-005	0.00000E+000	-2.00066E-001	0.00000E+000	9	...........	1426.22
	65	6.1	-2.00251E-001	-7.02842E-005	0.00000E+000	-2.00066E-001	0.00000E+000	9	...........	1426.22
	66	7.1	-2.00249E-001	-6.53833E-005	0.00000E+000	-2.00066E-001	0.00000E+000	9	...........	1426.22
	67	8.1	-2.00248E-001	-6.14050E-005	0.00000E+000	-2.00066E-001	0.00000E+000	9	...........	1426.22
	68	9.1	-2.00249E-001	-5.81529E-005	0.00000E+000	-2.00066E-001	0.00000E+000	9	...........	1426.22
	69	10.1	-2.00249E-001	-5.54379E-005	0.00000E+000	-2.00066E-001	0.00000E+000	9	...........	1426.31
	70	11.1	-2.00251E-001	-5.33075E-005	0.00000E+000	-2.00066E-001	0.00000E+000	9	...........	1426.31
	71	12.1	-2.00249E-001	-5.13429E-005	0.00000E+000	-2.00066E-001	0.00000E+000	9	...........	1426.31
	72	13.1	-2.00250E-001	-4.96775E-005	0.00000E+000	-2.00066E-001	0.00000E+000	9	...........	1426.31
	73	14.1	-2.00249E-001	-4.80152E-005	0.00000E+000	-2.00066E-001	0.00000E+000	9	...........	1426.22
	74	15.1	-2.00250E-001	-4.66045E-005	0.00000E+000	-2.00066E-001	0.00000E+000	9	...........	1426.31
	75	16.1	-2.00252E-001	-4.53245E-005	0.00000E+000	-2.00066E-001	0.00000E+000	9	...........	1426.31
	76	26.1	-2.00250E-001	-3.83408E-005	0.00000E+000	-2.00066E-001	0.00000E+000	9	...........	1426.31
	77	36.1	-2.00249E-001	-3.44668E-005	0.00000E+000	-2.00066E-001	0.00000E+000	9	...........	1426.31
	78	46.1	-2.00249E-001	-3.27869E-005	0.00000E+000	-2.00066E-001	0.00000E+000	9	...........	1426.31
	79	56.1	-2.00249E-001	-3.10644E-005	0.00000E+000	-2.00066E-001	0.00000E+000	9	...........	1426.31
	80	66.1	-2.00248E-001	-3.04613E-005	0.00000E+000	-2.00066E-001	0.00000E+000	9	...........	1426.31
	81	76.1	-2.00250E-001	-2.92006E-005	0.00000E+000	-2.00066E-001	0.00000E+000	9	...........	1426.31
	82	86.1	-2.00250E-001	-2.86617E-005	0.00000E+000	-2.00066E-001	0.00000E+000	9	...........	1426.31
	83	96.1	-2.00250E-001	-2.84950E-005	0.00000E+000	-2.00066E-001	0.00000E+000	9	...........	1426.22
	84	106.1	-2.00249E-001	-2.76798E-005	0.00000E+000	-2.00066E-001	0.00000E+000	9	...........	1426.22
	85	116.1	-2.00250E-001	-2.77988E-005	0.00000E+000	-2.00066E-001	0.00000E+000	9	...........	1426.22
	86	216.1	-2.00251E-001	-2.51707E-005	0.00000E+000	-2.00066E-001	0.00000E+000	9	...........	1426.22
	87	300	-2.00253E-001	-2.45346E-005	0.00000E+000	-2.00066E-001	0.00000E+000	9	...........	1426.31
	88	300.1	-3.00258E-001	-2.31146E-004	0.00000E+000	-3.00066E-001	0.00000E+000	9	...........	1426.31
	89	300.2	-3.00412E-001	-1.26178E-004	0.00000E+000	-3.00066E-001	0.00000E+000	9	...........	1426.31
	90	300.3	-3.00415E-001	-9.84991E-005	0.00000E+000	-3.00066E-001	0.00000E+000	9	...........	1426.31
	91	300.4	-3.00403E-001	-8.80856E-005	0.00000E+000	-3.00066E-001	0.00000E+000	9	...........	1426.31
	92	300.5	-3.00405E-001	-8.29621E-005	0.00000E+000	-3.00066E-001	0.00000E+000	9	...........	1426.31
	93	300.6	-3.00415E-001	-7.98904E-005	0.00000E+000	-3.00066E-001	0.00000E+000	9	...........	1426.31
	94	300.7	-3.00398E-001	-7.77675E-005	0.00000E+000	-3.00066E-001	0.00000E+000	9	...........	1426.31
	95	300.8	-3.00400E-001	-7.62264E-005	0.00000E+000	-3.00066E-001	0.00000E+000	9	...........	1426.31
	96	300.9	-3.00413E-001	-7.50182E-005	0.00000E+000	-3.00066E-001	0.00000E+000	9	...........	1426.31
	97	301	-3.00411E-001	-7.40140E-005	0.00000E+000	-3.00066E-001	0.00000E+000	9	...........	1426.24
