EXPLAIN
TAG	CHRONOA
TITLE	LABEL	Chronoamperometry Scan	Test Identifier
DATE	LABEL	10/2/2022	Date
TIME	LABEL	15:40:33	Time
NOTES	NOTES	1	Notes...
	
PSTAT	PSTAT	IFC1010-21051	Potentiostat
VPRESTEP	POTEN	0.00000E+000	F	Pre-step Voltage (V)
TPRESTEP	QUANT	5.00000E-001	Pre-step Delay Time (s)
VSTEP1	POTEN	-2.00000E-001	F	Step 1 Voltage (V)
TSTEP1	QUANT	3.00000E+002	Step 1 Time (s)
VSTEP2	POTEN	-3.00000E-001	F	Step 2 Voltage (V)
TSTEP2	QUANT	1.00000E+000	Step 2 Time (s)
SAMPLETIME	QUANT	1.00000E-001	Sample Period (s)
DECIMATE	TOGGLE	T	Decimate
ILIMIT	QUANT	1.00000E+000	Limit I (mA/cm^2)
IMODE	SELECTOR	1	I/E Range Mode
IRANGE	QUANT	3.00000E-001	Max Current (mA)
EQDELAY	QUANT	5.00000E+000	Equil. Time (s)
SAMPLINGMODE	SELECTOR	1	Sampling Mode
AREA	QUANT	1.00000E+000	Sample Area (cm^2)
IRCOMP	SELECTOR	0	IRComp
PFCOR	QUANT	5.00000E+001	PF Corr. (ohm)
SEQUENCER	TOGGLE	TRUE	Run as Sequence
PSTATMODEL	IQUANT	64	Pstat Model
PSTATSECTION	LABEL	IFC1010-21051	Pstat Section
PSTATSERIALNO	LABEL	21051	Pstat Serial Number
CTRLMODE	IQUANT	1	Control Mode
ELECTROMETER	IQUANT	0	RE=0 or CS=1
IESTAB	IQUANT	0	I/E Stability
CASPEED	IQUANT	4	Control Amp Speed
CONVENTION	IQUANT	1	Current Convention
ICHRANGE	IQUANT	2	Ich Range
ICHRANGEMODE	TOGGLE	T	Ich Auto Range
ICHOFFSETENABLE	TOGGLE	F	Ich Offset Enable
ICHOFFSET	QUANT	0	Ich Offset (V)
ICHFILTER	IQUANT	3	Ich Filter
VCHRANGE	IQUANT	3	Vch Range
VCHRANGEMODE	TOGGLE	T	Vch Auto Range
VCHOFFSETENABLE	TOGGLE	F	Vch Offset Enable
VCHOFFSET	QUANT	0	Vch Offset (V)
VCHFILTER	IQUANT	3	Vch Filter
IERANGELOWERLIMIT	IQUANT	4	I/E Range Lower Limit
IERANGEMODE	TOGGLE	F	I/E AutoRange
IERANGE	IQUANT	9	I/E Range
ACHSELECT	IQUANT	0	Ach Select
ACHRANGE	IQUANT	2	Ach Range
ACHOFFSETENABLE	TOGGLE	F	Ach Offset Enable
ACHOFFSET	QUANT	0	Ach Offset (V)
ACHFILTER	IQUANT	1	Ach Filter
SENSECABLEID	IQUANT	14	Sense Cable ID
PWRCABLEID	IQUANT	14	Power Cable ID
DCCALDATE	LABEL	1/24/2022	DC Calibration Date
ACCALDATE	LABEL	4/2/2018	AC Calibration Date
FRAMEWORKVERSION	QUANT	7.06	Framework Version
INSTRUMENTVERSION	LABEL	4.30	Instrument Version
CURVE	TABLE	98
	Pt	T	Vf	Im	Vu	Sig	Ach	IERange	Over	Temp
	#	s	V vs. Ref.	A	V	V	V	#	bits	deg C
	0	-0.4	-1.06711E-003	-1.80134E-005	0.00000E+000	-6.72489E-005	0.00000E+000	9	...........	1426.22
	1	-0.3	-3.70987E-004	-1.79616E-005	0.00000E+000	-6.72489E-005	0.00000E+000	9	...........	1426.22
	2	-0.2	-2.19679E-004	-1.79165E-005	0.00000E+000	-6.72489E-005	0.00000E+000	9	...........	1426.22
	3	-0.1	-2.04605E-004	-1.78697E-005	0.00000E+000	-6.72489E-005	0.00000E+000	9	...........	1426.22
	4	0	-2.04592E-004	-1.78233E-005	0.00000E+000	-6.72489E-005	0.00000E+000	9	...........	1426.22
	5	0.1	-3.29270E-002	-8.17056E-004	0.00000E+000	-2.00066E-001	0.00000E+000	9	.........v.	1426.22
	6	0.2	-2.00246E-001	-6.12128E-004	0.00000E+000	-2.00066E-001	0.00000E+000	9	...........	1426.22
	7	0.3	-2.00246E-001	-4.92224E-004	0.00000E+000	-2.00066E-001	0.00000E+000	9	...........	1426.22
	8	0.4	-2.00246E-001	-4.12094E-004	0.00000E+000	-2.00066E-001	0.00000E+000	9	...........	1426.22
	9	0.5	-2.00248E-001	-3.53960E-004	0.00000E+000	-2.00066E-001	0.00000E+000	9	...........	1426.22
	10	0.6	-2.00248E-001	-3.09551E-004	0.00000E+000	-2.00066E-001	0.00000E+000	9	...........	1426.22
	11	0.7	-2.00248E-001	-2.74457E-004	0.00000E+000	-2.00066E-001	0.00000E+000	9	...........	1426.04
	12	0.8	-2.00247E-001	-2.46146E-004	0.00000E+000	-2.00066E-001	0.00000E+000	9	...........	1426.04
	13	0.9	-2.00249E-001	-2.22959E-004	0.00000E+000	-2.00066E-001	0.00000E+000	9	...........	1426.04
	14	1	-2.00249E-001	-2.03736E-004	0.00000E+000	-2.00066E-001	0.00000E+000	9	...........	1426.04
	15	1.1	-2.00250E-001	-1.87636E-004	0.00000E+000	-2.00066E-001	0.00000E+000	9	...........	1426.04
	16	1.2	-2.00250E-001	-1.74002E-004	0.00000E+000	-2.00066E-001	0.00000E+000	9	...........	1426.04
	17	1.3	-2.00250E-001	-1.62428E-004	0.00000E+000	-2.00066E-001	0.00000E+000	9	...........	1426.04
	18	1.4	-2.00249E-001	-1.52506E-004	0.00000E+000	-2.00066E-001	0.00000E+000	9	...........	1426.04
	19	1.5	-2.00250E-001	-1.43888E-004	0.00000E+000	-2.00066E-001	0.00000E+000	9	...........	1426.04
	20	1.6	-2.00249E-001	-1.36437E-004	0.00000E+000	-2.00066E-001	0.00000E+000	9	...........	1426.04
	21	1.7	-2.00249E-001	-1.29908E-004	0.00000E+000	-2.00066E-001	0.00000E+000	9	...........	1426.31
	22	1.8	-2.00249E-001	-1.24169E-004	0.00000E+000	-2.00066E-001	0.00000E+000	9	...........	1426.31
	23	1.9	-2.00251E-001	-1.19086E-004	0.00000E+000	-2.00066E-001	0.00000E+000	9	...........	1426.31
	24	2	-2.00251E-001	-1.14577E-004	0.00000E+000	-2.00066E-001	0.00000E+000	9	...........	1426.31
	25	2.1	-2.00251E-001	-1.10526E-004	0.00000E+000	-2.00066E-001	0.00000E+000	9	...........	1426.31
	26	2.2	-2.00249E-001	-1.06899E-004	0.00000E+000	-2.00066E-001	0.00000E+000	9	...........	1426.31
	27	2.3	-2.00249E-001	-1.03609E-004	0.00000E+000	-2.00066E-001	0.00000E+000	9	...........	1426.31
	28	2.4	-2.00250E-001	-1.00664E-004	0.00000E+000	-2.00066E-001	0.00000E+000	9	...........	1426.31
	29	2.5	-2.00248E-001	-9.79448E-005	0.00000E+000	-2.00066E-001	0.00000E+000	9	...........	1426.31
	30	2.6	-2.00250E-001	-9.55063E-005	0.00000E+000	-2.00066E-001	0.00000E+000	9	...........	1426.31
	31	2.7	-2.00249E-001	-9.32389E-005	0.00000E+000	-2.00066E-001	0.00000E+000	9	...........	1426.31
	32	2.8	-2.00247E-001	-9.11575E-005	0.00000E+000	-2.00066E-001	0.00000E+000	9	...........	1426.31
	33	2.9	-2.00250E-001	-8.92858E-005	0.00000E+000	-2.00066E-001	0.00000E+000	9	...........	1426.31
	34	3	-2.00248E-001	-8.75159E-005	0.00000E+000	-2.00066E-001	0.00000E+000	9	...........	1426.31
	35	3.1	-2.00249E-001	-8.58351E-005	0.00000E+000	-2.00066E-001	0.00000E+000	9	...........	1426.31
	36	3.2	-2.00251E-001	-8.43573E-005	0.00000E+000	-2.00066E-001	0.00000E+000	9	...........	1426.31
	37	3.3	-2.00251E-001	-8.29508E-005	0.00000E+000	-2.00066E-001	0.00000E+000	9	...........	1426.31
	38	3.4	-2.00251E-001	-8.16294E-005	0.00000E+000	-2.00066E-001	0.00000E+000	9	...........	1426.31
	39	3.5	-2.00251E-001	-8.03938E-005	0.00000E+000	-2.00066E-001	0.00000E+000	9	...........	1426.31
	40	3.6	-2.00249E-001	-7.92319E-005	0.00000E+000	-2.00066E-001	0.00000E+000	9	...........	1426.31
	41	3.7	-2.00250E-001	-7.81232E-005	0.00000E+000	-2.00066E-001	0.00000E+000	9	...........	1426.31
	42	3.8	-2.00250E-001	-7.71138E-005	0.00000E+000	-2.00066E-001	0.00000E+000	9	...........	1426.31
	43	3.9	-2.00250E-001	-7.61090E-005	0.00000E+000	-2.00066E-001	0.00000E+000	9	...........	1426.31
	44	4	-2.00248E-001	-7.51878E-005	0.00000E+000	-2.00066E-001	0.00000E+000	9	...........	1426.31
	45	4.1	-2.00250E-001	-7.42925E-005	0.00000E+000	-2.00066E-001	0.00000E+000	9	...........	1426.31
	46	4.2	-2.00252E-001	-7.34686E-005	0.00000E+000	-2.00066E-001	0.00000E+000	9	...........	1426.31
	47	4.3	-2.00250E-001	-7.26683E-005	0.00000E+000	-2.00066E-001	0.00000E+000	9	...........	1426.31
	48	4.4	-2.00251E-001	-7.18894E-005	0.00000E+000	-2.00066E-001	0.00000E+000	9	...........	1426.31
	49	4.5	-2.00251E-001	-7.12034E-005	0.00000E+000	-2.00066E-001	0.00000E+000	9	...........	1426.31
	50	4.6	-2.00250E-001	-7.05011E-005	0.00000E+000	-2.00066E-001	0.00000E+000	9	...........	1426.31
	51	4.7	-2.00249E-001	-6.98276E-005	0.00000E+000	-2.00066E-001	0.00000E+000	9	...........	1426.31
	52	4.8	-2.00249E-001	-6.91989E-005	0.00000E+000	-2.00066E-001	0.00000E+000	9	...........	1426.31
	53	4.9	-2.00250E-001	-6.86011E-005	0.00000E+000	-2.00066E-001	0.00000E+000	9	...........	1426.31
	54	5	-2.00251E-001	-6.80160E-005	0.00000E+000	-2.00066E-001	0.00000E+000	9	...........	1426.31
	55	5.1	-2.00251E-001	-6.74537E-005	0.00000E+000	-2.00066E-001	0.00000E+000	9	...........	1426.31
	56	5.2	-2.00250E-001	-6.68938E-005	0.00000E+000	-2.00066E-001	0.00000E+000	9	...........	1426.31
	57	5.3	-2.00251E-001	-6.63819E-005	0.00000E+000	-2.00066E-001	0.00000E+000	9	...........	1426.31
	58	5.4	-2.00251E-001	-6.58666E-005	0.00000E+000	-2.00066E-001	0.00000E+000	9	...........	1426.31
	59	5.5	-2.00251E-001	-6.54052E-005	0.00000E+000	-2.00066E-001	0.00000E+000	9	...........	1426.31
	60	5.6	-2.00252E-001	-6.49508E-005	0.00000E+000	-2.00066E-001	0.00000E+000	9	...........	1426.31
	61	5.7	-2.00252E-001	-6.45078E-005	0.00000E+000	-2.00066E-001	0.00000E+000	9	...........	1426.31
	62	5.8	-2.00251E-001	-6.40639E-005	0.00000E+000	-2.00066E-001	0.00000E+000	9	...........	1426.31
	63	5.9	-2.00251E-001	-6.36577E-005	0.00000E+000	-2.00066E-001	0.00000E+000	9	...........	1426.31
	64	6	-2.00251E-001	-6.32656E-005	0.00000E+000	-2.00066E-001	0.00000E+000	9	...........	1426.31
	65	6.1	-2.00249E-001	-6.28805E-005	0.00000E+000	-2.00066E-001	0.00000E+000	9	...........	1426.31
	66	7.1	-2.00251E-001	-5.96091E-005	0.00000E+000	-2.00066E-001	0.00000E+000	9	...........	1426.31
	67	8.1	-2.00252E-001	-5.71537E-005	0.00000E+000	-2.00066E-001	0.00000E+000	9	...........	1426.31
	68	9.1	-2.00251E-001	-5.51208E-005	0.00000E+000	-2.00066E-001	0.00000E+000	9	...........	1426.31
	69	10.1	-2.00249E-001	-5.33564E-005	0.00000E+000	-2.00066E-001	0.00000E+000	9	...........	1426.40
	70	11.1	-2.00251E-001	-5.19090E-005	0.00000E+000	-2.00066E-001	0.00000E+000	9	...........	1426.40
	71	12.1	-2.00249E-001	-5.06328E-005	0.00000E+000	-2.00066E-001	0.00000E+000	9	...........	1426.40
	72	13.1	-2.00251E-001	-4.94845E-005	0.00000E+000	-2.00066E-001	0.00000E+000	9	...........	1426.40
	73	14.1	-2.00251E-001	-4.83961E-005	0.00000E+000	-2.00066E-001	0.00000E+000	9	...........	1426.40
	74	15.1	-2.00251E-001	-4.75225E-005	0.00000E+000	-2.00066E-001	0.00000E+000	9	...........	1426.40
	75	16.1	-2.00250E-001	-4.67847E-005	0.00000E+000	-2.00066E-001	0.00000E+000	9	...........	1426.40
	76	26.1	-2.00250E-001	-4.19451E-005	0.00000E+000	-2.00066E-001	0.00000E+000	9	...........	1426.40
	77	36.1	-2.00251E-001	-3.92749E-005	0.00000E+000	-2.00066E-001	0.00000E+000	9	...........	1426.40
	78	46.1	-2.00249E-001	-3.70511E-005	0.00000E+000	-2.00066E-001	0.00000E+000	9	...........	1426.40
	79	56.1	-2.00254E-001	-3.58319E-005	0.00000E+000	-2.00066E-001	0.00000E+000	9	...........	1426.40
	80	66.1	-2.00253E-001	-3.44401E-005	0.00000E+000	-2.00066E-001	0.00000E+000	9	...........	1426.31
	81	76.1	-2.00250E-001	-3.35977E-005	0.00000E+000	-2.00066E-001	0.00000E+000	9	...........	1426.40
	82	86.1	-2.00252E-001	-3.27892E-005	0.00000E+000	-2.00066E-001	0.00000E+000	9	...........	1426.40
	83	96.1	-2.00250E-001	-3.18546E-005	0.00000E+000	-2.00066E-001	0.00000E+000	9	...........	1426.31
	84	106.1	-2.00251E-001	-3.13633E-005	0.00000E+000	-2.00066E-001	0.00000E+000	9	...........	1426.40
	85	116.1	-2.00253E-001	-3.09278E-005	0.00000E+000	-2.00066E-001	0.00000E+000	9	...........	1426.40
	86	216.1	-2.00251E-001	-2.77520E-005	0.00000E+000	-2.00066E-001	0.00000E+000	9	...........	1426.31
	87	300	-2.00250E-001	-2.59883E-005	0.00000E+000	-2.00066E-001	0.00000E+000	9	...........	1426.31
	88	300.1	-3.00256E-001	-4.18090E-004	0.00000E+000	-3.00066E-001	0.00000E+000	9	...........	1426.31
	89	300.2	-3.00415E-001	-2.99912E-004	0.00000E+000	-3.00066E-001	0.00000E+000	9	...........	1426.31
	90	300.3	-3.00415E-001	-2.31659E-004	0.00000E+000	-3.00066E-001	0.00000E+000	9	...........	1426.31
	91	300.4	-3.00403E-001	-1.88960E-004	0.00000E+000	-3.00066E-001	0.00000E+000	9	...........	1426.31
	92	300.5	-3.00413E-001	-1.60776E-004	0.00000E+000	-3.00066E-001	0.00000E+000	9	...........	1426.31
	93	300.6	-3.00423E-001	-1.41336E-004	0.00000E+000	-3.00066E-001	0.00000E+000	9	...........	1426.31
	94	300.7	-3.00417E-001	-1.27428E-004	0.00000E+000	-3.00066E-001	0.00000E+000	9	...........	1426.31
	95	300.8	-3.00412E-001	-1.17245E-004	0.00000E+000	-3.00066E-001	0.00000E+000	9	...........	1426.31
	96	300.9	-3.00412E-001	-1.09557E-004	0.00000E+000	-3.00066E-001	0.00000E+000	9	...........	1426.31
	97	301	-3.00419E-001	-1.03626E-004	0.00000E+000	-3.00066E-001	0.00000E+000	9	...........	1426.31
