EXPLAIN
TAG	CHRONOA
TITLE	LABEL	Chronoamperometry Scan	Test Identifier
DATE	LABEL	4/8/2022	Date
TIME	LABEL	13:29:31	Time
NOTES	NOTES	1	Notes...
	
PSTAT	PSTAT	IFC1010-21051	Potentiostat
VPRESTEP	POTEN	-7.50000E-001	F	Pre-step Voltage (V)
TPRESTEP	QUANT	5.00000E-001	Pre-step Delay Time (s)
VSTEP1	POTEN	-8.00000E-001	F	Step 1 Voltage (V)
TSTEP1	QUANT	1.00000E+002	Step 1 Time (s)
VSTEP2	POTEN	-7.50000E-001	F	Step 2 Voltage (V)
TSTEP2	QUANT	1.00000E+000	Step 2 Time (s)
SAMPLETIME	QUANT	1.00000E-001	Sample Period (s)
DECIMATE	TOGGLE	T	Decimate
ILIMIT	QUANT	1.00000E+000	Limit I (mA/cm^2)
IMODE	SELECTOR	1	I/E Range Mode
IRANGE	QUANT	3.00000E-001	Max Current (mA)
EQDELAY	QUANT	5.00000E+000	Equil. Time (s)
SAMPLINGMODE	SELECTOR	1	Sampling Mode
AREA	QUANT	1.00000E+000	Sample Area (cm^2)
IRCOMP	SELECTOR	0	IRComp
PFCOR	QUANT	5.00000E+001	PF Corr. (ohm)
SEQUENCER	TOGGLE	TRUE	Run as Sequence
PSTATMODEL	IQUANT	64	Pstat Model
PSTATSECTION	LABEL	IFC1010-21051	Pstat Section
PSTATSERIALNO	LABEL	21051	Pstat Serial Number
CTRLMODE	IQUANT	1	Control Mode
ELECTROMETER	IQUANT	0	RE=0 or CS=1
IESTAB	IQUANT	0	I/E Stability
CASPEED	IQUANT	4	Control Amp Speed
CONVENTION	IQUANT	1	Current Convention
ICHRANGE	IQUANT	2	Ich Range
ICHRANGEMODE	TOGGLE	T	Ich Auto Range
ICHOFFSETENABLE	TOGGLE	F	Ich Offset Enable
ICHOFFSET	QUANT	0	Ich Offset (V)
ICHFILTER	IQUANT	3	Ich Filter
VCHRANGE	IQUANT	3	Vch Range
VCHRANGEMODE	TOGGLE	T	Vch Auto Range
VCHOFFSETENABLE	TOGGLE	F	Vch Offset Enable
VCHOFFSET	QUANT	0	Vch Offset (V)
VCHFILTER	IQUANT	3	Vch Filter
IERANGELOWERLIMIT	IQUANT	4	I/E Range Lower Limit
IERANGEMODE	TOGGLE	F	I/E AutoRange
IERANGE	IQUANT	9	I/E Range
ACHSELECT	IQUANT	0	Ach Select
ACHRANGE	IQUANT	2	Ach Range
ACHOFFSETENABLE	TOGGLE	F	Ach Offset Enable
ACHOFFSET	QUANT	0	Ach Offset (V)
ACHFILTER	IQUANT	1	Ach Filter
SENSECABLEID	IQUANT	14	Sense Cable ID
PWRCABLEID	IQUANT	14	Power Cable ID
DCCALDATE	LABEL	7/12/2022	DC Calibration Date
ACCALDATE	LABEL	4/2/2018	AC Calibration Date
FRAMEWORKVERSION	QUANT	7.06	Framework Version
INSTRUMENTVERSION	LABEL	4.30	Instrument Version
CURVE	TABLE	95
	Pt	T	Vf	Im	Vu	Sig	Ach	IERange	Over	Temp
	#	s	V vs. Ref.	A	V	V	V	#	bits	deg C
	0	-0.4	-7.50862E-001	-1.60803E-004	0.00000E+000	-7.50046E-001	0.00000E+000	9	...........	1425.95
	1	-0.3	-7.51035E-001	-1.60300E-004	0.00000E+000	-7.50046E-001	0.00000E+000	9	...........	1425.95
	2	-0.2	-7.51050E-001	-1.60120E-004	0.00000E+000	-7.50046E-001	0.00000E+000	9	...........	1425.95
	3	-0.1	-7.51045E-001	-1.59701E-004	0.00000E+000	-7.50046E-001	0.00000E+000	9	...........	1425.95
	4	0	-7.51039E-001	-1.61652E-004	0.00000E+000	-7.50046E-001	0.00000E+000	9	...........	1425.95
	5	0.1	-8.01054E-001	-3.76898E-004	0.00000E+000	-8.00059E-001	0.00000E+000	9	...........	1425.95
	6	0.2	-8.01047E-001	-3.07898E-004	0.00000E+000	-8.00059E-001	0.00000E+000	9	...........	1425.95
	7	0.3	-8.01040E-001	-2.66532E-004	0.00000E+000	-8.00059E-001	0.00000E+000	9	...........	1425.95
	8	0.4	-8.01058E-001	-2.40297E-004	0.00000E+000	-8.00059E-001	0.00000E+000	9	...........	1425.95
	9	0.5	-8.01060E-001	-2.23166E-004	0.00000E+000	-8.00059E-001	0.00000E+000	9	...........	1425.95
	10	0.6	-8.01053E-001	-2.11871E-004	0.00000E+000	-8.00059E-001	0.00000E+000	9	...........	1425.95
	11	0.7	-8.01064E-001	-2.03781E-004	0.00000E+000	-8.00059E-001	0.00000E+000	9	...........	1425.95
	12	0.8	-8.01063E-001	-1.97800E-004	0.00000E+000	-8.00059E-001	0.00000E+000	9	...........	1425.95
	13	0.9	-8.01061E-001	-1.93297E-004	0.00000E+000	-8.00059E-001	0.00000E+000	9	...........	1425.87
	14	1	-8.01056E-001	-1.89964E-004	0.00000E+000	-8.00059E-001	0.00000E+000	9	...........	1425.87
	15	1.1	-8.01038E-001	-1.87745E-004	0.00000E+000	-8.00059E-001	0.00000E+000	9	...........	1425.87
	16	1.2	-8.01060E-001	-1.85513E-004	0.00000E+000	-8.00059E-001	0.00000E+000	9	...........	1425.87
	17	1.3	-8.01051E-001	-1.83565E-004	0.00000E+000	-8.00059E-001	0.00000E+000	9	...........	1425.87
	18	1.4	-8.01032E-001	-1.81819E-004	0.00000E+000	-8.00059E-001	0.00000E+000	9	...........	1425.87
	19	1.5	-8.01042E-001	-1.80529E-004	0.00000E+000	-8.00059E-001	0.00000E+000	9	...........	1425.87
	20	1.6	-8.01050E-001	-1.79510E-004	0.00000E+000	-8.00059E-001	0.00000E+000	9	...........	1425.87
	21	1.7	-8.01070E-001	-1.78612E-004	0.00000E+000	-8.00059E-001	0.00000E+000	9	...........	1425.87
	22	1.8	-8.01067E-001	-1.77931E-004	0.00000E+000	-8.00059E-001	0.00000E+000	9	...........	1425.87
	23	1.9	-8.01063E-001	-1.76757E-004	0.00000E+000	-8.00059E-001	0.00000E+000	9	...........	1425.87
	24	2	-8.01046E-001	-1.75806E-004	0.00000E+000	-8.00059E-001	0.00000E+000	9	...........	1425.87
	25	2.1	-8.01057E-001	-1.75347E-004	0.00000E+000	-8.00059E-001	0.00000E+000	9	...........	1425.87
	26	2.2	-8.01057E-001	-1.74545E-004	0.00000E+000	-8.00059E-001	0.00000E+000	9	...........	1425.87
	27	2.3	-8.01061E-001	-1.73773E-004	0.00000E+000	-8.00059E-001	0.00000E+000	9	...........	1425.87
	28	2.4	-8.01062E-001	-1.73465E-004	0.00000E+000	-8.00059E-001	0.00000E+000	9	...........	1425.87
	29	2.5	-8.01077E-001	-1.72553E-004	0.00000E+000	-8.00059E-001	0.00000E+000	9	...........	1425.87
	30	2.6	-8.01062E-001	-1.72738E-004	0.00000E+000	-8.00059E-001	0.00000E+000	9	...........	1425.87
	31	2.7	-8.01071E-001	-1.72523E-004	0.00000E+000	-8.00059E-001	0.00000E+000	9	...........	1425.87
	32	2.8	-8.01062E-001	-1.71727E-004	0.00000E+000	-8.00059E-001	0.00000E+000	9	...........	1425.87
	33	2.9	-8.01065E-001	-1.70969E-004	0.00000E+000	-8.00059E-001	0.00000E+000	9	...........	1425.87
	34	3	-8.01068E-001	-1.70688E-004	0.00000E+000	-8.00059E-001	0.00000E+000	9	...........	1425.87
	35	3.1	-8.01055E-001	-1.69916E-004	0.00000E+000	-8.00059E-001	0.00000E+000	9	...........	1425.87
	36	3.2	-8.01052E-001	-1.69386E-004	0.00000E+000	-8.00059E-001	0.00000E+000	9	...........	1425.87
	37	3.3	-8.01053E-001	-1.68898E-004	0.00000E+000	-8.00059E-001	0.00000E+000	9	...........	1425.87
	38	3.4	-8.01052E-001	-1.68411E-004	0.00000E+000	-8.00059E-001	0.00000E+000	9	...........	1425.87
	39	3.5	-8.01056E-001	-1.68322E-004	0.00000E+000	-8.00059E-001	0.00000E+000	9	...........	1425.87
	40	3.6	-8.01061E-001	-1.67847E-004	0.00000E+000	-8.00059E-001	0.00000E+000	9	...........	1425.87
	41	3.7	-8.01070E-001	-1.67471E-004	0.00000E+000	-8.00059E-001	0.00000E+000	9	...........	1425.87
	42	3.8	-8.01060E-001	-1.67006E-004	0.00000E+000	-8.00059E-001	0.00000E+000	9	...........	1425.87
	43	3.9	-8.01056E-001	-1.66932E-004	0.00000E+000	-8.00059E-001	0.00000E+000	9	...........	1425.87
	44	4	-8.01047E-001	-1.66618E-004	0.00000E+000	-8.00059E-001	0.00000E+000	9	...........	1425.87
	45	4.1	-8.01051E-001	-1.66445E-004	0.00000E+000	-8.00059E-001	0.00000E+000	9	...........	1425.87
	46	4.2	-8.01048E-001	-1.66127E-004	0.00000E+000	-8.00059E-001	0.00000E+000	9	...........	1425.87
	47	4.3	-8.01039E-001	-1.65863E-004	0.00000E+000	-8.00059E-001	0.00000E+000	9	...........	1425.87
	48	4.4	-8.01069E-001	-1.65870E-004	0.00000E+000	-8.00059E-001	0.00000E+000	9	...........	1425.87
	49	4.5	-8.01056E-001	-1.65700E-004	0.00000E+000	-8.00059E-001	0.00000E+000	9	...........	1425.87
	50	4.6	-8.01064E-001	-1.65207E-004	0.00000E+000	-8.00059E-001	0.00000E+000	9	...........	1425.87
	51	4.7	-8.01065E-001	-1.65007E-004	0.00000E+000	-8.00059E-001	0.00000E+000	9	...........	1425.87
	52	4.8	-8.01052E-001	-1.64833E-004	0.00000E+000	-8.00059E-001	0.00000E+000	9	...........	1425.87
	53	4.9	-8.01052E-001	-1.64621E-004	0.00000E+000	-8.00059E-001	0.00000E+000	9	...........	1425.87
	54	5	-8.01057E-001	-1.64479E-004	0.00000E+000	-8.00059E-001	0.00000E+000	9	...........	1425.87
	55	5.1	-8.01055E-001	-1.63952E-004	0.00000E+000	-8.00059E-001	0.00000E+000	9	...........	1425.87
	56	5.2	-8.01060E-001	-1.63741E-004	0.00000E+000	-8.00059E-001	0.00000E+000	9	...........	1425.87
	57	5.3	-8.01043E-001	-1.63454E-004	0.00000E+000	-8.00059E-001	0.00000E+000	9	...........	1425.87
	58	5.4	-8.01049E-001	-1.63658E-004	0.00000E+000	-8.00059E-001	0.00000E+000	9	...........	1425.87
	59	5.5	-8.01035E-001	-1.64683E-004	0.00000E+000	-8.00059E-001	0.00000E+000	9	...........	1425.87
	60	5.6	-8.01050E-001	-1.63805E-004	0.00000E+000	-8.00059E-001	0.00000E+000	9	...........	1425.87
	61	5.7	-8.01038E-001	-1.63227E-004	0.00000E+000	-8.00059E-001	0.00000E+000	9	...........	1425.87
	62	5.8	-8.01065E-001	-1.62920E-004	0.00000E+000	-8.00059E-001	0.00000E+000	9	...........	1425.87
	63	5.9	-8.01054E-001	-1.62640E-004	0.00000E+000	-8.00059E-001	0.00000E+000	9	...........	1425.87
	64	6	-8.01065E-001	-1.62514E-004	0.00000E+000	-8.00059E-001	0.00000E+000	9	...........	1425.87
	65	6.1	-8.01049E-001	-1.62225E-004	0.00000E+000	-8.00059E-001	0.00000E+000	9	...........	1425.87
	66	7.1	-8.01060E-001	-1.60725E-004	0.00000E+000	-8.00059E-001	0.00000E+000	9	...........	1425.87
	67	8.1	-8.01037E-001	-1.59618E-004	0.00000E+000	-8.00059E-001	0.00000E+000	9	...........	1425.95
	68	9.1	-8.01061E-001	-1.58177E-004	0.00000E+000	-8.00059E-001	0.00000E+000	9	...........	1425.87
	69	10.1	-8.01059E-001	-1.57711E-004	0.00000E+000	-8.00059E-001	0.00000E+000	9	...........	1425.87
	70	11.1	-8.01049E-001	-1.56860E-004	0.00000E+000	-8.00059E-001	0.00000E+000	9	...........	1425.95
	71	12.1	-8.01059E-001	-1.56216E-004	0.00000E+000	-8.00059E-001	0.00000E+000	9	...........	1425.95
	72	13.1	-8.01055E-001	-1.55435E-004	0.00000E+000	-8.00059E-001	0.00000E+000	9	...........	1425.95
	73	14.1	-8.01031E-001	-1.56899E-004	0.00000E+000	-8.00059E-001	0.00000E+000	9	...........	1425.95
	74	15.1	-8.01042E-001	-1.54485E-004	0.00000E+000	-8.00059E-001	0.00000E+000	9	...........	1425.95
	75	16.1	-8.01064E-001	-1.54547E-004	0.00000E+000	-8.00059E-001	0.00000E+000	9	...........	1425.95
	76	26.1	-8.01061E-001	-1.51058E-004	0.00000E+000	-8.00059E-001	0.00000E+000	9	...........	1425.95
	77	36.1	-8.01062E-001	-1.48610E-004	0.00000E+000	-8.00059E-001	0.00000E+000	9	...........	1425.87
	78	46.1	-8.01053E-001	-1.46636E-004	0.00000E+000	-8.00059E-001	0.00000E+000	9	...........	1425.87
	79	56.1	-8.01053E-001	-1.45370E-004	0.00000E+000	-8.00059E-001	0.00000E+000	9	...........	1425.87
	80	66.1	-8.01041E-001	-1.44234E-004	0.00000E+000	-8.00059E-001	0.00000E+000	9	...........	1425.95
	81	76.1	-8.01049E-001	-1.43518E-004	0.00000E+000	-8.00059E-001	0.00000E+000	9	...........	1425.95
	82	86.1	-8.01060E-001	-1.43863E-004	0.00000E+000	-8.00059E-001	0.00000E+000	9	...........	1425.95
	83	96.1	-8.01064E-001	-1.42072E-004	0.00000E+000	-8.00059E-001	0.00000E+000	9	...........	1425.87
	84	100	-8.01072E-001	-1.41844E-004	0.00000E+000	-8.00059E-001	0.00000E+000	9	...........	1425.95
	85	100.1	-7.51047E-001	6.08228E-005	0.00000E+000	-7.50046E-001	0.00000E+000	9	...........	1425.95
	86	100.2	-7.51051E-001	-1.19173E-005	0.00000E+000	-7.50046E-001	0.00000E+000	9	...........	1425.95
	87	100.3	-7.51057E-001	-5.36443E-005	0.00000E+000	-7.50046E-001	0.00000E+000	9	...........	1425.95
	88	100.4	-7.51041E-001	-7.90149E-005	0.00000E+000	-7.50046E-001	0.00000E+000	9	...........	1425.95
	89	100.5	-7.51067E-001	-9.50049E-005	0.00000E+000	-7.50046E-001	0.00000E+000	9	...........	1425.95
	90	100.6	-7.51040E-001	-1.05223E-004	0.00000E+000	-7.50046E-001	0.00000E+000	9	...........	1425.95
	91	100.7	-7.51045E-001	-1.12957E-004	0.00000E+000	-7.50046E-001	0.00000E+000	9	...........	1425.95
	92	100.8	-7.51040E-001	-1.17258E-004	0.00000E+000	-7.50046E-001	0.00000E+000	9	...........	1425.95
	93	100.9	-7.51049E-001	-1.20573E-004	0.00000E+000	-7.50046E-001	0.00000E+000	9	...........	1425.95
	94	101	-7.51049E-001	-1.22674E-004	0.00000E+000	-7.50046E-001	0.00000E+000	9	...........	1425.95
