EXPLAIN
TAG	CHRONOA
TITLE	LABEL	Chronoamperometry Scan	Test Identifier
DATE	LABEL	4/8/2022	Date
TIME	LABEL	13:25:57	Time
NOTES	NOTES	1	Notes...
	
PSTAT	PSTAT	IFC1010-21051	Potentiostat
VPRESTEP	POTEN	-3.50000E-001	F	Pre-step Voltage (V)
TPRESTEP	QUANT	5.00000E-001	Pre-step Delay Time (s)
VSTEP1	POTEN	-4.00000E-001	F	Step 1 Voltage (V)
TSTEP1	QUANT	1.00000E+002	Step 1 Time (s)
VSTEP2	POTEN	-4.50000E-001	F	Step 2 Voltage (V)
TSTEP2	QUANT	1.00000E+000	Step 2 Time (s)
SAMPLETIME	QUANT	1.00000E-001	Sample Period (s)
DECIMATE	TOGGLE	T	Decimate
ILIMIT	QUANT	1.00000E+000	Limit I (mA/cm^2)
IMODE	SELECTOR	1	I/E Range Mode
IRANGE	QUANT	3.00000E-001	Max Current (mA)
EQDELAY	QUANT	5.00000E+000	Equil. Time (s)
SAMPLINGMODE	SELECTOR	1	Sampling Mode
AREA	QUANT	1.00000E+000	Sample Area (cm^2)
IRCOMP	SELECTOR	0	IRComp
PFCOR	QUANT	5.00000E+001	PF Corr. (ohm)
SEQUENCER	TOGGLE	TRUE	Run as Sequence
PSTATMODEL	IQUANT	64	Pstat Model
PSTATSECTION	LABEL	IFC1010-21051	Pstat Section
PSTATSERIALNO	LABEL	21051	Pstat Serial Number
CTRLMODE	IQUANT	1	Control Mode
ELECTROMETER	IQUANT	0	RE=0 or CS=1
IESTAB	IQUANT	0	I/E Stability
CASPEED	IQUANT	4	Control Amp Speed
CONVENTION	IQUANT	1	Current Convention
ICHRANGE	IQUANT	2	Ich Range
ICHRANGEMODE	TOGGLE	T	Ich Auto Range
ICHOFFSETENABLE	TOGGLE	F	Ich Offset Enable
ICHOFFSET	QUANT	0	Ich Offset (V)
ICHFILTER	IQUANT	3	Ich Filter
VCHRANGE	IQUANT	3	Vch Range
VCHRANGEMODE	TOGGLE	T	Vch Auto Range
VCHOFFSETENABLE	TOGGLE	F	Vch Offset Enable
VCHOFFSET	QUANT	0	Vch Offset (V)
VCHFILTER	IQUANT	3	Vch Filter
IERANGELOWERLIMIT	IQUANT	4	I/E Range Lower Limit
IERANGEMODE	TOGGLE	F	I/E AutoRange
IERANGE	IQUANT	9	I/E Range
ACHSELECT	IQUANT	0	Ach Select
ACHRANGE	IQUANT	2	Ach Range
ACHOFFSETENABLE	TOGGLE	F	Ach Offset Enable
ACHOFFSET	QUANT	0	Ach Offset (V)
ACHFILTER	IQUANT	1	Ach Filter
SENSECABLEID	IQUANT	14	Sense Cable ID
PWRCABLEID	IQUANT	14	Power Cable ID
DCCALDATE	LABEL	7/12/2022	DC Calibration Date
ACCALDATE	LABEL	4/2/2018	AC Calibration Date
FRAMEWORKVERSION	QUANT	7.06	Framework Version
INSTRUMENTVERSION	LABEL	4.30	Instrument Version
CURVE	TABLE	95
	Pt	T	Vf	Im	Vu	Sig	Ach	IERange	Over	Temp
	#	s	V vs. Ref.	A	V	V	V	#	bits	deg C
	0	-0.4	-3.50297E-001	-1.61999E-004	0.00000E+000	-3.50011E-001	0.00000E+000	9	...........	1425.87
	1	-0.3	-3.50469E-001	-1.61407E-004	0.00000E+000	-3.50011E-001	0.00000E+000	9	...........	1425.87
	2	-0.2	-3.50467E-001	-1.60703E-004	0.00000E+000	-3.50011E-001	0.00000E+000	9	...........	1425.87
	3	-0.1	-3.50457E-001	-1.59984E-004	0.00000E+000	-3.50011E-001	0.00000E+000	9	...........	1425.87
	4	0	-3.50468E-001	-1.59208E-004	0.00000E+000	-3.50011E-001	0.00000E+000	9	...........	1425.87
	5	0.1	-4.00484E-001	-4.15740E-004	0.00000E+000	-4.00011E-001	0.00000E+000	9	...........	1425.87
	6	0.2	-4.00485E-001	-3.64895E-004	0.00000E+000	-4.00011E-001	0.00000E+000	9	...........	1425.87
	7	0.3	-4.00486E-001	-3.35761E-004	0.00000E+000	-4.00011E-001	0.00000E+000	9	...........	1425.87
	8	0.4	-4.00482E-001	-3.16864E-004	0.00000E+000	-4.00011E-001	0.00000E+000	9	...........	1425.87
	9	0.5	-4.00483E-001	-3.03674E-004	0.00000E+000	-4.00011E-001	0.00000E+000	9	...........	1425.87
	10	0.6	-4.00471E-001	-2.93777E-004	0.00000E+000	-4.00011E-001	0.00000E+000	9	...........	1425.87
	11	0.7	-4.00477E-001	-2.86453E-004	0.00000E+000	-4.00011E-001	0.00000E+000	9	...........	1425.87
	12	0.8	-4.00481E-001	-2.80162E-004	0.00000E+000	-4.00011E-001	0.00000E+000	9	...........	1425.87
	13	0.9	-4.00478E-001	-2.75128E-004	0.00000E+000	-4.00011E-001	0.00000E+000	9	...........	1425.87
	14	1	-4.00487E-001	-2.70717E-004	0.00000E+000	-4.00011E-001	0.00000E+000	9	...........	1425.87
	15	1.1	-4.00481E-001	-2.67013E-004	0.00000E+000	-4.00011E-001	0.00000E+000	9	...........	1425.87
	16	1.2	-4.00495E-001	-2.63609E-004	0.00000E+000	-4.00011E-001	0.00000E+000	9	...........	1425.69
	17	1.3	-4.00498E-001	-2.60689E-004	0.00000E+000	-4.00011E-001	0.00000E+000	9	...........	1425.69
	18	1.4	-4.00484E-001	-2.57954E-004	0.00000E+000	-4.00011E-001	0.00000E+000	9	...........	1425.69
	19	1.5	-4.00477E-001	-2.55527E-004	0.00000E+000	-4.00011E-001	0.00000E+000	9	...........	1425.69
	20	1.6	-4.00501E-001	-2.53142E-004	0.00000E+000	-4.00011E-001	0.00000E+000	9	...........	1425.69
	21	1.7	-4.00490E-001	-2.50917E-004	0.00000E+000	-4.00011E-001	0.00000E+000	9	...........	1425.69
	22	1.8	-4.00491E-001	-2.48740E-004	0.00000E+000	-4.00011E-001	0.00000E+000	9	...........	1425.69
	23	1.9	-4.00495E-001	-2.46772E-004	0.00000E+000	-4.00011E-001	0.00000E+000	9	...........	1425.69
	24	2	-4.00491E-001	-2.44890E-004	0.00000E+000	-4.00011E-001	0.00000E+000	9	...........	1425.69
	25	2.1	-4.00486E-001	-2.42997E-004	0.00000E+000	-4.00011E-001	0.00000E+000	9	...........	1425.69
	26	2.2	-4.00488E-001	-2.41386E-004	0.00000E+000	-4.00011E-001	0.00000E+000	9	...........	1425.78
	27	2.3	-4.00485E-001	-2.39670E-004	0.00000E+000	-4.00011E-001	0.00000E+000	9	...........	1425.78
	28	2.4	-4.00470E-001	-2.38049E-004	0.00000E+000	-4.00011E-001	0.00000E+000	9	...........	1425.78
	29	2.5	-4.00480E-001	-2.36490E-004	0.00000E+000	-4.00011E-001	0.00000E+000	9	...........	1425.78
	30	2.6	-4.00481E-001	-2.35007E-004	0.00000E+000	-4.00011E-001	0.00000E+000	9	...........	1425.78
	31	2.7	-4.00486E-001	-2.33659E-004	0.00000E+000	-4.00011E-001	0.00000E+000	9	...........	1425.78
	32	2.8	-4.00491E-001	-2.32293E-004	0.00000E+000	-4.00011E-001	0.00000E+000	9	...........	1425.78
	33	2.9	-4.00489E-001	-2.31119E-004	0.00000E+000	-4.00011E-001	0.00000E+000	9	...........	1425.78
	34	3	-4.00491E-001	-2.29579E-004	0.00000E+000	-4.00011E-001	0.00000E+000	9	...........	1425.78
	35	3.1	-4.00495E-001	-2.28227E-004	0.00000E+000	-4.00011E-001	0.00000E+000	9	...........	1425.78
	36	3.2	-4.00488E-001	-2.27006E-004	0.00000E+000	-4.00011E-001	0.00000E+000	9	...........	1425.78
	37	3.3	-4.00488E-001	-2.25739E-004	0.00000E+000	-4.00011E-001	0.00000E+000	9	...........	1425.78
	38	3.4	-4.00483E-001	-2.24608E-004	0.00000E+000	-4.00011E-001	0.00000E+000	9	...........	1425.78
	39	3.5	-4.00481E-001	-2.23592E-004	0.00000E+000	-4.00011E-001	0.00000E+000	9	...........	1425.78
	40	3.6	-4.00489E-001	-2.22669E-004	0.00000E+000	-4.00011E-001	0.00000E+000	9	...........	1425.78
	41	3.7	-4.00486E-001	-2.21297E-004	0.00000E+000	-4.00011E-001	0.00000E+000	9	...........	1425.78
	42	3.8	-4.00482E-001	-2.19954E-004	0.00000E+000	-4.00011E-001	0.00000E+000	9	...........	1425.78
	43	3.9	-4.00489E-001	-2.18789E-004	0.00000E+000	-4.00011E-001	0.00000E+000	9	...........	1425.78
	44	4	-4.00485E-001	-2.17732E-004	0.00000E+000	-4.00011E-001	0.00000E+000	9	...........	1425.78
	45	4.1	-4.00485E-001	-2.16704E-004	0.00000E+000	-4.00011E-001	0.00000E+000	9	...........	1425.78
	46	4.2	-4.00481E-001	-2.15647E-004	0.00000E+000	-4.00011E-001	0.00000E+000	9	...........	1425.34
	47	4.3	-4.00475E-001	-2.14520E-004	0.00000E+000	-4.00011E-001	0.00000E+000	9	...........	1425.34
	48	4.4	-4.00476E-001	-2.13539E-004	0.00000E+000	-4.00011E-001	0.00000E+000	9	...........	1425.34
	49	4.5	-4.00480E-001	-2.12796E-004	0.00000E+000	-4.00011E-001	0.00000E+000	9	...........	1425.34
	50	4.6	-4.00481E-001	-2.12258E-004	0.00000E+000	-4.00011E-001	0.00000E+000	9	...........	1425.34
	51	4.7	-4.00482E-001	-2.11354E-004	0.00000E+000	-4.00011E-001	0.00000E+000	9	...........	1425.34
	52	4.8	-4.00476E-001	-2.10358E-004	0.00000E+000	-4.00011E-001	0.00000E+000	9	...........	1425.34
	53	4.9	-4.00493E-001	-2.09394E-004	0.00000E+000	-4.00011E-001	0.00000E+000	9	...........	1425.34
	54	5	-4.00487E-001	-2.08646E-004	0.00000E+000	-4.00011E-001	0.00000E+000	9	...........	1425.34
	55	5.1	-4.00472E-001	-2.07949E-004	0.00000E+000	-4.00011E-001	0.00000E+000	9	...........	1425.34
	56	5.2	-4.00471E-001	-2.07062E-004	0.00000E+000	-4.00011E-001	0.00000E+000	9	...........	1425.60
	57	5.3	-4.00487E-001	-2.06158E-004	0.00000E+000	-4.00011E-001	0.00000E+000	9	...........	1425.60
	58	5.4	-4.00483E-001	-2.05287E-004	0.00000E+000	-4.00011E-001	0.00000E+000	9	...........	1425.60
	59	5.5	-4.00486E-001	-2.04239E-004	0.00000E+000	-4.00011E-001	0.00000E+000	9	...........	1425.60
	60	5.6	-4.00482E-001	-2.03267E-004	0.00000E+000	-4.00011E-001	0.00000E+000	9	...........	1425.60
	61	5.7	-4.00478E-001	-2.02738E-004	0.00000E+000	-4.00011E-001	0.00000E+000	9	...........	1425.60
	62	5.8	-4.00464E-001	-2.02668E-004	0.00000E+000	-4.00011E-001	0.00000E+000	9	...........	1425.60
	63	5.9	-4.00482E-001	-2.01400E-004	0.00000E+000	-4.00011E-001	0.00000E+000	9	...........	1425.60
	64	6	-4.00479E-001	-2.00563E-004	0.00000E+000	-4.00011E-001	0.00000E+000	9	...........	1425.60
	65	6.1	-4.00487E-001	-1.99568E-004	0.00000E+000	-4.00011E-001	0.00000E+000	9	...........	1425.60
	66	7.1	-4.00497E-001	-1.92364E-004	0.00000E+000	-4.00011E-001	0.00000E+000	9	...........	1425.78
	67	8.1	-4.00491E-001	-1.86225E-004	0.00000E+000	-4.00011E-001	0.00000E+000	9	...........	1425.78
	68	9.1	-4.00484E-001	-1.80946E-004	0.00000E+000	-4.00011E-001	0.00000E+000	9	...........	1425.78
	69	10.1	-4.00485E-001	-1.76250E-004	0.00000E+000	-4.00011E-001	0.00000E+000	9	...........	1425.78
	70	11.1	-4.00490E-001	-1.71954E-004	0.00000E+000	-4.00011E-001	0.00000E+000	9	...........	1425.87
	71	12.1	-4.00489E-001	-1.68291E-004	0.00000E+000	-4.00011E-001	0.00000E+000	9	...........	1425.42
	72	13.1	-4.00491E-001	-1.64553E-004	0.00000E+000	-4.00011E-001	0.00000E+000	9	...........	1425.87
	73	14.1	-4.00487E-001	-1.60998E-004	0.00000E+000	-4.00011E-001	0.00000E+000	9	...........	1425.87
	74	15.1	-4.00485E-001	-1.57796E-004	0.00000E+000	-4.00011E-001	0.00000E+000	9	...........	1425.60
	75	16.1	-4.00487E-001	-1.54848E-004	0.00000E+000	-4.00011E-001	0.00000E+000	9	...........	1425.87
	76	26.1	-4.00487E-001	-1.34427E-004	0.00000E+000	-4.00011E-001	0.00000E+000	9	...........	1425.87
	77	36.1	-4.00489E-001	-1.21851E-004	0.00000E+000	-4.00011E-001	0.00000E+000	9	...........	1425.87
	78	46.1	-4.00476E-001	-1.13699E-004	0.00000E+000	-4.00011E-001	0.00000E+000	9	...........	1425.87
	79	56.1	-4.00488E-001	-1.07310E-004	0.00000E+000	-4.00011E-001	0.00000E+000	9	...........	1425.87
	80	66.1	-4.00482E-001	-1.02836E-004	0.00000E+000	-4.00011E-001	0.00000E+000	9	...........	1425.87
	81	76.1	-4.00500E-001	-9.93447E-005	0.00000E+000	-4.00011E-001	0.00000E+000	9	...........	1425.87
	82	86.1	-4.00473E-001	-9.58929E-005	0.00000E+000	-4.00011E-001	0.00000E+000	9	...........	1425.95
	83	96.1	-4.00471E-001	-9.37120E-005	0.00000E+000	-4.00011E-001	0.00000E+000	9	...........	1425.95
	84	100	-4.00487E-001	-9.27581E-005	0.00000E+000	-4.00011E-001	0.00000E+000	9	...........	1425.95
	85	100.1	-4.50492E-001	-3.23735E-004	0.00000E+000	-4.50011E-001	0.00000E+000	9	...........	1425.95
	86	100.2	-4.50505E-001	-2.64417E-004	0.00000E+000	-4.50011E-001	0.00000E+000	9	...........	1425.95
	87	100.3	-4.50506E-001	-2.29983E-004	0.00000E+000	-4.50011E-001	0.00000E+000	9	...........	1425.95
	88	100.4	-4.50504E-001	-2.07827E-004	0.00000E+000	-4.50011E-001	0.00000E+000	9	...........	1425.95
	89	100.5	-4.50504E-001	-1.92583E-004	0.00000E+000	-4.50011E-001	0.00000E+000	9	...........	1425.95
	90	100.6	-4.50494E-001	-1.81789E-004	0.00000E+000	-4.50011E-001	0.00000E+000	9	...........	1425.95
	91	100.7	-4.50489E-001	-1.73720E-004	0.00000E+000	-4.50011E-001	0.00000E+000	9	...........	1425.95
	92	100.8	-4.50487E-001	-1.67478E-004	0.00000E+000	-4.50011E-001	0.00000E+000	9	...........	1425.95
	93	100.9	-4.50496E-001	-1.62702E-004	0.00000E+000	-4.50011E-001	0.00000E+000	9	...........	1425.95
	94	101	-4.50496E-001	-1.58862E-004	0.00000E+000	-4.50011E-001	0.00000E+000	9	...........	1425.95
