EXPLAIN
TAG	CHRONOA
TITLE	LABEL	Chronoamperometry Scan	Test Identifier
DATE	LABEL	4/8/2022	Date
TIME	LABEL	14:08:31	Time
NOTES	NOTES	1	Notes...
	
PSTAT	PSTAT	IFC1010-21051	Potentiostat
VPRESTEP	POTEN	-7.50000E-001	F	Pre-step Voltage (V)
TPRESTEP	QUANT	5.00000E-001	Pre-step Delay Time (s)
VSTEP1	POTEN	-8.00000E-001	F	Step 1 Voltage (V)
TSTEP1	QUANT	1.00000E+002	Step 1 Time (s)
VSTEP2	POTEN	-7.50000E-001	F	Step 2 Voltage (V)
TSTEP2	QUANT	1.00000E+000	Step 2 Time (s)
SAMPLETIME	QUANT	1.00000E-001	Sample Period (s)
DECIMATE	TOGGLE	T	Decimate
ILIMIT	QUANT	1.00000E+000	Limit I (mA/cm^2)
IMODE	SELECTOR	1	I/E Range Mode
IRANGE	QUANT	3.00000E-001	Max Current (mA)
EQDELAY	QUANT	5.00000E+000	Equil. Time (s)
SAMPLINGMODE	SELECTOR	1	Sampling Mode
AREA	QUANT	1.00000E+000	Sample Area (cm^2)
IRCOMP	SELECTOR	0	IRComp
PFCOR	QUANT	5.00000E+001	PF Corr. (ohm)
SEQUENCER	TOGGLE	TRUE	Run as Sequence
PSTATMODEL	IQUANT	64	Pstat Model
PSTATSECTION	LABEL	IFC1010-21051	Pstat Section
PSTATSERIALNO	LABEL	21051	Pstat Serial Number
CTRLMODE	IQUANT	1	Control Mode
ELECTROMETER	IQUANT	0	RE=0 or CS=1
IESTAB	IQUANT	0	I/E Stability
CASPEED	IQUANT	4	Control Amp Speed
CONVENTION	IQUANT	1	Current Convention
ICHRANGE	IQUANT	2	Ich Range
ICHRANGEMODE	TOGGLE	T	Ich Auto Range
ICHOFFSETENABLE	TOGGLE	F	Ich Offset Enable
ICHOFFSET	QUANT	0	Ich Offset (V)
ICHFILTER	IQUANT	3	Ich Filter
VCHRANGE	IQUANT	3	Vch Range
VCHRANGEMODE	TOGGLE	T	Vch Auto Range
VCHOFFSETENABLE	TOGGLE	F	Vch Offset Enable
VCHOFFSET	QUANT	0	Vch Offset (V)
VCHFILTER	IQUANT	3	Vch Filter
IERANGELOWERLIMIT	IQUANT	4	I/E Range Lower Limit
IERANGEMODE	TOGGLE	F	I/E AutoRange
IERANGE	IQUANT	9	I/E Range
ACHSELECT	IQUANT	0	Ach Select
ACHRANGE	IQUANT	2	Ach Range
ACHOFFSETENABLE	TOGGLE	F	Ach Offset Enable
ACHOFFSET	QUANT	0	Ach Offset (V)
ACHFILTER	IQUANT	1	Ach Filter
SENSECABLEID	IQUANT	14	Sense Cable ID
PWRCABLEID	IQUANT	14	Power Cable ID
DCCALDATE	LABEL	7/12/2022	DC Calibration Date
ACCALDATE	LABEL	4/2/2018	AC Calibration Date
FRAMEWORKVERSION	QUANT	7.06	Framework Version
INSTRUMENTVERSION	LABEL	4.30	Instrument Version
CURVE	TABLE	95
	Pt	T	Vf	Im	Vu	Sig	Ach	IERange	Over	Temp
	#	s	V vs. Ref.	A	V	V	V	#	bits	deg C
	0	-0.4	-7.50779E-001	-1.75257E-004	0.00000E+000	-7.50046E-001	0.00000E+000	9	...........	1425.95
	1	-0.3	-7.51032E-001	-1.74911E-004	0.00000E+000	-7.50046E-001	0.00000E+000	9	...........	1425.95
	2	-0.2	-7.51048E-001	-1.74673E-004	0.00000E+000	-7.50046E-001	0.00000E+000	9	...........	1425.95
	3	-0.1	-7.51036E-001	-1.74479E-004	0.00000E+000	-7.50046E-001	0.00000E+000	9	...........	1425.95
	4	0	-7.51037E-001	-1.74177E-004	0.00000E+000	-7.50046E-001	0.00000E+000	9	...........	1425.95
	5	0.1	-8.01067E-001	-3.82660E-004	0.00000E+000	-8.00059E-001	0.00000E+000	9	...........	1425.95
	6	0.2	-8.01060E-001	-3.03475E-004	0.00000E+000	-8.00059E-001	0.00000E+000	9	...........	1425.95
	7	0.3	-8.01057E-001	-2.62752E-004	0.00000E+000	-8.00059E-001	0.00000E+000	9	...........	1425.95
	8	0.4	-8.01057E-001	-2.39600E-004	0.00000E+000	-8.00059E-001	0.00000E+000	9	...........	1425.95
	9	0.5	-8.01049E-001	-2.25096E-004	0.00000E+000	-8.00059E-001	0.00000E+000	9	...........	1425.95
	10	0.6	-8.01055E-001	-2.15860E-004	0.00000E+000	-8.00059E-001	0.00000E+000	9	...........	1425.51
	11	0.7	-8.01065E-001	-2.09540E-004	0.00000E+000	-8.00059E-001	0.00000E+000	9	...........	1425.51
	12	0.8	-8.01061E-001	-2.04782E-004	0.00000E+000	-8.00059E-001	0.00000E+000	9	...........	1425.51
	13	0.9	-8.01061E-001	-2.01244E-004	0.00000E+000	-8.00059E-001	0.00000E+000	9	...........	1425.51
	14	1	-8.01069E-001	-1.98263E-004	0.00000E+000	-8.00059E-001	0.00000E+000	9	...........	1425.51
	15	1.1	-8.01057E-001	-1.95994E-004	0.00000E+000	-8.00059E-001	0.00000E+000	9	...........	1425.51
	16	1.2	-8.01048E-001	-1.94038E-004	0.00000E+000	-8.00059E-001	0.00000E+000	9	...........	1425.51
	17	1.3	-8.01052E-001	-1.92414E-004	0.00000E+000	-8.00059E-001	0.00000E+000	9	...........	1425.51
	18	1.4	-8.01056E-001	-1.90971E-004	0.00000E+000	-8.00059E-001	0.00000E+000	9	...........	1425.51
	19	1.5	-8.01056E-001	-1.89654E-004	0.00000E+000	-8.00059E-001	0.00000E+000	9	...........	1425.51
	20	1.6	-8.01053E-001	-1.88512E-004	0.00000E+000	-8.00059E-001	0.00000E+000	9	...........	1425.51
	21	1.7	-8.01059E-001	-1.87646E-004	0.00000E+000	-8.00059E-001	0.00000E+000	9	...........	1425.51
	22	1.8	-8.01065E-001	-1.86681E-004	0.00000E+000	-8.00059E-001	0.00000E+000	9	...........	1425.51
	23	1.9	-8.01059E-001	-1.85802E-004	0.00000E+000	-8.00059E-001	0.00000E+000	9	...........	1425.51
	24	2	-8.01061E-001	-1.85093E-004	0.00000E+000	-8.00059E-001	0.00000E+000	9	...........	1425.51
	25	2.1	-8.01059E-001	-1.84408E-004	0.00000E+000	-8.00059E-001	0.00000E+000	9	...........	1425.51
	26	2.2	-8.01049E-001	-1.83779E-004	0.00000E+000	-8.00059E-001	0.00000E+000	9	...........	1425.51
	27	2.3	-8.01053E-001	-1.83094E-004	0.00000E+000	-8.00059E-001	0.00000E+000	9	...........	1425.51
	28	2.4	-8.01055E-001	-1.82571E-004	0.00000E+000	-8.00059E-001	0.00000E+000	9	...........	1425.51
	29	2.5	-8.01055E-001	-1.82210E-004	0.00000E+000	-8.00059E-001	0.00000E+000	9	...........	1425.51
	30	2.6	-8.01054E-001	-1.81621E-004	0.00000E+000	-8.00059E-001	0.00000E+000	9	...........	1425.51
	31	2.7	-8.01059E-001	-1.81196E-004	0.00000E+000	-8.00059E-001	0.00000E+000	9	...........	1425.51
	32	2.8	-8.01043E-001	-1.80716E-004	0.00000E+000	-8.00059E-001	0.00000E+000	9	...........	1425.51
	33	2.9	-8.01062E-001	-1.80318E-004	0.00000E+000	-8.00059E-001	0.00000E+000	9	...........	1425.51
	34	3	-8.01065E-001	-1.79825E-004	0.00000E+000	-8.00059E-001	0.00000E+000	9	...........	1425.51
	35	3.1	-8.01064E-001	-1.79521E-004	0.00000E+000	-8.00059E-001	0.00000E+000	9	...........	1425.51
	36	3.2	-8.01063E-001	-1.79089E-004	0.00000E+000	-8.00059E-001	0.00000E+000	9	...........	1425.51
	37	3.3	-8.01055E-001	-1.78711E-004	0.00000E+000	-8.00059E-001	0.00000E+000	9	...........	1425.51
	38	3.4	-8.01055E-001	-1.78362E-004	0.00000E+000	-8.00059E-001	0.00000E+000	9	...........	1425.51
	39	3.5	-8.01053E-001	-1.78039E-004	0.00000E+000	-8.00059E-001	0.00000E+000	9	...........	1425.51
	40	3.6	-8.01064E-001	-1.77836E-004	0.00000E+000	-8.00059E-001	0.00000E+000	9	...........	1425.87
	41	3.7	-8.01073E-001	-1.77572E-004	0.00000E+000	-8.00059E-001	0.00000E+000	9	...........	1425.87
	42	3.8	-8.01063E-001	-1.77191E-004	0.00000E+000	-8.00059E-001	0.00000E+000	9	...........	1425.87
	43	3.9	-8.01067E-001	-1.76979E-004	0.00000E+000	-8.00059E-001	0.00000E+000	9	...........	1425.87
	44	4	-8.01051E-001	-1.76612E-004	0.00000E+000	-8.00059E-001	0.00000E+000	9	...........	1425.87
	45	4.1	-8.01063E-001	-1.76517E-004	0.00000E+000	-8.00059E-001	0.00000E+000	9	...........	1425.87
	46	4.2	-8.01064E-001	-1.76302E-004	0.00000E+000	-8.00059E-001	0.00000E+000	9	...........	1425.87
	47	4.3	-8.01054E-001	-1.76050E-004	0.00000E+000	-8.00059E-001	0.00000E+000	9	...........	1425.87
	48	4.4	-8.01057E-001	-1.75881E-004	0.00000E+000	-8.00059E-001	0.00000E+000	9	...........	1425.87
	49	4.5	-8.01061E-001	-1.75711E-004	0.00000E+000	-8.00059E-001	0.00000E+000	9	...........	1425.87
	50	4.6	-8.01054E-001	-1.75432E-004	0.00000E+000	-8.00059E-001	0.00000E+000	9	...........	1425.87
	51	4.7	-8.01065E-001	-1.75208E-004	0.00000E+000	-8.00059E-001	0.00000E+000	9	...........	1425.87
	52	4.8	-8.01060E-001	-1.74932E-004	0.00000E+000	-8.00059E-001	0.00000E+000	9	...........	1425.87
	53	4.9	-8.01056E-001	-1.74809E-004	0.00000E+000	-8.00059E-001	0.00000E+000	9	...........	1425.87
	54	5	-8.01068E-001	-1.74651E-004	0.00000E+000	-8.00059E-001	0.00000E+000	9	...........	1425.87
	55	5.1	-8.01048E-001	-1.74259E-004	0.00000E+000	-8.00059E-001	0.00000E+000	9	...........	1425.87
	56	5.2	-8.01072E-001	-1.74210E-004	0.00000E+000	-8.00059E-001	0.00000E+000	9	...........	1425.87
	57	5.3	-8.01066E-001	-1.73933E-004	0.00000E+000	-8.00059E-001	0.00000E+000	9	...........	1425.87
	58	5.4	-8.01061E-001	-1.73682E-004	0.00000E+000	-8.00059E-001	0.00000E+000	9	...........	1425.87
	59	5.5	-8.01066E-001	-1.73595E-004	0.00000E+000	-8.00059E-001	0.00000E+000	9	...........	1425.87
	60	5.6	-8.01058E-001	-1.73386E-004	0.00000E+000	-8.00059E-001	0.00000E+000	9	...........	1425.78
	61	5.7	-8.01057E-001	-1.73212E-004	0.00000E+000	-8.00059E-001	0.00000E+000	9	...........	1425.78
	62	5.8	-8.01059E-001	-1.73128E-004	0.00000E+000	-8.00059E-001	0.00000E+000	9	...........	1425.78
	63	5.9	-8.01060E-001	-1.72730E-004	0.00000E+000	-8.00059E-001	0.00000E+000	9	...........	1425.78
	64	6	-8.01060E-001	-1.72744E-004	0.00000E+000	-8.00059E-001	0.00000E+000	9	...........	1425.78
	65	6.1	-8.01063E-001	-1.72467E-004	0.00000E+000	-8.00059E-001	0.00000E+000	9	...........	1425.78
	66	7.1	-8.01059E-001	-1.71209E-004	0.00000E+000	-8.00059E-001	0.00000E+000	9	...........	1425.51
	67	8.1	-8.01065E-001	-1.69914E-004	0.00000E+000	-8.00059E-001	0.00000E+000	9	...........	1425.95
	68	9.1	-8.01045E-001	-1.68668E-004	0.00000E+000	-8.00059E-001	0.00000E+000	9	...........	1425.95
	69	10.1	-8.01070E-001	-1.68019E-004	0.00000E+000	-8.00059E-001	0.00000E+000	9	...........	1425.87
	70	11.1	-8.01075E-001	-1.67300E-004	0.00000E+000	-8.00059E-001	0.00000E+000	9	...........	1425.95
	71	12.1	-8.01065E-001	-1.66504E-004	0.00000E+000	-8.00059E-001	0.00000E+000	9	...........	1425.95
	72	13.1	-8.01062E-001	-1.65853E-004	0.00000E+000	-8.00059E-001	0.00000E+000	9	...........	1425.95
	73	14.1	-8.01061E-001	-1.65305E-004	0.00000E+000	-8.00059E-001	0.00000E+000	9	...........	1425.95
	74	15.1	-8.01055E-001	-1.64787E-004	0.00000E+000	-8.00059E-001	0.00000E+000	9	...........	1425.95
	75	16.1	-8.01057E-001	-1.64155E-004	0.00000E+000	-8.00059E-001	0.00000E+000	9	...........	1425.95
	76	26.1	-8.01049E-001	-1.60205E-004	0.00000E+000	-8.00059E-001	0.00000E+000	9	...........	1425.95
	77	36.1	-8.01054E-001	-1.57702E-004	0.00000E+000	-8.00059E-001	0.00000E+000	9	...........	1425.95
	78	46.1	-8.01063E-001	-1.55733E-004	0.00000E+000	-8.00059E-001	0.00000E+000	9	...........	1425.95
	79	56.1	-8.01058E-001	-1.54168E-004	0.00000E+000	-8.00059E-001	0.00000E+000	9	...........	1425.87
	80	66.1	-8.01068E-001	-1.52944E-004	0.00000E+000	-8.00059E-001	0.00000E+000	9	...........	1425.95
	81	76.1	-8.01059E-001	-1.51822E-004	0.00000E+000	-8.00059E-001	0.00000E+000	9	...........	1426.04
	82	86.1	-8.01064E-001	-1.50725E-004	0.00000E+000	-8.00059E-001	0.00000E+000	9	...........	1425.95
	83	96.1	-8.01046E-001	-1.49846E-004	0.00000E+000	-8.00059E-001	0.00000E+000	9	...........	1425.95
	84	100	-8.01075E-001	-1.49723E-004	0.00000E+000	-8.00059E-001	0.00000E+000	9	...........	1425.95
	85	100.1	-7.51059E-001	2.53052E-005	0.00000E+000	-7.50046E-001	0.00000E+000	9	...........	1425.95
	86	100.2	-7.51042E-001	-5.83357E-005	0.00000E+000	-7.50046E-001	0.00000E+000	9	...........	1425.95
	87	100.3	-7.51042E-001	-9.48744E-005	0.00000E+000	-7.50046E-001	0.00000E+000	9	...........	1425.95
	88	100.4	-7.51054E-001	-1.13073E-004	0.00000E+000	-7.50046E-001	0.00000E+000	9	...........	1425.95
	89	100.5	-7.51058E-001	-1.22754E-004	0.00000E+000	-7.50046E-001	0.00000E+000	9	...........	1425.95
	90	100.6	-7.51055E-001	-1.28326E-004	0.00000E+000	-7.50046E-001	0.00000E+000	9	...........	1425.95
	91	100.7	-7.51042E-001	-1.31856E-004	0.00000E+000	-7.50046E-001	0.00000E+000	9	...........	1425.95
	92	100.8	-7.51045E-001	-1.34137E-004	0.00000E+000	-7.50046E-001	0.00000E+000	9	...........	1425.95
	93	100.9	-7.51050E-001	-1.35812E-004	0.00000E+000	-7.50046E-001	0.00000E+000	9	...........	1425.95
	94	101	-7.51051E-001	-1.37077E-004	0.00000E+000	-7.50046E-001	0.00000E+000	9	...........	1425.95
