EXPLAIN
TAG	CHRONOA
TITLE	LABEL	Chronoamperometry Scan	Test Identifier
DATE	LABEL	4/8/2022	Date
TIME	LABEL	13:46:09	Time
NOTES	NOTES	1	Notes...
	
PSTAT	PSTAT	IFC1010-21051	Potentiostat
VPRESTEP	POTEN	-7.50000E-001	F	Pre-step Voltage (V)
TPRESTEP	QUANT	5.00000E-001	Pre-step Delay Time (s)
VSTEP1	POTEN	-8.00000E-001	F	Step 1 Voltage (V)
TSTEP1	QUANT	1.00000E+002	Step 1 Time (s)
VSTEP2	POTEN	-7.50000E-001	F	Step 2 Voltage (V)
TSTEP2	QUANT	1.00000E+000	Step 2 Time (s)
SAMPLETIME	QUANT	1.00000E-001	Sample Period (s)
DECIMATE	TOGGLE	T	Decimate
ILIMIT	QUANT	1.00000E+000	Limit I (mA/cm^2)
IMODE	SELECTOR	1	I/E Range Mode
IRANGE	QUANT	3.00000E-001	Max Current (mA)
EQDELAY	QUANT	5.00000E+000	Equil. Time (s)
SAMPLINGMODE	SELECTOR	1	Sampling Mode
AREA	QUANT	1.00000E+000	Sample Area (cm^2)
IRCOMP	SELECTOR	0	IRComp
PFCOR	QUANT	5.00000E+001	PF Corr. (ohm)
SEQUENCER	TOGGLE	TRUE	Run as Sequence
PSTATMODEL	IQUANT	64	Pstat Model
PSTATSECTION	LABEL	IFC1010-21051	Pstat Section
PSTATSERIALNO	LABEL	21051	Pstat Serial Number
CTRLMODE	IQUANT	1	Control Mode
ELECTROMETER	IQUANT	0	RE=0 or CS=1
IESTAB	IQUANT	0	I/E Stability
CASPEED	IQUANT	4	Control Amp Speed
CONVENTION	IQUANT	1	Current Convention
ICHRANGE	IQUANT	2	Ich Range
ICHRANGEMODE	TOGGLE	T	Ich Auto Range
ICHOFFSETENABLE	TOGGLE	F	Ich Offset Enable
ICHOFFSET	QUANT	0	Ich Offset (V)
ICHFILTER	IQUANT	3	Ich Filter
VCHRANGE	IQUANT	3	Vch Range
VCHRANGEMODE	TOGGLE	T	Vch Auto Range
VCHOFFSETENABLE	TOGGLE	F	Vch Offset Enable
VCHOFFSET	QUANT	0	Vch Offset (V)
VCHFILTER	IQUANT	3	Vch Filter
IERANGELOWERLIMIT	IQUANT	4	I/E Range Lower Limit
IERANGEMODE	TOGGLE	F	I/E AutoRange
IERANGE	IQUANT	9	I/E Range
ACHSELECT	IQUANT	0	Ach Select
ACHRANGE	IQUANT	2	Ach Range
ACHOFFSETENABLE	TOGGLE	F	Ach Offset Enable
ACHOFFSET	QUANT	0	Ach Offset (V)
ACHFILTER	IQUANT	1	Ach Filter
SENSECABLEID	IQUANT	14	Sense Cable ID
PWRCABLEID	IQUANT	14	Power Cable ID
DCCALDATE	LABEL	7/12/2022	DC Calibration Date
ACCALDATE	LABEL	4/2/2018	AC Calibration Date
FRAMEWORKVERSION	QUANT	7.06	Framework Version
INSTRUMENTVERSION	LABEL	4.30	Instrument Version
CURVE	TABLE	95
	Pt	T	Vf	Im	Vu	Sig	Ach	IERange	Over	Temp
	#	s	V vs. Ref.	A	V	V	V	#	bits	deg C
	0	-0.4	-7.50800E-001	-1.64340E-004	0.00000E+000	-7.50046E-001	0.00000E+000	9	...........	1425.95
	1	-0.3	-7.51048E-001	-1.64069E-004	0.00000E+000	-7.50046E-001	0.00000E+000	9	...........	1425.95
	2	-0.2	-7.51038E-001	-1.63727E-004	0.00000E+000	-7.50046E-001	0.00000E+000	9	...........	1425.95
	3	-0.1	-7.51047E-001	-1.63585E-004	0.00000E+000	-7.50046E-001	0.00000E+000	9	...........	1425.95
	4	0	-7.51039E-001	-1.63228E-004	0.00000E+000	-7.50046E-001	0.00000E+000	9	...........	1425.95
	5	0.1	-8.01057E-001	-3.83096E-004	0.00000E+000	-8.00059E-001	0.00000E+000	9	...........	1425.95
	6	0.2	-8.01064E-001	-3.08676E-004	0.00000E+000	-8.00059E-001	0.00000E+000	9	...........	1425.95
	7	0.3	-8.01054E-001	-2.65332E-004	0.00000E+000	-8.00059E-001	0.00000E+000	9	...........	1425.95
	8	0.4	-8.01067E-001	-2.38670E-004	0.00000E+000	-8.00059E-001	0.00000E+000	9	...........	1425.95
	9	0.5	-8.01057E-001	-2.21418E-004	0.00000E+000	-8.00059E-001	0.00000E+000	9	...........	1425.95
	10	0.6	-8.01062E-001	-2.10015E-004	0.00000E+000	-8.00059E-001	0.00000E+000	9	...........	1425.95
	11	0.7	-8.01050E-001	-2.02071E-004	0.00000E+000	-8.00059E-001	0.00000E+000	9	...........	1425.95
	12	0.8	-8.01059E-001	-1.96275E-004	0.00000E+000	-8.00059E-001	0.00000E+000	9	...........	1425.95
	13	0.9	-8.01061E-001	-1.91807E-004	0.00000E+000	-8.00059E-001	0.00000E+000	9	...........	1425.95
	14	1	-8.01057E-001	-1.88513E-004	0.00000E+000	-8.00059E-001	0.00000E+000	9	...........	1425.95
	15	1.1	-8.01031E-001	-1.85923E-004	0.00000E+000	-8.00059E-001	0.00000E+000	9	...........	1425.95
	16	1.2	-8.01059E-001	-1.84040E-004	0.00000E+000	-8.00059E-001	0.00000E+000	9	...........	1425.95
	17	1.3	-8.01039E-001	-1.82299E-004	0.00000E+000	-8.00059E-001	0.00000E+000	9	...........	1425.95
	18	1.4	-8.01045E-001	-1.81044E-004	0.00000E+000	-8.00059E-001	0.00000E+000	9	...........	1425.95
	19	1.5	-8.01057E-001	-1.79784E-004	0.00000E+000	-8.00059E-001	0.00000E+000	9	...........	1425.95
	20	1.6	-8.01065E-001	-1.78725E-004	0.00000E+000	-8.00059E-001	0.00000E+000	9	...........	1425.95
	21	1.7	-8.01067E-001	-1.77619E-004	0.00000E+000	-8.00059E-001	0.00000E+000	9	...........	1425.51
	22	1.8	-8.01058E-001	-1.76516E-004	0.00000E+000	-8.00059E-001	0.00000E+000	9	...........	1425.51
	23	1.9	-8.01054E-001	-1.75760E-004	0.00000E+000	-8.00059E-001	0.00000E+000	9	...........	1425.51
	24	2	-8.01062E-001	-1.75033E-004	0.00000E+000	-8.00059E-001	0.00000E+000	9	...........	1425.51
	25	2.1	-8.01048E-001	-1.74393E-004	0.00000E+000	-8.00059E-001	0.00000E+000	9	...........	1425.51
	26	2.2	-8.01045E-001	-1.73696E-004	0.00000E+000	-8.00059E-001	0.00000E+000	9	...........	1425.51
	27	2.3	-8.01065E-001	-1.73342E-004	0.00000E+000	-8.00059E-001	0.00000E+000	9	...........	1425.51
	28	2.4	-8.01056E-001	-1.72810E-004	0.00000E+000	-8.00059E-001	0.00000E+000	9	...........	1425.51
	29	2.5	-8.01064E-001	-1.72291E-004	0.00000E+000	-8.00059E-001	0.00000E+000	9	...........	1425.51
	30	2.6	-8.01063E-001	-1.71840E-004	0.00000E+000	-8.00059E-001	0.00000E+000	9	...........	1425.51
	31	2.7	-8.01067E-001	-1.71221E-004	0.00000E+000	-8.00059E-001	0.00000E+000	9	...........	1425.69
	32	2.8	-8.01070E-001	-1.70817E-004	0.00000E+000	-8.00059E-001	0.00000E+000	9	...........	1425.69
	33	2.9	-8.01058E-001	-1.70460E-004	0.00000E+000	-8.00059E-001	0.00000E+000	9	...........	1425.69
	34	3	-8.01053E-001	-1.70155E-004	0.00000E+000	-8.00059E-001	0.00000E+000	9	...........	1425.69
	35	3.1	-8.01061E-001	-1.69862E-004	0.00000E+000	-8.00059E-001	0.00000E+000	9	...........	1425.69
	36	3.2	-8.01047E-001	-1.69495E-004	0.00000E+000	-8.00059E-001	0.00000E+000	9	...........	1425.69
	37	3.3	-8.01069E-001	-1.69223E-004	0.00000E+000	-8.00059E-001	0.00000E+000	9	...........	1425.69
	38	3.4	-8.01067E-001	-1.68852E-004	0.00000E+000	-8.00059E-001	0.00000E+000	9	...........	1425.69
	39	3.5	-8.01056E-001	-1.68454E-004	0.00000E+000	-8.00059E-001	0.00000E+000	9	...........	1425.69
	40	3.6	-8.01055E-001	-1.68132E-004	0.00000E+000	-8.00059E-001	0.00000E+000	9	...........	1425.69
	41	3.7	-8.01045E-001	-1.67782E-004	0.00000E+000	-8.00059E-001	0.00000E+000	9	...........	1425.87
	42	3.8	-8.01051E-001	-1.67371E-004	0.00000E+000	-8.00059E-001	0.00000E+000	9	...........	1425.87
	43	3.9	-8.01058E-001	-1.67071E-004	0.00000E+000	-8.00059E-001	0.00000E+000	9	...........	1425.87
	44	4	-8.01068E-001	-1.66922E-004	0.00000E+000	-8.00059E-001	0.00000E+000	9	...........	1425.87
	45	4.1	-8.01063E-001	-1.66731E-004	0.00000E+000	-8.00059E-001	0.00000E+000	9	...........	1425.87
	46	4.2	-8.01059E-001	-1.66572E-004	0.00000E+000	-8.00059E-001	0.00000E+000	9	...........	1425.87
	47	4.3	-8.01069E-001	-1.66322E-004	0.00000E+000	-8.00059E-001	0.00000E+000	9	...........	1425.87
	48	4.4	-8.01063E-001	-1.66152E-004	0.00000E+000	-8.00059E-001	0.00000E+000	9	...........	1425.87
	49	4.5	-8.01065E-001	-1.65890E-004	0.00000E+000	-8.00059E-001	0.00000E+000	9	...........	1425.87
	50	4.6	-8.01057E-001	-1.65686E-004	0.00000E+000	-8.00059E-001	0.00000E+000	9	...........	1425.87
	51	4.7	-8.01068E-001	-1.65460E-004	0.00000E+000	-8.00059E-001	0.00000E+000	9	...........	1425.87
	52	4.8	-8.01065E-001	-1.65449E-004	0.00000E+000	-8.00059E-001	0.00000E+000	9	...........	1425.87
	53	4.9	-8.01044E-001	-1.65241E-004	0.00000E+000	-8.00059E-001	0.00000E+000	9	...........	1425.87
	54	5	-8.01061E-001	-1.64957E-004	0.00000E+000	-8.00059E-001	0.00000E+000	9	...........	1425.87
	55	5.1	-8.01049E-001	-1.64774E-004	0.00000E+000	-8.00059E-001	0.00000E+000	9	...........	1425.87
	56	5.2	-8.01069E-001	-1.64525E-004	0.00000E+000	-8.00059E-001	0.00000E+000	9	...........	1425.87
	57	5.3	-8.01062E-001	-1.64331E-004	0.00000E+000	-8.00059E-001	0.00000E+000	9	...........	1425.87
	58	5.4	-8.01065E-001	-1.64253E-004	0.00000E+000	-8.00059E-001	0.00000E+000	9	...........	1425.87
	59	5.5	-8.01052E-001	-1.64056E-004	0.00000E+000	-8.00059E-001	0.00000E+000	9	...........	1425.87
	60	5.6	-8.01049E-001	-1.63784E-004	0.00000E+000	-8.00059E-001	0.00000E+000	9	...........	1425.87
	61	5.7	-8.01042E-001	-1.63574E-004	0.00000E+000	-8.00059E-001	0.00000E+000	9	...........	1425.87
	62	5.8	-8.01044E-001	-1.63410E-004	0.00000E+000	-8.00059E-001	0.00000E+000	9	...........	1425.87
	63	5.9	-8.01056E-001	-1.63308E-004	0.00000E+000	-8.00059E-001	0.00000E+000	9	...........	1425.87
	64	6	-8.01059E-001	-1.63154E-004	0.00000E+000	-8.00059E-001	0.00000E+000	9	...........	1425.87
	65	6.1	-8.01065E-001	-1.63030E-004	0.00000E+000	-8.00059E-001	0.00000E+000	9	...........	1425.87
	66	7.1	-8.01064E-001	-1.64012E-004	0.00000E+000	-8.00059E-001	0.00000E+000	9	...........	1425.87
	67	8.1	-8.01062E-001	-1.60436E-004	0.00000E+000	-8.00059E-001	0.00000E+000	9	...........	1425.95
	68	9.1	-8.01051E-001	-1.59633E-004	0.00000E+000	-8.00059E-001	0.00000E+000	9	...........	1425.95
	69	10.1	-8.01046E-001	-1.59614E-004	0.00000E+000	-8.00059E-001	0.00000E+000	9	...........	1425.95
	70	11.1	-8.01062E-001	-1.58120E-004	0.00000E+000	-8.00059E-001	0.00000E+000	9	...........	1425.87
	71	12.1	-8.01061E-001	-1.59302E-004	0.00000E+000	-8.00059E-001	0.00000E+000	9	...........	1425.95
	72	13.1	-8.01066E-001	-1.55666E-004	0.00000E+000	-8.00059E-001	0.00000E+000	9	...........	1425.95
	73	14.1	-8.01058E-001	-1.55052E-004	0.00000E+000	-8.00059E-001	0.00000E+000	9	...........	1425.95
	74	15.1	-8.01064E-001	-1.54285E-004	0.00000E+000	-8.00059E-001	0.00000E+000	9	...........	1425.95
	75	16.1	-8.01057E-001	-1.53438E-004	0.00000E+000	-8.00059E-001	0.00000E+000	9	...........	1425.95
	76	26.1	-8.01058E-001	-1.48838E-004	0.00000E+000	-8.00059E-001	0.00000E+000	9	...........	1425.95
	77	36.1	-8.01082E-001	-1.45749E-004	0.00000E+000	-8.00059E-001	0.00000E+000	9	...........	1425.95
	78	46.1	-8.01057E-001	-1.44500E-004	0.00000E+000	-8.00059E-001	0.00000E+000	9	...........	1425.95
	79	56.1	-8.01066E-001	-1.41426E-004	0.00000E+000	-8.00059E-001	0.00000E+000	9	...........	1425.95
	80	66.1	-8.01055E-001	-1.39694E-004	0.00000E+000	-8.00059E-001	0.00000E+000	9	...........	1425.95
	81	76.1	-8.01062E-001	-1.38708E-004	0.00000E+000	-8.00059E-001	0.00000E+000	9	...........	1425.95
	82	86.1	-8.01069E-001	-1.36591E-004	0.00000E+000	-8.00059E-001	0.00000E+000	9	...........	1425.95
	83	96.1	-8.01062E-001	-1.35328E-004	0.00000E+000	-8.00059E-001	0.00000E+000	9	...........	1425.95
	84	100	-8.01056E-001	-1.34954E-004	0.00000E+000	-8.00059E-001	0.00000E+000	9	...........	1425.95
	85	100.1	-7.51067E-001	6.26672E-005	0.00000E+000	-7.50046E-001	0.00000E+000	9	...........	1425.95
	86	100.2	-7.51036E-001	-1.71840E-005	0.00000E+000	-7.50046E-001	0.00000E+000	9	...........	1425.95
	87	100.3	-7.51031E-001	-5.90319E-005	0.00000E+000	-7.50046E-001	0.00000E+000	9	...........	1425.95
	88	100.4	-7.51040E-001	-8.26502E-005	0.00000E+000	-7.50046E-001	0.00000E+000	9	...........	1425.95
	89	100.5	-7.51041E-001	-9.67913E-005	0.00000E+000	-7.50046E-001	0.00000E+000	9	...........	1425.95
	90	100.6	-7.51037E-001	-1.05396E-004	0.00000E+000	-7.50046E-001	0.00000E+000	9	...........	1425.95
	91	100.7	-7.51032E-001	-1.10944E-004	0.00000E+000	-7.50046E-001	0.00000E+000	9	...........	1425.95
	92	100.8	-7.51044E-001	-1.14683E-004	0.00000E+000	-7.50046E-001	0.00000E+000	9	...........	1425.95
	93	100.9	-7.51048E-001	-1.17402E-004	0.00000E+000	-7.50046E-001	0.00000E+000	9	...........	1425.95
	94	101	-7.51060E-001	-1.19132E-004	0.00000E+000	-7.50046E-001	0.00000E+000	9	...........	1425.95
