EXPLAIN
TAG	CHRONOA
TITLE	LABEL	Chronoamperometry Scan	Test Identifier
DATE	LABEL	17/12/2021	Date
TIME	LABEL	14:50:57	Time
NOTES	NOTES	1	Notes...
	
PSTAT	PSTAT	IFC1010-21051	Potentiostat
VPRESTEP	POTEN	1.00000E-001	F	Pre-step Voltage (V)
TPRESTEP	QUANT	5.00000E-001	Pre-step Delay Time (s)
VSTEP1	POTEN	0.00000E+000	F	Step 1 Voltage (V)
TSTEP1	QUANT	6.00000E+001	Step 1 Time (s)
VSTEP2	POTEN	1.00000E-001	F	Step 2 Voltage (V)
TSTEP2	QUANT	1.00000E+000	Step 2 Time (s)
SAMPLETIME	QUANT	1.00000E-002	Sample Period (s)
DECIMATE	TOGGLE	T	Decimate
ILIMIT	QUANT	1.00000E+000	Limit I (mA/cm^2)
IMODE	SELECTOR	1	I/E Range Mode
IRANGE	QUANT	3.00000E-001	Max Current (mA)
EQDELAY	QUANT	5.00000E+000	Equil. Time (s)
SAMPLINGMODE	SELECTOR	1	Sampling Mode
AREA	QUANT	1.00000E+000	Sample Area (cm^2)
IRCOMP	SELECTOR	0	IRComp
PFCOR	QUANT	5.00000E+001	PF Corr. (ohm)
SEQUENCER	TOGGLE	TRUE	Run as Sequence
PSTATMODEL	IQUANT	64	Pstat Model
PSTATSECTION	LABEL	IFC1010-21051	Pstat Section
PSTATSERIALNO	LABEL	21051	Pstat Serial Number
CTRLMODE	IQUANT	1	Control Mode
ELECTROMETER	IQUANT	0	RE=0 or CS=1
IESTAB	IQUANT	0	I/E Stability
CASPEED	IQUANT	4	Control Amp Speed
CONVENTION	IQUANT	1	Current Convention
ICHRANGE	IQUANT	2	Ich Range
ICHRANGEMODE	TOGGLE	T	Ich Auto Range
ICHOFFSETENABLE	TOGGLE	F	Ich Offset Enable
ICHOFFSET	QUANT	0	Ich Offset (V)
ICHFILTER	IQUANT	3	Ich Filter
VCHRANGE	IQUANT	3	Vch Range
VCHRANGEMODE	TOGGLE	T	Vch Auto Range
VCHOFFSETENABLE	TOGGLE	F	Vch Offset Enable
VCHOFFSET	QUANT	0	Vch Offset (V)
VCHFILTER	IQUANT	3	Vch Filter
IERANGELOWERLIMIT	IQUANT	4	I/E Range Lower Limit
IERANGEMODE	TOGGLE	F	I/E AutoRange
IERANGE	IQUANT	9	I/E Range
ACHSELECT	IQUANT	0	Ach Select
ACHRANGE	IQUANT	2	Ach Range
ACHOFFSETENABLE	TOGGLE	F	Ach Offset Enable
ACHOFFSET	QUANT	0	Ach Offset (V)
ACHFILTER	IQUANT	1	Ach Filter
SENSECABLEID	IQUANT	14	Sense Cable ID
PWRCABLEID	IQUANT	14	Power Cable ID
DCCALDATE	LABEL	10/1/2020	DC Calibration Date
ACCALDATE	LABEL	4/2/2018	AC Calibration Date
FRAMEWORKVERSION	QUANT	7.06	Framework Version
INSTRUMENTVERSION	LABEL	4.30	Instrument Version
CURVE	TABLE	201
	Pt	T	Vf	Im	Vu	Sig	Ach	IERange	Over	Temp
	#	s	V vs. Ref.	A	V	V	V	#	bits	deg C
	0	-0.49	9.96691E-002	-7.50213E-005	0.00000E+000	9.99387E-002	0.00000E+000	9	...........	1426.13
	1	-0.48	9.99205E-002	-7.40718E-005	0.00000E+000	9.99387E-002	0.00000E+000	9	...........	1426.13
	2	-0.47	9.99908E-002	-7.47844E-005	0.00000E+000	9.99387E-002	0.00000E+000	9	...........	1426.13
	3	-0.46	9.99906E-002	-7.38365E-005	0.00000E+000	9.99387E-002	0.00000E+000	9	...........	1426.13
	4	-0.45	9.99893E-002	-7.45609E-005	0.00000E+000	9.99387E-002	0.00000E+000	9	...........	1426.13
	5	-0.44	9.99887E-002	-7.36107E-005	0.00000E+000	9.99387E-002	0.00000E+000	9	...........	1426.13
	6	-0.43	9.99892E-002	-7.43573E-005	0.00000E+000	9.99387E-002	0.00000E+000	9	...........	1426.13
	7	-0.42	9.99874E-002	-7.33746E-005	0.00000E+000	9.99387E-002	0.00000E+000	9	...........	1426.13
	8	-0.41	9.99882E-002	-7.41301E-005	0.00000E+000	9.99387E-002	0.00000E+000	9	...........	1426.13
	9	-0.4	9.99886E-002	-7.31583E-005	0.00000E+000	9.99387E-002	0.00000E+000	9	...........	1426.13
	10	-0.39	9.99907E-002	-7.38980E-005	0.00000E+000	9.99387E-002	0.00000E+000	9	...........	1426.13
	11	-0.38	9.99867E-002	-7.29392E-005	0.00000E+000	9.99387E-002	0.00000E+000	9	...........	1426.13
	12	-0.37	9.99876E-002	-7.36886E-005	0.00000E+000	9.99387E-002	0.00000E+000	9	...........	1426.13
	13	-0.36	9.99862E-002	-7.27042E-005	0.00000E+000	9.99387E-002	0.00000E+000	9	...........	1426.13
	14	-0.35	9.99872E-002	-7.34761E-005	0.00000E+000	9.99387E-002	0.00000E+000	9	...........	1426.13
	15	-0.34	9.99888E-002	-7.24812E-005	0.00000E+000	9.99387E-002	0.00000E+000	9	...........	1426.13
	16	-0.33	9.99886E-002	-7.32487E-005	0.00000E+000	9.99387E-002	0.00000E+000	9	...........	1426.13
	17	-0.32	9.99879E-002	-7.22515E-005	0.00000E+000	9.99387E-002	0.00000E+000	9	...........	1426.13
	18	-0.31	9.99873E-002	-7.30287E-005	0.00000E+000	9.99387E-002	0.00000E+000	9	...........	1426.13
	19	-0.3	9.99886E-002	-7.20249E-005	0.00000E+000	9.99387E-002	0.00000E+000	9	...........	1426.13
	20	-0.29	9.99876E-002	-7.28285E-005	0.00000E+000	9.99387E-002	0.00000E+000	9	...........	1426.13
	21	-0.28	9.99858E-002	-7.18133E-005	0.00000E+000	9.99387E-002	0.00000E+000	9	...........	1426.13
	22	-0.27	9.99880E-002	-7.26125E-005	0.00000E+000	9.99387E-002	0.00000E+000	9	...........	1426.13
	23	-0.26	9.99892E-002	-7.16159E-005	0.00000E+000	9.99387E-002	0.00000E+000	9	...........	1426.13
	24	-0.25	9.99892E-002	-7.23939E-005	0.00000E+000	9.99387E-002	0.00000E+000	9	...........	1426.13
	25	-0.24	9.99863E-002	-7.13996E-005	0.00000E+000	9.99387E-002	0.00000E+000	9	...........	1426.13
	26	-0.23	9.99906E-002	-7.21904E-005	0.00000E+000	9.99387E-002	0.00000E+000	9	...........	1426.13
	27	-0.22	9.99870E-002	-7.11629E-005	0.00000E+000	9.99387E-002	0.00000E+000	9	...........	1426.13
	28	-0.21	9.99891E-002	-7.19782E-005	0.00000E+000	9.99387E-002	0.00000E+000	9	...........	1426.13
	29	-0.2	9.99851E-002	-7.09544E-005	0.00000E+000	9.99387E-002	0.00000E+000	9	...........	1426.13
	30	-0.19	9.99876E-002	-7.17758E-005	0.00000E+000	9.99387E-002	0.00000E+000	9	...........	1426.13
	31	-0.18	9.99900E-002	-7.07355E-005	0.00000E+000	9.99387E-002	0.00000E+000	9	...........	1426.13
	32	-0.17	9.99878E-002	-7.15725E-005	0.00000E+000	9.99387E-002	0.00000E+000	9	...........	1426.13
	33	-0.16	9.99877E-002	-7.05217E-005	0.00000E+000	9.99387E-002	0.00000E+000	9	...........	1426.13
	34	-0.15	9.99840E-002	-7.13690E-005	0.00000E+000	9.99387E-002	0.00000E+000	9	...........	1426.13
	35	-0.14	9.99891E-002	-7.03081E-005	0.00000E+000	9.99387E-002	0.00000E+000	9	...........	1426.13
	36	-0.13	9.99886E-002	-7.11510E-005	0.00000E+000	9.99387E-002	0.00000E+000	9	...........	1426.13
	37	-0.12	9.99877E-002	-7.01079E-005	0.00000E+000	9.99387E-002	0.00000E+000	9	...........	1426.13
	38	-0.11	9.99905E-002	-7.09469E-005	0.00000E+000	9.99387E-002	0.00000E+000	9	...........	1426.13
	39	-0.1	9.99872E-002	-6.99180E-005	0.00000E+000	9.99387E-002	0.00000E+000	9	...........	1426.13
	40	-0.09	9.99878E-002	-7.07642E-005	0.00000E+000	9.99387E-002	0.00000E+000	9	...........	1426.13
	41	-0.08	9.99864E-002	-6.97159E-005	0.00000E+000	9.99387E-002	0.00000E+000	9	...........	1426.13
	42	-0.07	9.99884E-002	-7.05723E-005	0.00000E+000	9.99387E-002	0.00000E+000	9	...........	1426.13
	43	-0.06	9.99842E-002	-6.95012E-005	0.00000E+000	9.99387E-002	0.00000E+000	9	...........	1426.13
	44	-0.05	9.99892E-002	-7.03699E-005	0.00000E+000	9.99387E-002	0.00000E+000	9	...........	1426.13
	45	-0.04	9.99857E-002	-6.93188E-005	0.00000E+000	9.99387E-002	0.00000E+000	9	...........	1426.13
	46	-0.03	9.99869E-002	-7.01966E-005	0.00000E+000	9.99387E-002	0.00000E+000	9	...........	1426.13
	47	-0.02	9.99855E-002	-6.91039E-005	0.00000E+000	9.99387E-002	0.00000E+000	9	...........	1426.13
	48	-0.01	9.99894E-002	-6.99870E-005	0.00000E+000	9.99387E-002	0.00000E+000	9	...........	1426.13
	49	0	9.99907E-002	-6.89039E-005	0.00000E+000	9.99387E-002	0.00000E+000	9	...........	1426.13
	50	0.01	-2.84134E-005	-6.04617E-004	0.00000E+000	-6.08154E-005	0.00000E+000	9	...........	1426.13
	51	0.02	-2.55777E-005	-5.54848E-004	0.00000E+000	-6.08154E-005	0.00000E+000	9	...........	1426.13
	52	0.03	-2.81559E-005	-5.20039E-004	0.00000E+000	-6.08154E-005	0.00000E+000	9	...........	1426.13
	53	0.04	-2.78639E-005	-4.89372E-004	0.00000E+000	-6.08154E-005	0.00000E+000	9	...........	1426.13
	54	0.05	-2.71463E-005	-4.64830E-004	0.00000E+000	-6.08154E-005	0.00000E+000	9	...........	1426.13
	55	0.06	-2.82226E-005	-4.41381E-004	0.00000E+000	-6.08154E-005	0.00000E+000	9	...........	1426.13
	56	0.07	-2.71547E-005	-4.22445E-004	0.00000E+000	-6.08154E-005	0.00000E+000	9	...........	1426.13
	57	0.08	-2.81476E-005	-4.03575E-004	0.00000E+000	-6.08154E-005	0.00000E+000	9	...........	1426.13
	58	0.09	-2.46015E-005	-3.88471E-004	0.00000E+000	-6.08154E-005	0.00000E+000	9	...........	1426.13
	59	0.1	-2.70796E-005	-3.72855E-004	0.00000E+000	-6.08154E-005	0.00000E+000	9	...........	1426.13
	60	0.11	-2.76469E-005	-3.60636E-004	0.00000E+000	-6.08154E-005	0.00000E+000	9	...........	1426.13
	61	0.12	-2.62369E-005	-3.47488E-004	0.00000E+000	-6.08154E-005	0.00000E+000	9	...........	1426.13
	62	0.13	-2.59782E-005	-3.37432E-004	0.00000E+000	-6.08154E-005	0.00000E+000	9	...........	1426.13
	63	0.14	-2.75885E-005	-3.26229E-004	0.00000E+000	-6.08154E-005	0.00000E+000	9	...........	1426.13
	64	0.15	-2.83228E-005	-3.17921E-004	0.00000E+000	-6.08154E-005	0.00000E+000	9	...........	1426.13
	65	0.16	-2.79640E-005	-3.08230E-004	0.00000E+000	-6.08154E-005	0.00000E+000	9	...........	1426.13
	66	0.17	-2.47517E-005	-3.01303E-004	0.00000E+000	-6.08154E-005	0.00000E+000	9	...........	1426.13
	67	0.18	-2.67458E-005	-2.92849E-004	0.00000E+000	-6.08154E-005	0.00000E+000	9	...........	1426.13
	68	0.19	-2.54275E-005	-2.87028E-004	0.00000E+000	-6.08154E-005	0.00000E+000	9	...........	1426.13
	69	0.2	-2.72965E-005	-2.79565E-004	0.00000E+000	-6.08154E-005	0.00000E+000	9	...........	1426.13
	70	0.21	-2.63120E-005	-2.74665E-004	0.00000E+000	-6.08154E-005	0.00000E+000	9	...........	1426.13
	71	0.22	-2.63453E-005	-2.68012E-004	0.00000E+000	-6.08154E-005	0.00000E+000	9	...........	1426.13
	72	0.23	-2.85731E-005	-2.63861E-004	0.00000E+000	-6.08154E-005	0.00000E+000	9	...........	1426.13
	73	0.24	-2.82226E-005	-2.57894E-004	0.00000E+000	-6.08154E-005	0.00000E+000	9	...........	1426.13
	74	0.25	-2.49603E-005	-2.54364E-004	0.00000E+000	-6.08154E-005	0.00000E+000	9	...........	1426.13
	75	0.26	-2.56612E-005	-2.48953E-004	0.00000E+000	-6.08154E-005	0.00000E+000	9	...........	1426.13
	76	0.27	-2.81309E-005	-2.45947E-004	0.00000E+000	-6.08154E-005	0.00000E+000	9	...........	1426.13
	77	0.28	-2.35002E-005	-2.40974E-004	0.00000E+000	-6.08154E-005	0.00000E+000	9	...........	1426.13
	78	0.29	-2.64204E-005	-2.38417E-004	0.00000E+000	-6.08154E-005	0.00000E+000	9	...........	1426.13
	79	0.3	-2.61618E-005	-2.33851E-004	0.00000E+000	-6.08154E-005	0.00000E+000	9	...........	1426.13
	80	0.31	-2.26241E-005	-2.31645E-004	0.00000E+000	-6.08154E-005	0.00000E+000	9	...........	1426.13
	81	0.32	-2.86398E-005	-2.27438E-004	0.00000E+000	-6.08154E-005	0.00000E+000	9	...........	1426.13
	82	0.33	-2.60533E-005	-2.25544E-004	0.00000E+000	-6.08154E-005	0.00000E+000	9	...........	1426.13
	83	0.34	-2.56111E-005	-2.21617E-004	0.00000E+000	-6.08154E-005	0.00000E+000	9	...........	1426.13
	84	0.35	-2.55694E-005	-2.20007E-004	0.00000E+000	-6.08154E-005	0.00000E+000	9	...........	1426.13
	85	0.36	-2.53191E-005	-2.16293E-004	0.00000E+000	-6.08154E-005	0.00000E+000	9	...........	1426.13
	86	0.37	-2.51272E-005	-2.14925E-004	0.00000E+000	-6.08154E-005	0.00000E+000	9	...........	1426.13
	87	0.38	-2.77721E-005	-2.11433E-004	0.00000E+000	-6.08154E-005	0.00000E+000	9	...........	1426.13
	88	0.39	-2.62702E-005	-2.10246E-004	0.00000E+000	-6.08154E-005	0.00000E+000	9	...........	1426.13
	89	0.4	-2.82644E-005	-2.06944E-004	0.00000E+000	-6.08154E-005	0.00000E+000	9	...........	1426.13
	90	0.41	-2.36754E-005	-2.05928E-004	0.00000E+000	-6.08154E-005	0.00000E+000	9	...........	1426.13
	91	0.42	-2.57112E-005	-2.02771E-004	0.00000E+000	-6.08154E-005	0.00000E+000	9	...........	1426.13
	92	0.43	-2.78639E-005	-2.01944E-004	0.00000E+000	-6.08154E-005	0.00000E+000	9	...........	1426.13
	93	0.44	-2.88901E-005	-1.98911E-004	0.00000E+000	-6.08154E-005	0.00000E+000	9	...........	1426.13
	94	0.45	-2.76136E-005	-1.98212E-004	0.00000E+000	-6.08154E-005	0.00000E+000	9	...........	1426.13
	95	0.46	-2.86732E-005	-1.95307E-004	0.00000E+000	-6.08154E-005	0.00000E+000	9	...........	1426.13
	96	0.47	-2.79974E-005	-1.94746E-004	0.00000E+000	-6.08154E-005	0.00000E+000	9	...........	1426.13
	97	0.48	-2.68960E-005	-1.91939E-004	0.00000E+000	-6.08154E-005	0.00000E+000	9	...........	1426.13
	98	0.49	-2.51939E-005	-1.91454E-004	0.00000E+000	-6.08154E-005	0.00000E+000	9	...........	1426.13
	99	0.5	-2.80224E-005	-1.88754E-004	0.00000E+000	-6.08154E-005	0.00000E+000	9	...........	1426.13
	100	0.51	-2.36670E-005	-1.88381E-004	0.00000E+000	-6.08154E-005	0.00000E+000	9	...........	1426.13
	101	0.52	-2.89152E-005	-1.85765E-004	0.00000E+000	-6.08154E-005	0.00000E+000	9	...........	1426.13
	102	0.53	-2.73048E-005	-1.85468E-004	0.00000E+000	-6.08154E-005	0.00000E+000	9	...........	1426.13
	103	0.54	-2.73299E-005	-1.82915E-004	0.00000E+000	-6.08154E-005	0.00000E+000	9	...........	1426.13
	104	0.55	-2.58280E-005	-1.82714E-004	0.00000E+000	-6.08154E-005	0.00000E+000	9	...........	1426.13
	105	0.56	-2.73549E-005	-1.80237E-004	0.00000E+000	-6.08154E-005	0.00000E+000	9	...........	1426.13
	106	0.57	-2.49520E-005	-1.80112E-004	0.00000E+000	-6.08154E-005	0.00000E+000	9	...........	1426.13
	107	0.58	-2.74384E-005	-1.77670E-004	0.00000E+000	-6.08154E-005	0.00000E+000	9	...........	1426.13
	108	0.59	-2.57196E-005	-1.77607E-004	0.00000E+000	-6.08154E-005	0.00000E+000	9	...........	1426.13
	109	0.6	-2.81809E-005	-1.75244E-004	0.00000E+000	-6.08154E-005	0.00000E+000	9	...........	1426.13
	110	0.61	-2.79640E-005	-1.75243E-004	0.00000E+000	-6.08154E-005	0.00000E+000	9	...........	1426.13
	111	0.71	-2.70712E-005	-1.64800E-004	0.00000E+000	-6.08154E-005	0.00000E+000	9	...........	1426.13
	112	0.81	-2.63871E-005	-1.56136E-004	0.00000E+000	-6.08154E-005	0.00000E+000	9	...........	1426.13
	113	0.91	-2.51439E-005	-1.48729E-004	0.00000E+000	-6.08154E-005	0.00000E+000	9	...........	1426.13
	114	1.01	-2.57696E-005	-1.42260E-004	0.00000E+000	-6.08154E-005	0.00000E+000	9	...........	1425.78
	115	1.11	-2.53691E-005	-1.36494E-004	0.00000E+000	-6.08154E-005	0.00000E+000	9	...........	1425.78
	116	1.21	-2.86482E-005	-1.31342E-004	0.00000E+000	-6.08154E-005	0.00000E+000	9	...........	1425.78
	117	1.31	-2.92322E-005	-1.26636E-004	0.00000E+000	-6.08154E-005	0.00000E+000	9	...........	1425.78
	118	1.41	-2.50604E-005	-1.22304E-004	0.00000E+000	-6.08154E-005	0.00000E+000	9	...........	1425.78
	119	1.51	-2.69711E-005	-1.18335E-004	0.00000E+000	-6.08154E-005	0.00000E+000	9	...........	1425.78
	120	1.61	-2.65456E-005	-1.14629E-004	0.00000E+000	-6.08154E-005	0.00000E+000	9	...........	1425.78
	121	2.61	-2.68209E-005	-8.73430E-005	0.00000E+000	-6.08154E-005	0.00000E+000	9	...........	1426.40
	122	3.61	-2.93157E-005	-6.92209E-005	0.00000E+000	-6.08154E-005	0.00000E+000	9	...........	1426.49
	123	4.61	-2.64538E-005	-5.56049E-005	0.00000E+000	-6.08154E-005	0.00000E+000	9	...........	1426.49
	124	5.61	-3.19522E-005	-4.54088E-005	0.00000E+000	-6.08154E-005	0.00000E+000	9	...........	1426.49
	125	6.61	-3.07841E-005	-3.82501E-005	0.00000E+000	-6.08154E-005	0.00000E+000	9	...........	1426.49
	126	7.61	-2.86482E-005	-3.33322E-005	0.00000E+000	-6.08154E-005	0.00000E+000	9	...........	1426.49
	127	8.61	-3.06840E-005	-2.98119E-005	0.00000E+000	-6.08154E-005	0.00000E+000	9	...........	1426.49
	128	9.61	-3.16018E-005	-2.68806E-005	0.00000E+000	-6.08154E-005	0.00000E+000	9	...........	1426.49
	129	10.61	-3.07758E-005	-2.43196E-005	0.00000E+000	-6.08154E-005	0.00000E+000	9	...........	1426.49
	130	11.61	-2.81309E-005	-2.22700E-005	0.00000E+000	-6.08154E-005	0.00000E+000	9	...........	1426.49
	131	21.61	-2.64204E-005	-1.64370E-005	0.00000E+000	-6.08154E-005	0.00000E+000	9	...........	1426.49
	132	31.61	-3.24862E-005	-1.07092E-005	0.00000E+000	-6.08154E-005	0.00000E+000	9	...........	1426.49
	133	41.61	-2.84896E-005	-1.11193E-005	0.00000E+000	-6.08154E-005	0.00000E+000	9	...........	1426.40
	134	51.61	-2.95660E-005	-7.71439E-006	0.00000E+000	-6.08154E-005	0.00000E+000	9	...........	1426.49
	135	60	-3.39380E-005	-7.68965E-006	0.00000E+000	-6.08154E-005	0.00000E+000	9	...........	1426.49
	136	60.01	3.27136E-002	5.10454E-004	0.00000E+000	9.99387E-002	0.00000E+000	9	.........v.	1426.49
	137	60.02	9.88258E-002	4.41136E-004	0.00000E+000	9.99387E-002	0.00000E+000	9	...........	1426.49
	138	60.03	9.97765E-002	3.89857E-004	0.00000E+000	9.99387E-002	0.00000E+000	9	...........	1426.49
	139	60.04	9.99384E-002	3.50629E-004	0.00000E+000	9.99387E-002	0.00000E+000	9	...........	1426.49
	140	60.05	9.99663E-002	3.15385E-004	0.00000E+000	9.99387E-002	0.00000E+000	9	...........	1426.49
	141	60.06	9.99737E-002	2.87209E-004	0.00000E+000	9.99387E-002	0.00000E+000	9	...........	1426.49
	142	60.07	9.99788E-002	2.60394E-004	0.00000E+000	9.99387E-002	0.00000E+000	9	...........	1426.49
	143	60.08	9.99802E-002	2.38980E-004	0.00000E+000	9.99387E-002	0.00000E+000	9	...........	1426.49
	144	60.09	9.99805E-002	2.17710E-004	0.00000E+000	9.99387E-002	0.00000E+000	9	...........	1426.49
	145	60.1	9.99824E-002	2.01029E-004	0.00000E+000	9.99387E-002	0.00000E+000	9	...........	1426.49
	146	60.11	9.99823E-002	1.83780E-004	0.00000E+000	9.99387E-002	0.00000E+000	9	...........	1426.49
	147	60.12	9.99832E-002	1.70572E-004	0.00000E+000	9.99387E-002	0.00000E+000	9	...........	1426.49
	148	60.13	9.99859E-002	1.56378E-004	0.00000E+000	9.99387E-002	0.00000E+000	9	...........	1426.49
	149	60.14	9.99820E-002	1.45826E-004	0.00000E+000	9.99387E-002	0.00000E+000	9	...........	1426.49
	150	60.15	9.99859E-002	1.33983E-004	0.00000E+000	9.99387E-002	0.00000E+000	9	...........	1426.49
	151	60.16	9.99885E-002	1.25566E-004	0.00000E+000	9.99387E-002	0.00000E+000	9	...........	1426.49
	152	60.17	9.99901E-002	1.15558E-004	0.00000E+000	9.99387E-002	0.00000E+000	9	...........	1426.49
	153	60.18	9.99855E-002	1.08790E-004	0.00000E+000	9.99387E-002	0.00000E+000	9	...........	1426.49
	154	60.19	9.99895E-002	1.00256E-004	0.00000E+000	9.99387E-002	0.00000E+000	9	...........	1426.49
	155	60.2	9.99828E-002	9.48339E-005	0.00000E+000	9.99387E-002	0.00000E+000	9	...........	1426.49
	156	60.21	9.99867E-002	8.74874E-005	0.00000E+000	9.99387E-002	0.00000E+000	9	...........	1426.49
	157	60.22	9.99839E-002	8.31710E-005	0.00000E+000	9.99387E-002	0.00000E+000	9	...........	1426.49
	158	60.23	9.99807E-002	7.67806E-005	0.00000E+000	9.99387E-002	0.00000E+000	9	...........	1426.49
	159	60.24	9.99844E-002	7.33643E-005	0.00000E+000	9.99387E-002	0.00000E+000	9	...........	1426.49
	160	60.25	9.99856E-002	6.77546E-005	0.00000E+000	9.99387E-002	0.00000E+000	9	...........	1426.49
	161	60.26	9.99848E-002	6.50832E-005	0.00000E+000	9.99387E-002	0.00000E+000	9	...........	1426.49
	162	60.27	9.99890E-002	6.00900E-005	0.00000E+000	9.99387E-002	0.00000E+000	9	...........	1426.49
	163	60.28	9.99857E-002	5.80501E-005	0.00000E+000	9.99387E-002	0.00000E+000	9	...........	1426.49
	164	60.29	9.99853E-002	5.35908E-005	0.00000E+000	9.99387E-002	0.00000E+000	9	...........	1426.49
	165	60.3	9.99832E-002	5.20537E-005	0.00000E+000	9.99387E-002	0.00000E+000	9	...........	1426.49
	166	60.31	9.99864E-002	4.80123E-005	0.00000E+000	9.99387E-002	0.00000E+000	9	...........	1426.49
	167	60.32	9.99822E-002	4.69000E-005	0.00000E+000	9.99387E-002	0.00000E+000	9	...........	1426.49
	168	60.33	9.99857E-002	4.32246E-005	0.00000E+000	9.99387E-002	0.00000E+000	9	...........	1426.49
	169	60.34	9.99815E-002	4.24799E-005	0.00000E+000	9.99387E-002	0.00000E+000	9	...........	1426.49
	170	60.35	9.99882E-002	3.91031E-005	0.00000E+000	9.99387E-002	0.00000E+000	9	...........	1426.49
	171	60.36	9.99837E-002	3.86829E-005	0.00000E+000	9.99387E-002	0.00000E+000	9	...........	1426.49
	172	60.37	9.99862E-002	3.55241E-005	0.00000E+000	9.99387E-002	0.00000E+000	9	...........	1426.49
	173	60.38	9.99846E-002	3.53642E-005	0.00000E+000	9.99387E-002	0.00000E+000	9	...........	1426.49
	174	60.39	9.99859E-002	3.24003E-005	0.00000E+000	9.99387E-002	0.00000E+000	9	...........	1426.49
	175	60.4	9.99869E-002	3.24665E-005	0.00000E+000	9.99387E-002	0.00000E+000	9	...........	1426.49
	176	60.41	9.99885E-002	2.96903E-005	0.00000E+000	9.99387E-002	0.00000E+000	9	...........	1426.49
	177	60.42	9.99882E-002	2.99603E-005	0.00000E+000	9.99387E-002	0.00000E+000	9	...........	1426.49
	178	60.43	9.99853E-002	2.72775E-005	0.00000E+000	9.99387E-002	0.00000E+000	9	...........	1426.49
	179	60.44	9.99831E-002	2.77300E-005	0.00000E+000	9.99387E-002	0.00000E+000	9	...........	1426.49
	180	60.45	9.99891E-002	2.52035E-005	0.00000E+000	9.99387E-002	0.00000E+000	9	...........	1426.49
	181	60.46	9.99819E-002	2.57791E-005	0.00000E+000	9.99387E-002	0.00000E+000	9	...........	1426.49
	182	60.47	9.99858E-002	2.33354E-005	0.00000E+000	9.99387E-002	0.00000E+000	9	...........	1426.49
	183	60.48	9.99850E-002	2.40639E-005	0.00000E+000	9.99387E-002	0.00000E+000	9	...........	1426.49
	184	60.49	9.99864E-002	2.16809E-005	0.00000E+000	9.99387E-002	0.00000E+000	9	...........	1426.49
	185	60.5	9.99810E-002	2.25385E-005	0.00000E+000	9.99387E-002	0.00000E+000	9	...........	1426.49
	186	60.51	9.99824E-002	2.01975E-005	0.00000E+000	9.99387E-002	0.00000E+000	9	...........	1426.49
	187	60.52	9.99852E-002	2.11801E-005	0.00000E+000	9.99387E-002	0.00000E+000	9	...........	1426.49
	188	60.53	9.99893E-002	1.89161E-005	0.00000E+000	9.99387E-002	0.00000E+000	9	...........	1426.49
	189	60.54	9.99836E-002	1.99697E-005	0.00000E+000	9.99387E-002	0.00000E+000	9	...........	1426.49
	190	60.55	9.99849E-002	1.77252E-005	0.00000E+000	9.99387E-002	0.00000E+000	9	...........	1426.49
	191	60.56	9.99823E-002	1.88669E-005	0.00000E+000	9.99387E-002	0.00000E+000	9	...........	1426.49
	192	60.57	9.99875E-002	1.66847E-005	0.00000E+000	9.99387E-002	0.00000E+000	9	...........	1426.49
	193	60.58	9.99838E-002	1.78867E-005	0.00000E+000	9.99387E-002	0.00000E+000	9	...........	1426.49
	194	60.59	9.99887E-002	1.56939E-005	0.00000E+000	9.99387E-002	0.00000E+000	9	...........	1426.49
	195	60.6	9.99834E-002	1.69736E-005	0.00000E+000	9.99387E-002	0.00000E+000	9	...........	1426.49
	196	60.61	9.99853E-002	1.48072E-005	0.00000E+000	9.99387E-002	0.00000E+000	9	...........	1426.49
	197	60.71	9.99850E-002	1.14215E-005	0.00000E+000	9.99387E-002	0.00000E+000	9	...........	1426.49
	198	60.81	9.99824E-002	9.13104E-006	0.00000E+000	9.99387E-002	0.00000E+000	9	...........	1426.49
	199	60.91	9.99862E-002	7.47461E-006	0.00000E+000	9.99387E-002	0.00000E+000	9	...........	1426.49
	200	61	9.99832E-002	8.55100E-006	0.00000E+000	9.99387E-002	0.00000E+000	9	...........	1426.40
