EXPLAIN
TAG	CHRONOA
TITLE	LABEL	Chronoamperometry Scan	Test Identifier
DATE	LABEL	17/12/2021	Date
TIME	LABEL	11:36:10	Time
NOTES	NOTES	1	Notes...
	
PSTAT	PSTAT	IFC1010-21051	Potentiostat
VPRESTEP	POTEN	-7.00000E-001	F	Pre-step Voltage (V)
TPRESTEP	QUANT	5.00000E-001	Pre-step Delay Time (s)
VSTEP1	POTEN	-8.00000E-001	F	Step 1 Voltage (V)
TSTEP1	QUANT	3.00000E+002	Step 1 Time (s)
VSTEP2	POTEN	-7.00000E-001	F	Step 2 Voltage (V)
TSTEP2	QUANT	1.00000E+000	Step 2 Time (s)
SAMPLETIME	QUANT	1.00000E-001	Sample Period (s)
DECIMATE	TOGGLE	T	Decimate
ILIMIT	QUANT	1.00000E+000	Limit I (mA/cm^2)
IMODE	SELECTOR	1	I/E Range Mode
IRANGE	QUANT	3.00000E-001	Max Current (mA)
EQDELAY	QUANT	5.00000E+000	Equil. Time (s)
SAMPLINGMODE	SELECTOR	1	Sampling Mode
AREA	QUANT	1.00000E+000	Sample Area (cm^2)
IRCOMP	SELECTOR	0	IRComp
PFCOR	QUANT	5.00000E+001	PF Corr. (ohm)
SEQUENCER	TOGGLE	TRUE	Run as Sequence
PSTATMODEL	IQUANT	64	Pstat Model
PSTATSECTION	LABEL	IFC1010-21051	Pstat Section
PSTATSERIALNO	LABEL	21051	Pstat Serial Number
CTRLMODE	IQUANT	1	Control Mode
ELECTROMETER	IQUANT	0	RE=0 or CS=1
IESTAB	IQUANT	0	I/E Stability
CASPEED	IQUANT	4	Control Amp Speed
CONVENTION	IQUANT	1	Current Convention
ICHRANGE	IQUANT	2	Ich Range
ICHRANGEMODE	TOGGLE	T	Ich Auto Range
ICHOFFSETENABLE	TOGGLE	F	Ich Offset Enable
ICHOFFSET	QUANT	0	Ich Offset (V)
ICHFILTER	IQUANT	3	Ich Filter
VCHRANGE	IQUANT	3	Vch Range
VCHRANGEMODE	TOGGLE	T	Vch Auto Range
VCHOFFSETENABLE	TOGGLE	F	Vch Offset Enable
VCHOFFSET	QUANT	0	Vch Offset (V)
VCHFILTER	IQUANT	3	Vch Filter
IERANGELOWERLIMIT	IQUANT	4	I/E Range Lower Limit
IERANGEMODE	TOGGLE	F	I/E AutoRange
IERANGE	IQUANT	9	I/E Range
ACHSELECT	IQUANT	0	Ach Select
ACHRANGE	IQUANT	2	Ach Range
ACHOFFSETENABLE	TOGGLE	F	Ach Offset Enable
ACHOFFSET	QUANT	0	Ach Offset (V)
ACHFILTER	IQUANT	1	Ach Filter
SENSECABLEID	IQUANT	14	Sense Cable ID
PWRCABLEID	IQUANT	14	Power Cable ID
DCCALDATE	LABEL	10/1/2020	DC Calibration Date
ACCALDATE	LABEL	4/2/2018	AC Calibration Date
FRAMEWORKVERSION	QUANT	7.06	Framework Version
INSTRUMENTVERSION	LABEL	4.30	Instrument Version
CURVE	TABLE	98
	Pt	T	Vf	Im	Vu	Sig	Ach	IERange	Over	Temp
	#	s	V vs. Ref.	A	V	V	V	#	bits	deg C
	0	-0.4	-7.01153E-001	-9.27114E-005	0.00000E+000	-7.00083E-001	0.00000E+000	9	...........	1425.95
	1	-0.3	-7.01085E-001	-9.25368E-005	0.00000E+000	-7.00083E-001	0.00000E+000	9	...........	1425.95
	2	-0.2	-7.01086E-001	-9.23592E-005	0.00000E+000	-7.00083E-001	0.00000E+000	9	...........	1425.95
	3	-0.1	-7.01099E-001	-9.22292E-005	0.00000E+000	-7.00083E-001	0.00000E+000	9	...........	1425.95
	4	0	-7.01091E-001	-9.20759E-005	0.00000E+000	-7.00083E-001	0.00000E+000	9	...........	1425.95
	5	0.1	-8.01120E-001	-5.17481E-004	0.00000E+000	-8.00083E-001	0.00000E+000	9	...........	1425.95
	6	0.2	-8.01119E-001	-4.23707E-004	0.00000E+000	-8.00083E-001	0.00000E+000	9	...........	1425.95
	7	0.3	-8.01131E-001	-3.67606E-004	0.00000E+000	-8.00083E-001	0.00000E+000	9	...........	1425.95
	8	0.4	-8.01113E-001	-3.28254E-004	0.00000E+000	-8.00083E-001	0.00000E+000	9	...........	1425.95
	9	0.5	-8.01113E-001	-2.98359E-004	0.00000E+000	-8.00083E-001	0.00000E+000	9	...........	1425.95
	10	0.6	-8.01113E-001	-2.74613E-004	0.00000E+000	-8.00083E-001	0.00000E+000	9	...........	1425.95
	11	0.7	-8.01124E-001	-2.55226E-004	0.00000E+000	-8.00083E-001	0.00000E+000	9	...........	1425.51
	12	0.8	-8.01124E-001	-2.38966E-004	0.00000E+000	-8.00083E-001	0.00000E+000	9	...........	1425.51
	13	0.9	-8.01117E-001	-2.25240E-004	0.00000E+000	-8.00083E-001	0.00000E+000	9	...........	1425.51
	14	1	-8.01120E-001	-2.13566E-004	0.00000E+000	-8.00083E-001	0.00000E+000	9	...........	1425.51
	15	1.1	-8.01119E-001	-2.03501E-004	0.00000E+000	-8.00083E-001	0.00000E+000	9	...........	1425.51
	16	1.2	-8.01121E-001	-1.94821E-004	0.00000E+000	-8.00083E-001	0.00000E+000	9	...........	1425.51
	17	1.3	-8.01114E-001	-1.87216E-004	0.00000E+000	-8.00083E-001	0.00000E+000	9	...........	1425.51
	18	1.4	-8.01121E-001	-1.80688E-004	0.00000E+000	-8.00083E-001	0.00000E+000	9	...........	1425.51
	19	1.5	-8.01116E-001	-1.74966E-004	0.00000E+000	-8.00083E-001	0.00000E+000	9	...........	1425.51
	20	1.6	-8.01116E-001	-1.69845E-004	0.00000E+000	-8.00083E-001	0.00000E+000	9	...........	1425.51
	21	1.7	-8.01116E-001	-1.65323E-004	0.00000E+000	-8.00083E-001	0.00000E+000	9	...........	1425.51
	22	1.8	-8.01119E-001	-1.61329E-004	0.00000E+000	-8.00083E-001	0.00000E+000	9	...........	1425.51
	23	1.9	-8.01114E-001	-1.57715E-004	0.00000E+000	-8.00083E-001	0.00000E+000	9	...........	1425.51
	24	2	-8.01120E-001	-1.54514E-004	0.00000E+000	-8.00083E-001	0.00000E+000	9	...........	1425.51
	25	2.1	-8.01119E-001	-1.51572E-004	0.00000E+000	-8.00083E-001	0.00000E+000	9	...........	1425.51
	26	2.2	-8.01123E-001	-1.48917E-004	0.00000E+000	-8.00083E-001	0.00000E+000	9	...........	1425.51
	27	2.3	-8.01110E-001	-1.46397E-004	0.00000E+000	-8.00083E-001	0.00000E+000	9	...........	1425.51
	28	2.4	-8.01120E-001	-1.44290E-004	0.00000E+000	-8.00083E-001	0.00000E+000	9	...........	1425.51
	29	2.5	-8.01109E-001	-1.42233E-004	0.00000E+000	-8.00083E-001	0.00000E+000	9	...........	1425.51
	30	2.6	-8.01118E-001	-1.40402E-004	0.00000E+000	-8.00083E-001	0.00000E+000	9	...........	1425.51
	31	2.7	-8.01113E-001	-1.38704E-004	0.00000E+000	-8.00083E-001	0.00000E+000	9	...........	1425.51
	32	2.8	-8.01107E-001	-1.37145E-004	0.00000E+000	-8.00083E-001	0.00000E+000	9	...........	1425.51
	33	2.9	-8.01114E-001	-1.35624E-004	0.00000E+000	-8.00083E-001	0.00000E+000	9	...........	1425.51
	34	3	-8.01103E-001	-1.34221E-004	0.00000E+000	-8.00083E-001	0.00000E+000	9	...........	1425.51
	35	3.1	-8.01120E-001	-1.33009E-004	0.00000E+000	-8.00083E-001	0.00000E+000	9	...........	1425.51
	36	3.2	-8.01124E-001	-1.31892E-004	0.00000E+000	-8.00083E-001	0.00000E+000	9	...........	1425.51
	37	3.3	-8.01118E-001	-1.30769E-004	0.00000E+000	-8.00083E-001	0.00000E+000	9	...........	1425.51
	38	3.4	-8.01100E-001	-1.29687E-004	0.00000E+000	-8.00083E-001	0.00000E+000	9	...........	1425.51
	39	3.5	-8.01111E-001	-1.28678E-004	0.00000E+000	-8.00083E-001	0.00000E+000	9	...........	1425.51
	40	3.6	-8.01131E-001	-1.27868E-004	0.00000E+000	-8.00083E-001	0.00000E+000	9	...........	1425.51
	41	3.7	-8.01118E-001	-1.27017E-004	0.00000E+000	-8.00083E-001	0.00000E+000	9	...........	1425.51
	42	3.8	-8.01113E-001	-1.26241E-004	0.00000E+000	-8.00083E-001	0.00000E+000	9	...........	1425.51
	43	3.9	-8.01110E-001	-1.25452E-004	0.00000E+000	-8.00083E-001	0.00000E+000	9	...........	1425.51
	44	4	-8.01124E-001	-1.24751E-004	0.00000E+000	-8.00083E-001	0.00000E+000	9	...........	1425.51
	45	4.1	-8.01108E-001	-1.23957E-004	0.00000E+000	-8.00083E-001	0.00000E+000	9	...........	1425.51
	46	4.2	-8.01116E-001	-1.23439E-004	0.00000E+000	-8.00083E-001	0.00000E+000	9	...........	1425.51
	47	4.3	-8.01115E-001	-1.22813E-004	0.00000E+000	-8.00083E-001	0.00000E+000	9	...........	1425.51
	48	4.4	-8.01117E-001	-1.22237E-004	0.00000E+000	-8.00083E-001	0.00000E+000	9	...........	1425.51
	49	4.5	-8.01118E-001	-1.21699E-004	0.00000E+000	-8.00083E-001	0.00000E+000	9	...........	1425.51
	50	4.6	-8.01120E-001	-1.21096E-004	0.00000E+000	-8.00083E-001	0.00000E+000	9	...........	1425.51
	51	4.7	-8.01117E-001	-1.20643E-004	0.00000E+000	-8.00083E-001	0.00000E+000	9	...........	1425.87
	52	4.8	-8.01123E-001	-1.20140E-004	0.00000E+000	-8.00083E-001	0.00000E+000	9	...........	1425.87
	53	4.9	-8.01112E-001	-1.19684E-004	0.00000E+000	-8.00083E-001	0.00000E+000	9	...........	1425.87
	54	5	-8.01140E-001	-1.19312E-004	0.00000E+000	-8.00083E-001	0.00000E+000	9	...........	1425.87
	55	5.1	-8.01118E-001	-1.18908E-004	0.00000E+000	-8.00083E-001	0.00000E+000	9	...........	1425.87
	56	5.2	-8.01117E-001	-1.18430E-004	0.00000E+000	-8.00083E-001	0.00000E+000	9	...........	1425.87
	57	5.3	-8.01125E-001	-1.18097E-004	0.00000E+000	-8.00083E-001	0.00000E+000	9	...........	1425.87
	58	5.4	-8.01130E-001	-1.17813E-004	0.00000E+000	-8.00083E-001	0.00000E+000	9	...........	1425.87
	59	5.5	-8.01101E-001	-1.17336E-004	0.00000E+000	-8.00083E-001	0.00000E+000	9	...........	1425.87
	60	5.6	-8.01112E-001	-1.17126E-004	0.00000E+000	-8.00083E-001	0.00000E+000	9	...........	1425.87
	61	5.7	-8.01110E-001	-1.16819E-004	0.00000E+000	-8.00083E-001	0.00000E+000	9	...........	1425.95
	62	5.8	-8.01117E-001	-1.16395E-004	0.00000E+000	-8.00083E-001	0.00000E+000	9	...........	1425.95
	63	5.9	-8.01113E-001	-1.16147E-004	0.00000E+000	-8.00083E-001	0.00000E+000	9	...........	1425.95
	64	6	-8.01122E-001	-1.15918E-004	0.00000E+000	-8.00083E-001	0.00000E+000	9	...........	1425.95
	65	6.1	-8.01118E-001	-1.15623E-004	0.00000E+000	-8.00083E-001	0.00000E+000	9	...........	1425.95
	66	7.1	-8.01121E-001	-1.13396E-004	0.00000E+000	-8.00083E-001	0.00000E+000	9	...........	1425.51
	67	8.1	-8.01123E-001	-1.11778E-004	0.00000E+000	-8.00083E-001	0.00000E+000	9	...........	1425.95
	68	9.1	-8.01113E-001	-1.10533E-004	0.00000E+000	-8.00083E-001	0.00000E+000	9	...........	1425.95
	69	10.1	-8.01120E-001	-1.09670E-004	0.00000E+000	-8.00083E-001	0.00000E+000	9	...........	1425.95
	70	11.1	-8.01129E-001	-1.08981E-004	0.00000E+000	-8.00083E-001	0.00000E+000	9	...........	1425.95
	71	12.1	-8.01113E-001	-1.08311E-004	0.00000E+000	-8.00083E-001	0.00000E+000	9	...........	1425.95
	72	13.1	-8.01116E-001	-1.07927E-004	0.00000E+000	-8.00083E-001	0.00000E+000	9	...........	1425.95
	73	14.1	-8.01120E-001	-1.07546E-004	0.00000E+000	-8.00083E-001	0.00000E+000	9	...........	1425.87
	74	15.1	-8.01109E-001	-1.07088E-004	0.00000E+000	-8.00083E-001	0.00000E+000	9	...........	1425.95
	75	16.1	-8.01129E-001	-1.06861E-004	0.00000E+000	-8.00083E-001	0.00000E+000	9	...........	1425.95
	76	26.1	-8.01113E-001	-1.04961E-004	0.00000E+000	-8.00083E-001	0.00000E+000	9	...........	1425.95
	77	36.1	-8.01127E-001	-1.04171E-004	0.00000E+000	-8.00083E-001	0.00000E+000	9	...........	1425.95
	78	46.1	-8.01121E-001	-1.03877E-004	0.00000E+000	-8.00083E-001	0.00000E+000	9	...........	1426.04
	79	56.1	-8.01115E-001	-1.03862E-004	0.00000E+000	-8.00083E-001	0.00000E+000	9	...........	1425.95
	80	66.1	-8.01110E-001	-1.03174E-004	0.00000E+000	-8.00083E-001	0.00000E+000	9	...........	1425.95
	81	76.1	-8.01120E-001	-1.03651E-004	0.00000E+000	-8.00083E-001	0.00000E+000	9	...........	1426.04
	82	86.1	-8.01121E-001	-1.03226E-004	0.00000E+000	-8.00083E-001	0.00000E+000	9	...........	1426.04
	83	96.1	-8.01116E-001	-1.03428E-004	0.00000E+000	-8.00083E-001	0.00000E+000	9	...........	1426.04
	84	106.1	-8.01119E-001	-1.03958E-004	0.00000E+000	-8.00083E-001	0.00000E+000	9	...........	1426.04
	85	116.1	-8.01120E-001	-1.03932E-004	0.00000E+000	-8.00083E-001	0.00000E+000	9	...........	1426.04
	86	216.1	-8.01105E-001	-1.05693E-004	0.00000E+000	-8.00083E-001	0.00000E+000	9	...........	1425.95
	87	300	-8.01116E-001	-1.06501E-004	0.00000E+000	-8.00083E-001	0.00000E+000	9	...........	1425.95
	88	300.1	-7.01102E-001	2.37813E-004	0.00000E+000	-7.00083E-001	0.00000E+000	9	...........	1425.95
	89	300.2	-7.01090E-001	1.24376E-004	0.00000E+000	-7.00083E-001	0.00000E+000	9	...........	1425.95
	90	300.3	-7.01088E-001	6.27895E-005	0.00000E+000	-7.00083E-001	0.00000E+000	9	...........	1425.95
	91	300.4	-7.01098E-001	2.52742E-005	0.00000E+000	-7.00083E-001	0.00000E+000	9	...........	1425.95
	92	300.5	-7.01112E-001	7.24545E-007	0.00000E+000	-7.00083E-001	0.00000E+000	9	...........	1425.95
	93	300.6	-7.01101E-001	-1.63279E-005	0.00000E+000	-7.00083E-001	0.00000E+000	9	...........	1425.95
	94	300.7	-7.01098E-001	-2.86243E-005	0.00000E+000	-7.00083E-001	0.00000E+000	9	...........	1426.04
	95	300.8	-7.01088E-001	-3.77030E-005	0.00000E+000	-7.00083E-001	0.00000E+000	9	...........	1426.04
	96	300.9	-7.01095E-001	-4.47344E-005	0.00000E+000	-7.00083E-001	0.00000E+000	9	...........	1426.04
	97	301	-7.01099E-001	-5.01582E-005	0.00000E+000	-7.00083E-001	0.00000E+000	9	...........	1426.04
