EXPLAIN
TAG	CHRONOA
TITLE	LABEL	Chronoamperometry Scan	Test Identifier
DATE	LABEL	17/12/2021	Date
TIME	LABEL	13:25:12	Time
NOTES	NOTES	1	Notes...
	
PSTAT	PSTAT	IFC1010-21051	Potentiostat
VPRESTEP	POTEN	1.00000E-001	F	Pre-step Voltage (V)
TPRESTEP	QUANT	5.00000E-001	Pre-step Delay Time (s)
VSTEP1	POTEN	0.00000E+000	F	Step 1 Voltage (V)
TSTEP1	QUANT	6.00000E+001	Step 1 Time (s)
VSTEP2	POTEN	1.00000E-001	F	Step 2 Voltage (V)
TSTEP2	QUANT	1.00000E+000	Step 2 Time (s)
SAMPLETIME	QUANT	1.00000E-002	Sample Period (s)
DECIMATE	TOGGLE	T	Decimate
ILIMIT	QUANT	1.00000E+000	Limit I (mA/cm^2)
IMODE	SELECTOR	1	I/E Range Mode
IRANGE	QUANT	3.00000E-001	Max Current (mA)
EQDELAY	QUANT	5.00000E+000	Equil. Time (s)
SAMPLINGMODE	SELECTOR	1	Sampling Mode
AREA	QUANT	1.00000E+000	Sample Area (cm^2)
IRCOMP	SELECTOR	0	IRComp
PFCOR	QUANT	5.00000E+001	PF Corr. (ohm)
SEQUENCER	TOGGLE	TRUE	Run as Sequence
PSTATMODEL	IQUANT	64	Pstat Model
PSTATSECTION	LABEL	IFC1010-21051	Pstat Section
PSTATSERIALNO	LABEL	21051	Pstat Serial Number
CTRLMODE	IQUANT	1	Control Mode
ELECTROMETER	IQUANT	0	RE=0 or CS=1
IESTAB	IQUANT	0	I/E Stability
CASPEED	IQUANT	4	Control Amp Speed
CONVENTION	IQUANT	1	Current Convention
ICHRANGE	IQUANT	2	Ich Range
ICHRANGEMODE	TOGGLE	T	Ich Auto Range
ICHOFFSETENABLE	TOGGLE	F	Ich Offset Enable
ICHOFFSET	QUANT	0	Ich Offset (V)
ICHFILTER	IQUANT	3	Ich Filter
VCHRANGE	IQUANT	3	Vch Range
VCHRANGEMODE	TOGGLE	T	Vch Auto Range
VCHOFFSETENABLE	TOGGLE	F	Vch Offset Enable
VCHOFFSET	QUANT	0	Vch Offset (V)
VCHFILTER	IQUANT	3	Vch Filter
IERANGELOWERLIMIT	IQUANT	4	I/E Range Lower Limit
IERANGEMODE	TOGGLE	F	I/E AutoRange
IERANGE	IQUANT	9	I/E Range
ACHSELECT	IQUANT	0	Ach Select
ACHRANGE	IQUANT	2	Ach Range
ACHOFFSETENABLE	TOGGLE	F	Ach Offset Enable
ACHOFFSET	QUANT	0	Ach Offset (V)
ACHFILTER	IQUANT	1	Ach Filter
SENSECABLEID	IQUANT	14	Sense Cable ID
PWRCABLEID	IQUANT	14	Power Cable ID
DCCALDATE	LABEL	10/1/2020	DC Calibration Date
ACCALDATE	LABEL	4/2/2018	AC Calibration Date
FRAMEWORKVERSION	QUANT	7.06	Framework Version
INSTRUMENTVERSION	LABEL	4.30	Instrument Version
CURVE	TABLE	201
	Pt	T	Vf	Im	Vu	Sig	Ach	IERange	Over	Temp
	#	s	V vs. Ref.	A	V	V	V	#	bits	deg C
	0	-0.49	9.96925E-002	-6.98824E-005	0.00000E+000	9.99387E-002	0.00000E+000	9	...........	1426.04
	1	-0.48	9.99164E-002	-7.07016E-005	0.00000E+000	9.99387E-002	0.00000E+000	9	...........	1426.04
	2	-0.47	9.99897E-002	-6.96728E-005	0.00000E+000	9.99387E-002	0.00000E+000	9	...........	1426.04
	3	-0.46	9.99862E-002	-7.05309E-005	0.00000E+000	9.99387E-002	0.00000E+000	9	...........	1426.04
	4	-0.45	9.99844E-002	-6.94845E-005	0.00000E+000	9.99387E-002	0.00000E+000	9	...........	1426.04
	5	-0.44	9.99867E-002	-7.03741E-005	0.00000E+000	9.99387E-002	0.00000E+000	9	...........	1426.04
	6	-0.43	9.99887E-002	-6.92729E-005	0.00000E+000	9.99387E-002	0.00000E+000	9	...........	1426.04
	7	-0.42	9.99887E-002	-7.02147E-005	0.00000E+000	9.99387E-002	0.00000E+000	9	...........	1426.04
	8	-0.41	9.99887E-002	-6.90883E-005	0.00000E+000	9.99387E-002	0.00000E+000	9	...........	1426.04
	9	-0.4	9.99864E-002	-7.00671E-005	0.00000E+000	9.99387E-002	0.00000E+000	9	...........	1426.04
	10	-0.39	9.99852E-002	-6.88895E-005	0.00000E+000	9.99387E-002	0.00000E+000	9	...........	1426.04
	11	-0.38	9.99849E-002	-6.99252E-005	0.00000E+000	9.99387E-002	0.00000E+000	9	...........	1426.04
	12	-0.37	9.99884E-002	-6.86881E-005	0.00000E+000	9.99387E-002	0.00000E+000	9	...........	1426.04
	13	-0.36	9.99870E-002	-6.97832E-005	0.00000E+000	9.99387E-002	0.00000E+000	9	...........	1426.04
	14	-0.35	9.99892E-002	-6.84774E-005	0.00000E+000	9.99387E-002	0.00000E+000	9	...........	1426.04
	15	-0.34	9.99859E-002	-6.95957E-005	0.00000E+000	9.99387E-002	0.00000E+000	9	...........	1426.04
	16	-0.33	9.99902E-002	-6.82660E-005	0.00000E+000	9.99387E-002	0.00000E+000	9	...........	1426.04
	17	-0.32	9.99886E-002	-6.94651E-005	0.00000E+000	9.99387E-002	0.00000E+000	9	...........	1426.04
	18	-0.31	9.99895E-002	-6.80692E-005	0.00000E+000	9.99387E-002	0.00000E+000	9	...........	1426.04
	19	-0.3	9.99877E-002	-6.93257E-005	0.00000E+000	9.99387E-002	0.00000E+000	9	...........	1426.04
	20	-0.29	9.99896E-002	-6.78884E-005	0.00000E+000	9.99387E-002	0.00000E+000	9	...........	1426.04
	21	-0.28	9.99872E-002	-6.91761E-005	0.00000E+000	9.99387E-002	0.00000E+000	9	...........	1426.04
	22	-0.27	9.99888E-002	-6.76696E-005	0.00000E+000	9.99387E-002	0.00000E+000	9	...........	1426.04
	23	-0.26	9.99834E-002	-6.90379E-005	0.00000E+000	9.99387E-002	0.00000E+000	9	...........	1426.04
	24	-0.25	9.99899E-002	-6.74749E-005	0.00000E+000	9.99387E-002	0.00000E+000	9	...........	1426.04
	25	-0.24	9.99885E-002	-6.88906E-005	0.00000E+000	9.99387E-002	0.00000E+000	9	...........	1426.04
	26	-0.23	9.99889E-002	-6.72906E-005	0.00000E+000	9.99387E-002	0.00000E+000	9	...........	1426.04
	27	-0.22	9.99826E-002	-6.87538E-005	0.00000E+000	9.99387E-002	0.00000E+000	9	...........	1426.04
	28	-0.21	9.99887E-002	-6.70798E-005	0.00000E+000	9.99387E-002	0.00000E+000	9	...........	1426.04
	29	-0.2	9.99841E-002	-6.85816E-005	0.00000E+000	9.99387E-002	0.00000E+000	9	...........	1426.04
	30	-0.19	9.99883E-002	-6.68963E-005	0.00000E+000	9.99387E-002	0.00000E+000	9	...........	1426.04
	31	-0.18	9.99842E-002	-6.84451E-005	0.00000E+000	9.99387E-002	0.00000E+000	9	...........	1426.04
	32	-0.17	9.99882E-002	-6.67053E-005	0.00000E+000	9.99387E-002	0.00000E+000	9	...........	1426.04
	33	-0.16	9.99875E-002	-6.82950E-005	0.00000E+000	9.99387E-002	0.00000E+000	9	...........	1426.04
	34	-0.15	9.99874E-002	-6.65379E-005	0.00000E+000	9.99387E-002	0.00000E+000	9	...........	1426.04
	35	-0.14	9.99892E-002	-6.81276E-005	0.00000E+000	9.99387E-002	0.00000E+000	9	...........	1426.04
	36	-0.13	9.99892E-002	-6.63482E-005	0.00000E+000	9.99387E-002	0.00000E+000	9	...........	1426.04
	37	-0.12	9.99867E-002	-6.79716E-005	0.00000E+000	9.99387E-002	0.00000E+000	9	...........	1426.04
	38	-0.11	9.99866E-002	-6.61847E-005	0.00000E+000	9.99387E-002	0.00000E+000	9	...........	1426.04
	39	-0.1	9.99909E-002	-6.78195E-005	0.00000E+000	9.99387E-002	0.00000E+000	9	...........	1426.04
	40	-0.09	9.99899E-002	-6.60143E-005	0.00000E+000	9.99387E-002	0.00000E+000	9	...........	1426.04
	41	-0.08	9.99870E-002	-6.76649E-005	0.00000E+000	9.99387E-002	0.00000E+000	9	...........	1426.04
	42	-0.07	9.99876E-002	-6.58544E-005	0.00000E+000	9.99387E-002	0.00000E+000	9	...........	1426.04
	43	-0.06	9.99863E-002	-6.74858E-005	0.00000E+000	9.99387E-002	0.00000E+000	9	...........	1426.04
	44	-0.05	9.99869E-002	-6.56962E-005	0.00000E+000	9.99387E-002	0.00000E+000	9	...........	1426.04
	45	-0.04	9.99857E-002	-6.73490E-005	0.00000E+000	9.99387E-002	0.00000E+000	9	...........	1426.04
	46	-0.03	9.99864E-002	-6.55385E-005	0.00000E+000	9.99387E-002	0.00000E+000	9	...........	1426.04
	47	-0.02	9.99872E-002	-6.71730E-005	0.00000E+000	9.99387E-002	0.00000E+000	9	...........	1426.04
	48	-0.01	9.99894E-002	-6.53700E-005	0.00000E+000	9.99387E-002	0.00000E+000	9	...........	1426.04
	49	0	9.99878E-002	-6.70053E-005	0.00000E+000	9.99387E-002	0.00000E+000	9	...........	1426.04
	50	0.01	-2.64109E-005	-5.73361E-004	0.00000E+000	-6.08154E-005	0.00000E+000	9	...........	1426.04
	51	0.02	-2.61952E-005	-5.32124E-004	0.00000E+000	-6.08154E-005	0.00000E+000	9	...........	1426.04
	52	0.03	-2.57112E-005	-4.98162E-004	0.00000E+000	-6.08154E-005	0.00000E+000	9	...........	1426.04
	53	0.04	-2.78555E-005	-4.72649E-004	0.00000E+000	-6.08154E-005	0.00000E+000	9	...........	1426.04
	54	0.05	-3.03753E-005	-4.47136E-004	0.00000E+000	-6.08154E-005	0.00000E+000	9	...........	1426.04
	55	0.06	-2.51939E-005	-4.27505E-004	0.00000E+000	-6.08154E-005	0.00000E+000	9	...........	1426.04
	56	0.07	-2.80141E-005	-4.06615E-004	0.00000E+000	-6.08154E-005	0.00000E+000	9	...........	1426.04
	57	0.08	-2.39841E-005	-3.90733E-004	0.00000E+000	-6.08154E-005	0.00000E+000	9	...........	1426.04
	58	0.09	-2.88568E-005	-3.73058E-004	0.00000E+000	-6.08154E-005	0.00000E+000	9	...........	1426.04
	59	0.1	-2.72047E-005	-3.59963E-004	0.00000E+000	-6.08154E-005	0.00000E+000	9	...........	1426.04
	60	0.11	-2.69461E-005	-3.44678E-004	0.00000E+000	-6.08154E-005	0.00000E+000	9	...........	1426.04
	61	0.12	-2.70128E-005	-3.33748E-004	0.00000E+000	-6.08154E-005	0.00000E+000	9	...........	1426.04
	62	0.13	-2.72214E-005	-3.20416E-004	0.00000E+000	-6.08154E-005	0.00000E+000	9	...........	1426.04
	63	0.14	-2.66541E-005	-3.11180E-004	0.00000E+000	-6.08154E-005	0.00000E+000	9	...........	1426.04
	64	0.15	-2.87733E-005	-2.99427E-004	0.00000E+000	-6.08154E-005	0.00000E+000	9	...........	1426.04
	65	0.16	-2.66207E-005	-2.91620E-004	0.00000E+000	-6.08154E-005	0.00000E+000	9	...........	1426.04
	66	0.17	-2.72131E-005	-2.81142E-004	0.00000E+000	-6.08154E-005	0.00000E+000	9	...........	1426.04
	67	0.18	-2.79640E-005	-2.74549E-004	0.00000E+000	-6.08154E-005	0.00000E+000	9	...........	1426.04
	68	0.19	-2.79890E-005	-2.65112E-004	0.00000E+000	-6.08154E-005	0.00000E+000	9	...........	1426.04
	69	0.2	-2.55777E-005	-2.59489E-004	0.00000E+000	-6.08154E-005	0.00000E+000	9	...........	1426.04
	70	0.21	-2.80308E-005	-2.50991E-004	0.00000E+000	-6.08154E-005	0.00000E+000	9	...........	1426.04
	71	0.22	-3.02001E-005	-2.46243E-004	0.00000E+000	-6.08154E-005	0.00000E+000	9	...........	1426.04
	72	0.23	-2.80057E-005	-2.38473E-004	0.00000E+000	-6.08154E-005	0.00000E+000	9	...........	1426.04
	73	0.24	-2.69461E-005	-2.34437E-004	0.00000E+000	-6.08154E-005	0.00000E+000	9	...........	1426.04
	74	0.25	-2.43679E-005	-2.27320E-004	0.00000E+000	-6.08154E-005	0.00000E+000	9	...........	1426.04
	75	0.26	-2.62202E-005	-2.23943E-004	0.00000E+000	-6.08154E-005	0.00000E+000	9	...........	1426.04
	76	0.27	-2.80141E-005	-2.17352E-004	0.00000E+000	-6.08154E-005	0.00000E+000	9	...........	1426.04
	77	0.28	-2.78055E-005	-2.14520E-004	0.00000E+000	-6.08154E-005	0.00000E+000	9	...........	1426.04
	78	0.29	-2.64204E-005	-2.08420E-004	0.00000E+000	-6.08154E-005	0.00000E+000	9	...........	1426.04
	79	0.3	-2.89819E-005	-2.06062E-004	0.00000E+000	-6.08154E-005	0.00000E+000	9	...........	1426.04
	80	0.31	-2.58531E-005	-2.00355E-004	0.00000E+000	-6.08154E-005	0.00000E+000	9	...........	1426.04
	81	0.32	-2.64705E-005	-1.98419E-004	0.00000E+000	-6.08154E-005	0.00000E+000	9	...........	1426.04
	82	0.33	-2.64705E-005	-1.93084E-004	0.00000E+000	-6.08154E-005	0.00000E+000	9	...........	1426.04
	83	0.34	-2.75635E-005	-1.91503E-004	0.00000E+000	-6.08154E-005	0.00000E+000	9	...........	1426.04
	84	0.35	-2.84312E-005	-1.86442E-004	0.00000E+000	-6.08154E-005	0.00000E+000	9	...........	1426.04
	85	0.36	-2.85397E-005	-1.85221E-004	0.00000E+000	-6.08154E-005	0.00000E+000	9	...........	1426.04
	86	0.37	-2.65873E-005	-1.80413E-004	0.00000E+000	-6.08154E-005	0.00000E+000	9	...........	1426.04
	87	0.38	-2.84145E-005	-1.79502E-004	0.00000E+000	-6.08154E-005	0.00000E+000	9	...........	1426.04
	88	0.39	-2.86565E-005	-1.74902E-004	0.00000E+000	-6.08154E-005	0.00000E+000	9	...........	1426.04
	89	0.4	-2.68710E-005	-1.74246E-004	0.00000E+000	-6.08154E-005	0.00000E+000	9	...........	1426.04
	90	0.41	-2.50187E-005	-1.69836E-004	0.00000E+000	-6.08154E-005	0.00000E+000	9	...........	1426.04
	91	0.42	-2.66707E-005	-1.69451E-004	0.00000E+000	-6.08154E-005	0.00000E+000	9	...........	1426.04
	92	0.43	-2.49353E-005	-1.65201E-004	0.00000E+000	-6.08154E-005	0.00000E+000	9	...........	1426.04
	93	0.44	-3.02168E-005	-1.65044E-004	0.00000E+000	-6.08154E-005	0.00000E+000	9	...........	1426.04
	94	0.45	-2.54442E-005	-1.60901E-004	0.00000E+000	-6.08154E-005	0.00000E+000	9	...........	1426.04
	95	0.46	-2.66541E-005	-1.60972E-004	0.00000E+000	-6.08154E-005	0.00000E+000	9	...........	1426.04
	96	0.47	-2.33834E-005	-1.56956E-004	0.00000E+000	-6.08154E-005	0.00000E+000	9	...........	1426.04
	97	0.48	-2.45431E-005	-1.57209E-004	0.00000E+000	-6.08154E-005	0.00000E+000	9	...........	1426.04
	98	0.49	-2.71380E-005	-1.53314E-004	0.00000E+000	-6.08154E-005	0.00000E+000	9	...........	1426.04
	99	0.5	-2.96411E-005	-1.53721E-004	0.00000E+000	-6.08154E-005	0.00000E+000	9	...........	1426.04
	100	0.51	-2.76303E-005	-1.49892E-004	0.00000E+000	-6.08154E-005	0.00000E+000	9	...........	1426.04
	101	0.52	-2.45932E-005	-1.50471E-004	0.00000E+000	-6.08154E-005	0.00000E+000	9	...........	1426.04
	102	0.53	-2.47017E-005	-1.46713E-004	0.00000E+000	-6.08154E-005	0.00000E+000	9	...........	1426.04
	103	0.54	-2.90320E-005	-1.47452E-004	0.00000E+000	-6.08154E-005	0.00000E+000	9	...........	1426.04
	104	0.55	-2.44180E-005	-1.43747E-004	0.00000E+000	-6.08154E-005	0.00000E+000	9	...........	1426.04
	105	0.56	-2.57947E-005	-1.44627E-004	0.00000E+000	-6.08154E-005	0.00000E+000	9	...........	1426.04
	106	0.57	-2.76386E-005	-1.40999E-004	0.00000E+000	-6.08154E-005	0.00000E+000	9	...........	1426.04
	107	0.58	-2.73299E-005	-1.42000E-004	0.00000E+000	-6.08154E-005	0.00000E+000	9	...........	1426.04
	108	0.59	-2.90487E-005	-1.38398E-004	0.00000E+000	-6.08154E-005	0.00000E+000	9	...........	1426.04
	109	0.6	-2.80308E-005	-1.39532E-004	0.00000E+000	-6.08154E-005	0.00000E+000	9	...........	1426.04
	110	0.61	-2.85480E-005	-1.35966E-004	0.00000E+000	-6.08154E-005	0.00000E+000	9	...........	1426.04
	111	0.71	-2.72298E-005	-1.25802E-004	0.00000E+000	-6.08154E-005	0.00000E+000	9	...........	1425.78
	112	0.81	-2.70629E-005	-1.18037E-004	0.00000E+000	-6.08154E-005	0.00000E+000	9	...........	1425.78
	113	0.91	-2.84646E-005	-1.11854E-004	0.00000E+000	-6.08154E-005	0.00000E+000	9	...........	1425.78
	114	1.01	-2.62118E-005	-1.06685E-004	0.00000E+000	-6.08154E-005	0.00000E+000	9	...........	1425.78
	115	1.11	-2.68460E-005	-1.02324E-004	0.00000E+000	-6.08154E-005	0.00000E+000	9	...........	1425.78
	116	1.21	-3.10344E-005	-9.86079E-005	0.00000E+000	-6.08154E-005	0.00000E+000	9	...........	1425.78
	117	1.31	-2.83144E-005	-9.53768E-005	0.00000E+000	-6.08154E-005	0.00000E+000	9	...........	1425.78
	118	1.41	-2.81976E-005	-9.25097E-005	0.00000E+000	-6.08154E-005	0.00000E+000	9	...........	1425.78
	119	1.51	-2.77638E-005	-8.99353E-005	0.00000E+000	-6.08154E-005	0.00000E+000	9	...........	1425.78
	120	1.61	-3.11846E-005	-8.75832E-005	0.00000E+000	-6.08154E-005	0.00000E+000	9	...........	1425.78
	121	2.61	-2.72298E-005	-6.95429E-005	0.00000E+000	-6.08154E-005	0.00000E+000	9	...........	1426.31
	122	3.61	-2.80474E-005	-5.71832E-005	0.00000E+000	-6.08154E-005	0.00000E+000	9	...........	1426.31
	123	4.61	-2.78889E-005	-4.97895E-005	0.00000E+000	-6.08154E-005	0.00000E+000	9	...........	1426.40
	124	5.61	-2.93574E-005	-4.48541E-005	0.00000E+000	-6.08154E-005	0.00000E+000	9	...........	1426.40
	125	6.61	-2.83144E-005	-4.04801E-005	0.00000E+000	-6.08154E-005	0.00000E+000	9	...........	1426.40
	126	7.61	-2.62869E-005	-3.71164E-005	0.00000E+000	-6.08154E-005	0.00000E+000	9	...........	1426.40
	127	8.61	-2.69211E-005	-3.49227E-005	0.00000E+000	-6.08154E-005	0.00000E+000	9	...........	1426.13
	128	9.61	-2.84980E-005	-3.20946E-005	0.00000E+000	-6.08154E-005	0.00000E+000	9	...........	1426.40
	129	10.61	-2.55277E-005	-2.98055E-005	0.00000E+000	-6.08154E-005	0.00000E+000	9	...........	1426.40
	130	11.61	-2.93073E-005	-2.90634E-005	0.00000E+000	-6.08154E-005	0.00000E+000	9	...........	1426.40
	131	21.61	-2.92656E-005	-2.13015E-005	0.00000E+000	-6.08154E-005	0.00000E+000	9	...........	1426.40
	132	31.61	-2.68543E-005	-1.73713E-005	0.00000E+000	-6.08154E-005	0.00000E+000	9	...........	1426.31
	133	41.61	-3.08259E-005	-1.64206E-005	0.00000E+000	-6.08154E-005	0.00000E+000	9	...........	1426.40
	134	51.61	-2.92322E-005	-1.47859E-005	0.00000E+000	-6.08154E-005	0.00000E+000	9	...........	1426.40
	135	60	-2.49686E-005	-1.23956E-005	0.00000E+000	-6.08154E-005	0.00000E+000	9	...........	1426.40
	136	60.01	3.27136E-002	4.92812E-004	0.00000E+000	9.99387E-002	0.00000E+000	9	.........v.	1426.40
	137	60.02	9.88219E-002	4.44288E-004	0.00000E+000	9.99387E-002	0.00000E+000	9	...........	1426.40
	138	60.03	9.97731E-002	4.06151E-004	0.00000E+000	9.99387E-002	0.00000E+000	9	...........	1426.40
	139	60.04	9.99352E-002	3.77228E-004	0.00000E+000	9.99387E-002	0.00000E+000	9	...........	1426.40
	140	60.05	9.99645E-002	3.48895E-004	0.00000E+000	9.99387E-002	0.00000E+000	9	...........	1426.40
	141	60.06	9.99707E-002	3.26733E-004	0.00000E+000	9.99387E-002	0.00000E+000	9	...........	1426.40
	142	60.07	9.99711E-002	3.03552E-004	0.00000E+000	9.99387E-002	0.00000E+000	9	...........	1426.40
	143	60.08	9.99741E-002	2.85657E-004	0.00000E+000	9.99387E-002	0.00000E+000	9	...........	1426.40
	144	60.09	9.99756E-002	2.66026E-004	0.00000E+000	9.99387E-002	0.00000E+000	9	...........	1426.40
	145	60.1	9.99774E-002	2.51264E-004	0.00000E+000	9.99387E-002	0.00000E+000	9	...........	1426.40
	146	60.11	9.99791E-002	2.34336E-004	0.00000E+000	9.99387E-002	0.00000E+000	9	...........	1426.40
	147	60.12	9.99801E-002	2.21994E-004	0.00000E+000	9.99387E-002	0.00000E+000	9	...........	1426.40
	148	60.13	9.99797E-002	2.07193E-004	0.00000E+000	9.99387E-002	0.00000E+000	9	...........	1426.40
	149	60.14	9.99826E-002	1.96859E-004	0.00000E+000	9.99387E-002	0.00000E+000	9	...........	1426.40
	150	60.15	9.99838E-002	1.83855E-004	0.00000E+000	9.99387E-002	0.00000E+000	9	...........	1426.40
	151	60.16	9.99829E-002	1.75130E-004	0.00000E+000	9.99387E-002	0.00000E+000	9	...........	1426.40
	152	60.17	9.99844E-002	1.63625E-004	0.00000E+000	9.99387E-002	0.00000E+000	9	...........	1426.40
	153	60.18	9.99860E-002	1.56272E-004	0.00000E+000	9.99387E-002	0.00000E+000	9	...........	1426.40
	154	60.19	9.99861E-002	1.46020E-004	0.00000E+000	9.99387E-002	0.00000E+000	9	...........	1426.40
	155	60.2	9.99855E-002	1.39839E-004	0.00000E+000	9.99387E-002	0.00000E+000	9	...........	1426.40
	156	60.21	9.99847E-002	1.30651E-004	0.00000E+000	9.99387E-002	0.00000E+000	9	...........	1426.40
	157	60.22	9.99854E-002	1.25473E-004	0.00000E+000	9.99387E-002	0.00000E+000	9	...........	1426.40
	158	60.23	9.99883E-002	1.17225E-004	0.00000E+000	9.99387E-002	0.00000E+000	9	...........	1426.40
	159	60.24	9.99882E-002	1.12862E-004	0.00000E+000	9.99387E-002	0.00000E+000	9	...........	1426.40
	160	60.25	9.99861E-002	1.05391E-004	0.00000E+000	9.99387E-002	0.00000E+000	9	...........	1426.40
	161	60.26	9.99863E-002	1.01767E-004	0.00000E+000	9.99387E-002	0.00000E+000	9	...........	1426.40
	162	60.27	9.99865E-002	9.50158E-005	0.00000E+000	9.99387E-002	0.00000E+000	9	...........	1426.40
	163	60.28	9.99857E-002	9.20141E-005	0.00000E+000	9.99387E-002	0.00000E+000	9	...........	1426.40
	164	60.29	9.99866E-002	8.58466E-005	0.00000E+000	9.99387E-002	0.00000E+000	9	...........	1426.40
	165	60.3	9.99832E-002	8.33774E-005	0.00000E+000	9.99387E-002	0.00000E+000	9	...........	1426.40
	166	60.31	9.99919E-002	7.77660E-005	0.00000E+000	9.99387E-002	0.00000E+000	9	...........	1426.40
	167	60.32	9.99873E-002	7.57581E-005	0.00000E+000	9.99387E-002	0.00000E+000	9	...........	1426.40
	168	60.33	9.99868E-002	7.05858E-005	0.00000E+000	9.99387E-002	0.00000E+000	9	...........	1426.40
	169	60.34	9.99861E-002	6.89895E-005	0.00000E+000	9.99387E-002	0.00000E+000	9	...........	1426.40
	170	60.35	9.99887E-002	6.42068E-005	0.00000E+000	9.99387E-002	0.00000E+000	9	...........	1426.40
	171	60.36	9.99851E-002	6.29858E-005	0.00000E+000	9.99387E-002	0.00000E+000	9	...........	1426.40
	172	60.37	9.99880E-002	5.85362E-005	0.00000E+000	9.99387E-002	0.00000E+000	9	...........	1426.40
	173	60.38	9.99842E-002	5.76442E-005	0.00000E+000	9.99387E-002	0.00000E+000	9	...........	1426.40
	174	60.39	9.99878E-002	5.34924E-005	0.00000E+000	9.99387E-002	0.00000E+000	9	...........	1426.40
	175	60.4	9.99862E-002	5.28831E-005	0.00000E+000	9.99387E-002	0.00000E+000	9	...........	1426.40
	176	60.41	9.99870E-002	4.89685E-005	0.00000E+000	9.99387E-002	0.00000E+000	9	...........	1426.40
	177	60.42	9.99875E-002	4.86146E-005	0.00000E+000	9.99387E-002	0.00000E+000	9	...........	1426.40
	178	60.43	9.99875E-002	4.49216E-005	0.00000E+000	9.99387E-002	0.00000E+000	9	...........	1426.40
	179	60.44	9.99856E-002	4.47892E-005	0.00000E+000	9.99387E-002	0.00000E+000	9	...........	1426.40
	180	60.45	9.99879E-002	4.12889E-005	0.00000E+000	9.99387E-002	0.00000E+000	9	...........	1426.40
	181	60.46	9.99872E-002	4.13943E-005	0.00000E+000	9.99387E-002	0.00000E+000	9	...........	1426.40
	182	60.47	9.99877E-002	3.80526E-005	0.00000E+000	9.99387E-002	0.00000E+000	9	...........	1426.40
	183	60.48	9.99882E-002	3.83315E-005	0.00000E+000	9.99387E-002	0.00000E+000	9	...........	1426.40
	184	60.49	9.99838E-002	3.51031E-005	0.00000E+000	9.99387E-002	0.00000E+000	9	...........	1426.40
	185	60.5	9.99890E-002	3.55564E-005	0.00000E+000	9.99387E-002	0.00000E+000	9	...........	1426.40
	186	60.51	9.99864E-002	3.24468E-005	0.00000E+000	9.99387E-002	0.00000E+000	9	...........	1426.40
	187	60.52	9.99851E-002	3.30580E-005	0.00000E+000	9.99387E-002	0.00000E+000	9	...........	1426.40
	188	60.53	9.99872E-002	3.00618E-005	0.00000E+000	9.99387E-002	0.00000E+000	9	...........	1426.40
	189	60.54	9.99883E-002	3.08056E-005	0.00000E+000	9.99387E-002	0.00000E+000	9	...........	1426.40
	190	60.55	9.99854E-002	2.78901E-005	0.00000E+000	9.99387E-002	0.00000E+000	9	...........	1426.40
	191	60.56	9.99872E-002	2.87652E-005	0.00000E+000	9.99387E-002	0.00000E+000	9	...........	1426.40
	192	60.57	9.99868E-002	2.59211E-005	0.00000E+000	9.99387E-002	0.00000E+000	9	...........	1426.40
	193	60.58	9.99829E-002	2.69080E-005	0.00000E+000	9.99387E-002	0.00000E+000	9	...........	1426.40
	194	60.59	9.99862E-002	2.41109E-005	0.00000E+000	9.99387E-002	0.00000E+000	9	...........	1426.40
	195	60.6	9.99852E-002	2.52282E-005	0.00000E+000	9.99387E-002	0.00000E+000	9	...........	1426.40
	196	60.61	9.99853E-002	2.24898E-005	0.00000E+000	9.99387E-002	0.00000E+000	9	...........	1426.40
	197	60.71	9.99852E-002	1.61377E-005	0.00000E+000	9.99387E-002	0.00000E+000	9	...........	1426.40
	198	60.81	9.99804E-002	1.18906E-005	0.00000E+000	9.99387E-002	0.00000E+000	9	...........	1426.40
	199	60.91	9.99840E-002	8.98422E-006	0.00000E+000	9.99387E-002	0.00000E+000	9	...........	1426.40
	200	61	9.99830E-002	9.52144E-006	0.00000E+000	9.99387E-002	0.00000E+000	9	...........	1426.40
