EXPLAIN
TAG	CHRONOA
TITLE	LABEL	Chronoamperometry Scan	Test Identifier
DATE	LABEL	17/12/2021	Date
TIME	LABEL	15:21:38	Time
NOTES	NOTES	1	Notes...
	
PSTAT	PSTAT	IFC1010-21051	Potentiostat
VPRESTEP	POTEN	1.00000E-001	F	Pre-step Voltage (V)
TPRESTEP	QUANT	5.00000E-001	Pre-step Delay Time (s)
VSTEP1	POTEN	2.00000E-001	F	Step 1 Voltage (V)
TSTEP1	QUANT	3.00000E+002	Step 1 Time (s)
VSTEP2	POTEN	3.00000E-001	F	Step 2 Voltage (V)
TSTEP2	QUANT	1.00000E+000	Step 2 Time (s)
SAMPLETIME	QUANT	1.00000E-001	Sample Period (s)
DECIMATE	TOGGLE	T	Decimate
ILIMIT	QUANT	1.00000E+000	Limit I (mA/cm^2)
IMODE	SELECTOR	1	I/E Range Mode
IRANGE	QUANT	3.00000E-001	Max Current (mA)
EQDELAY	QUANT	5.00000E+000	Equil. Time (s)
SAMPLINGMODE	SELECTOR	1	Sampling Mode
AREA	QUANT	1.00000E+000	Sample Area (cm^2)
IRCOMP	SELECTOR	0	IRComp
PFCOR	QUANT	5.00000E+001	PF Corr. (ohm)
SEQUENCER	TOGGLE	TRUE	Run as Sequence
PSTATMODEL	IQUANT	64	Pstat Model
PSTATSECTION	LABEL	IFC1010-21051	Pstat Section
PSTATSERIALNO	LABEL	21051	Pstat Serial Number
CTRLMODE	IQUANT	1	Control Mode
ELECTROMETER	IQUANT	0	RE=0 or CS=1
IESTAB	IQUANT	0	I/E Stability
CASPEED	IQUANT	4	Control Amp Speed
CONVENTION	IQUANT	1	Current Convention
ICHRANGE	IQUANT	2	Ich Range
ICHRANGEMODE	TOGGLE	T	Ich Auto Range
ICHOFFSETENABLE	TOGGLE	F	Ich Offset Enable
ICHOFFSET	QUANT	0	Ich Offset (V)
ICHFILTER	IQUANT	3	Ich Filter
VCHRANGE	IQUANT	3	Vch Range
VCHRANGEMODE	TOGGLE	T	Vch Auto Range
VCHOFFSETENABLE	TOGGLE	F	Vch Offset Enable
VCHOFFSET	QUANT	0	Vch Offset (V)
VCHFILTER	IQUANT	3	Vch Filter
IERANGELOWERLIMIT	IQUANT	4	I/E Range Lower Limit
IERANGEMODE	TOGGLE	F	I/E AutoRange
IERANGE	IQUANT	9	I/E Range
ACHSELECT	IQUANT	0	Ach Select
ACHRANGE	IQUANT	2	Ach Range
ACHOFFSETENABLE	TOGGLE	F	Ach Offset Enable
ACHOFFSET	QUANT	0	Ach Offset (V)
ACHFILTER	IQUANT	1	Ach Filter
SENSECABLEID	IQUANT	14	Sense Cable ID
PWRCABLEID	IQUANT	14	Power Cable ID
DCCALDATE	LABEL	10/1/2020	DC Calibration Date
ACCALDATE	LABEL	4/2/2018	AC Calibration Date
FRAMEWORKVERSION	QUANT	7.06	Framework Version
INSTRUMENTVERSION	LABEL	4.30	Instrument Version
CURVE	TABLE	98
	Pt	T	Vf	Im	Vu	Sig	Ach	IERange	Over	Temp
	#	s	V vs. Ref.	A	V	V	V	#	bits	deg C
	0	-0.4	9.97962E-002	4.11989E-007	0.00000E+000	1.00006E-001	0.00000E+000	9	...........	1426.13
	1	-0.3	1.00150E-001	3.87998E-007	0.00000E+000	1.00006E-001	0.00000E+000	9	...........	1426.13
	2	-0.2	1.00226E-001	3.74150E-007	0.00000E+000	1.00006E-001	0.00000E+000	9	...........	1426.13
	3	-0.1	1.00228E-001	3.47590E-007	0.00000E+000	1.00006E-001	0.00000E+000	9	...........	1426.13
	4	0	1.00227E-001	3.17325E-007	0.00000E+000	1.00006E-001	0.00000E+000	9	...........	1426.13
	5	0.1	2.00226E-001	1.73589E-004	0.00000E+000	2.00005E-001	0.00000E+000	9	...........	1426.13
	6	0.2	2.00227E-001	6.76761E-005	0.00000E+000	2.00005E-001	0.00000E+000	9	...........	1426.13
	7	0.3	2.00226E-001	3.51903E-005	0.00000E+000	2.00005E-001	0.00000E+000	9	...........	1426.13
	8	0.4	2.00226E-001	2.28045E-005	0.00000E+000	2.00005E-001	0.00000E+000	9	...........	1426.13
	9	0.5	2.00225E-001	1.70576E-005	0.00000E+000	2.00005E-001	0.00000E+000	9	...........	1426.13
	10	0.6	2.00223E-001	1.38790E-005	0.00000E+000	2.00005E-001	0.00000E+000	9	...........	1426.07
	11	0.7	2.00224E-001	1.19011E-005	0.00000E+000	2.00005E-001	0.00000E+000	9	...........	1425.78
	12	0.8	2.00224E-001	1.05069E-005	0.00000E+000	2.00005E-001	0.00000E+000	9	...........	1425.78
	13	0.9	2.00224E-001	9.47044E-006	0.00000E+000	2.00005E-001	0.00000E+000	9	...........	1425.78
	14	1	2.00224E-001	8.65836E-006	0.00000E+000	2.00005E-001	0.00000E+000	9	...........	1425.78
	15	1.1	2.00225E-001	8.01226E-006	0.00000E+000	2.00005E-001	0.00000E+000	9	...........	1425.78
	16	1.2	2.00224E-001	7.47985E-006	0.00000E+000	2.00005E-001	0.00000E+000	9	...........	1425.78
	17	1.3	2.00222E-001	7.01690E-006	0.00000E+000	2.00005E-001	0.00000E+000	9	...........	1425.78
	18	1.4	2.00223E-001	6.63464E-006	0.00000E+000	2.00005E-001	0.00000E+000	9	...........	1425.78
	19	1.5	2.00223E-001	6.29716E-006	0.00000E+000	2.00005E-001	0.00000E+000	9	...........	1425.78
	20	1.6	2.00224E-001	6.00356E-006	0.00000E+000	2.00005E-001	0.00000E+000	9	...........	1425.82
	21	1.7	2.00223E-001	5.73185E-006	0.00000E+000	2.00005E-001	0.00000E+000	9	...........	1426.04
	22	1.8	2.00221E-001	5.49280E-006	0.00000E+000	2.00005E-001	0.00000E+000	9	...........	1426.04
	23	1.9	2.00223E-001	5.30257E-006	0.00000E+000	2.00005E-001	0.00000E+000	9	...........	1426.04
	24	2	2.00224E-001	5.10580E-006	0.00000E+000	2.00005E-001	0.00000E+000	9	...........	1426.04
	25	2.1	2.00223E-001	4.92878E-006	0.00000E+000	2.00005E-001	0.00000E+000	9	...........	1426.04
	26	2.2	2.00222E-001	4.79131E-006	0.00000E+000	2.00005E-001	0.00000E+000	9	...........	1426.04
	27	2.3	2.00223E-001	4.64696E-006	0.00000E+000	2.00005E-001	0.00000E+000	9	...........	1426.04
	28	2.4	2.00222E-001	4.50211E-006	0.00000E+000	2.00005E-001	0.00000E+000	9	...........	1426.04
	29	2.5	2.00222E-001	4.37401E-006	0.00000E+000	2.00005E-001	0.00000E+000	9	...........	1426.04
	30	2.6	2.00221E-001	4.24975E-006	0.00000E+000	2.00005E-001	0.00000E+000	9	...........	1426.08
	31	2.7	2.00222E-001	4.14117E-006	0.00000E+000	2.00005E-001	0.00000E+000	9	...........	1426.31
	32	2.8	2.00223E-001	4.04701E-006	0.00000E+000	2.00005E-001	0.00000E+000	9	...........	1426.31
	33	2.9	2.00223E-001	3.94480E-006	0.00000E+000	2.00005E-001	0.00000E+000	9	...........	1426.31
	34	3	2.00224E-001	3.87440E-006	0.00000E+000	2.00005E-001	0.00000E+000	9	...........	1426.31
	35	3.1	2.00223E-001	3.81183E-006	0.00000E+000	2.00005E-001	0.00000E+000	9	...........	1426.31
	36	3.2	2.00223E-001	3.73232E-006	0.00000E+000	2.00005E-001	0.00000E+000	9	...........	1426.31
	37	3.3	2.00222E-001	3.64105E-006	0.00000E+000	2.00005E-001	0.00000E+000	9	...........	1426.31
	38	3.4	2.00223E-001	3.62127E-006	0.00000E+000	2.00005E-001	0.00000E+000	9	...........	1426.31
	39	3.5	2.00225E-001	3.54139E-006	0.00000E+000	2.00005E-001	0.00000E+000	9	...........	1426.31
	40	3.6	2.00225E-001	3.47218E-006	0.00000E+000	2.00005E-001	0.00000E+000	9	...........	1426.27
	41	3.7	2.00221E-001	3.37858E-006	0.00000E+000	2.00005E-001	0.00000E+000	9	...........	1426.04
	42	3.8	2.00223E-001	3.32256E-006	0.00000E+000	2.00005E-001	0.00000E+000	9	...........	1426.04
	43	3.9	2.00223E-001	3.26286E-006	0.00000E+000	2.00005E-001	0.00000E+000	9	...........	1426.04
	44	4	2.00223E-001	3.20357E-006	0.00000E+000	2.00005E-001	0.00000E+000	9	...........	1426.04
	45	4.1	2.00223E-001	3.15622E-006	0.00000E+000	2.00005E-001	0.00000E+000	9	...........	1426.04
	46	4.2	2.00222E-001	3.09479E-006	0.00000E+000	2.00005E-001	0.00000E+000	9	...........	1426.04
	47	4.3	2.00224E-001	3.02489E-006	0.00000E+000	2.00005E-001	0.00000E+000	9	...........	1426.04
	48	4.4	2.00225E-001	2.97113E-006	0.00000E+000	2.00005E-001	0.00000E+000	9	...........	1426.04
	49	4.5	2.00222E-001	2.91911E-006	0.00000E+000	2.00005E-001	0.00000E+000	9	...........	1426.04
	50	4.6	2.00222E-001	2.85851E-006	0.00000E+000	2.00005E-001	0.00000E+000	9	...........	1426.03
	51	4.7	2.00221E-001	2.81754E-006	0.00000E+000	2.00005E-001	0.00000E+000	9	...........	1425.95
	52	4.8	2.00223E-001	2.77209E-006	0.00000E+000	2.00005E-001	0.00000E+000	9	...........	1425.95
	53	4.9	2.00223E-001	2.72087E-006	0.00000E+000	2.00005E-001	0.00000E+000	9	...........	1425.95
	54	5	2.00223E-001	2.68497E-006	0.00000E+000	2.00005E-001	0.00000E+000	9	...........	1425.95
	55	5.1	2.00223E-001	2.64880E-006	0.00000E+000	2.00005E-001	0.00000E+000	9	...........	1425.95
	56	5.2	2.00222E-001	2.60425E-006	0.00000E+000	2.00005E-001	0.00000E+000	9	...........	1425.95
	57	5.3	2.00221E-001	2.54382E-006	0.00000E+000	2.00005E-001	0.00000E+000	9	...........	1425.95
	58	5.4	2.00221E-001	2.50899E-006	0.00000E+000	2.00005E-001	0.00000E+000	9	...........	1425.95
	59	5.5	2.00223E-001	2.44172E-006	0.00000E+000	2.00005E-001	0.00000E+000	9	...........	1425.95
	60	5.6	2.00222E-001	2.39801E-006	0.00000E+000	2.00005E-001	0.00000E+000	9	...........	1425.95
	61	5.7	2.00221E-001	2.36020E-006	0.00000E+000	2.00005E-001	0.00000E+000	9	...........	1425.95
	62	5.8	2.00222E-001	2.30604E-006	0.00000E+000	2.00005E-001	0.00000E+000	9	...........	1425.95
	63	5.9	2.00222E-001	2.26190E-006	0.00000E+000	2.00005E-001	0.00000E+000	9	...........	1425.95
	64	6	2.00224E-001	2.22850E-006	0.00000E+000	2.00005E-001	0.00000E+000	9	...........	1425.95
	65	6.1	2.00221E-001	2.20120E-006	0.00000E+000	2.00005E-001	0.00000E+000	9	...........	1425.95
	66	7.1	2.00223E-001	1.95545E-006	0.00000E+000	2.00005E-001	0.00000E+000	9	...........	1425.95
	67	8.1	2.00222E-001	1.73239E-006	0.00000E+000	2.00005E-001	0.00000E+000	9	...........	1426.31
	68	9.1	2.00221E-001	1.41296E-006	0.00000E+000	2.00005E-001	0.00000E+000	9	...........	1426.31
	69	10.1	2.00223E-001	1.11995E-006	0.00000E+000	2.00005E-001	0.00000E+000	9	...........	1426.40
	70	11.1	2.00224E-001	9.52180E-007	0.00000E+000	2.00005E-001	0.00000E+000	9	...........	1426.31
	71	12.1	2.00222E-001	9.01027E-007	0.00000E+000	2.00005E-001	0.00000E+000	9	...........	1426.31
	72	13.1	2.00223E-001	8.89048E-007	0.00000E+000	2.00005E-001	0.00000E+000	9	...........	1426.31
	73	14.1	2.00223E-001	8.20244E-007	0.00000E+000	2.00005E-001	0.00000E+000	9	...........	1426.31
	74	15.1	2.00225E-001	7.85175E-007	0.00000E+000	2.00005E-001	0.00000E+000	9	...........	1426.31
	75	16.1	2.00224E-001	9.22149E-007	0.00000E+000	2.00005E-001	0.00000E+000	9	...........	1426.31
	76	26.1	2.00224E-001	3.16825E-007	0.00000E+000	2.00005E-001	0.00000E+000	9	...........	1426.31
	77	36.1	2.00223E-001	2.93614E-008	0.00000E+000	2.00005E-001	0.00000E+000	9	...........	1426.31
	78	46.1	2.00221E-001	2.44917E-007	0.00000E+000	2.00005E-001	0.00000E+000	9	...........	1426.31
	79	56.1	2.00223E-001	-1.56097E-007	0.00000E+000	2.00005E-001	0.00000E+000	9	...........	1426.31
	80	66.1	2.00222E-001	2.49755E-007	0.00000E+000	2.00005E-001	0.00000E+000	9	...........	1426.31
	81	76.1	2.00222E-001	-2.91703E-007	0.00000E+000	2.00005E-001	0.00000E+000	9	...........	1426.31
	82	86.1	2.00221E-001	1.77815E-007	0.00000E+000	2.00005E-001	0.00000E+000	9	...........	1426.31
	83	96.1	2.00225E-001	-2.06115E-007	0.00000E+000	2.00005E-001	0.00000E+000	9	...........	1426.31
	84	106.1	2.00222E-001	-3.08340E-008	0.00000E+000	2.00005E-001	0.00000E+000	9	...........	1426.40
	85	116.1	2.00223E-001	2.95616E-008	0.00000E+000	2.00005E-001	0.00000E+000	9	...........	1426.40
	86	216.1	2.00225E-001	-3.81596E-007	0.00000E+000	2.00005E-001	0.00000E+000	9	...........	1426.40
	87	300	2.00224E-001	-7.20099E-008	0.00000E+000	2.00005E-001	0.00000E+000	9	...........	1426.40
	88	300.1	3.00241E-001	2.01039E-004	0.00000E+000	3.00005E-001	0.00000E+000	9	...........	1426.40
	89	300.2	3.00205E-001	1.09776E-004	0.00000E+000	3.00005E-001	0.00000E+000	9	...........	1426.40
	90	300.3	3.00182E-001	7.83390E-005	0.00000E+000	3.00005E-001	0.00000E+000	9	...........	1426.40
	91	300.4	3.00189E-001	6.35280E-005	0.00000E+000	3.00005E-001	0.00000E+000	9	...........	1426.40
	92	300.5	3.00196E-001	5.51369E-005	0.00000E+000	3.00005E-001	0.00000E+000	9	...........	1426.40
	93	300.6	3.00197E-001	4.97313E-005	0.00000E+000	3.00005E-001	0.00000E+000	9	...........	1426.40
	94	300.7	3.00213E-001	4.59282E-005	0.00000E+000	3.00005E-001	0.00000E+000	9	...........	1426.40
	95	300.8	3.00194E-001	4.31185E-005	0.00000E+000	3.00005E-001	0.00000E+000	9	...........	1426.40
	96	300.9	3.00183E-001	4.08689E-005	0.00000E+000	3.00005E-001	0.00000E+000	9	...........	1426.40
	97	301	3.00199E-001	3.90556E-005	0.00000E+000	3.00005E-001	0.00000E+000	9	...........	1426.40
