EXPLAIN
TAG	CHRONOA
TITLE	LABEL	Chronoamperometry Scan	Test Identifier
DATE	LABEL	7/2/2022	Date
TIME	LABEL	17:56:04	Time
NOTES	NOTES	1	Notes...
	
PSTAT	PSTAT	IFC1010-21051	Potentiostat
VPRESTEP	POTEN	-7.00000E-001	F	Pre-step Voltage (V)
TPRESTEP	QUANT	5.00000E-001	Pre-step Delay Time (s)
VSTEP1	POTEN	-8.00000E-001	F	Step 1 Voltage (V)
TSTEP1	QUANT	3.00000E+002	Step 1 Time (s)
VSTEP2	POTEN	-7.00000E-001	F	Step 2 Voltage (V)
TSTEP2	QUANT	1.00000E+000	Step 2 Time (s)
SAMPLETIME	QUANT	1.00000E-001	Sample Period (s)
DECIMATE	TOGGLE	T	Decimate
ILIMIT	QUANT	1.00000E+000	Limit I (mA/cm^2)
IMODE	SELECTOR	1	I/E Range Mode
IRANGE	QUANT	3.00000E-001	Max Current (mA)
EQDELAY	QUANT	5.00000E+000	Equil. Time (s)
SAMPLINGMODE	SELECTOR	1	Sampling Mode
AREA	QUANT	1.00000E+000	Sample Area (cm^2)
IRCOMP	SELECTOR	0	IRComp
PFCOR	QUANT	5.00000E+001	PF Corr. (ohm)
SEQUENCER	TOGGLE	TRUE	Run as Sequence
PSTATMODEL	IQUANT	64	Pstat Model
PSTATSECTION	LABEL	IFC1010-21051	Pstat Section
PSTATSERIALNO	LABEL	21051	Pstat Serial Number
CTRLMODE	IQUANT	1	Control Mode
ELECTROMETER	IQUANT	0	RE=0 or CS=1
IESTAB	IQUANT	0	I/E Stability
CASPEED	IQUANT	4	Control Amp Speed
CONVENTION	IQUANT	1	Current Convention
ICHRANGE	IQUANT	2	Ich Range
ICHRANGEMODE	TOGGLE	T	Ich Auto Range
ICHOFFSETENABLE	TOGGLE	F	Ich Offset Enable
ICHOFFSET	QUANT	0	Ich Offset (V)
ICHFILTER	IQUANT	3	Ich Filter
VCHRANGE	IQUANT	3	Vch Range
VCHRANGEMODE	TOGGLE	T	Vch Auto Range
VCHOFFSETENABLE	TOGGLE	F	Vch Offset Enable
VCHOFFSET	QUANT	0	Vch Offset (V)
VCHFILTER	IQUANT	3	Vch Filter
IERANGELOWERLIMIT	IQUANT	4	I/E Range Lower Limit
IERANGEMODE	TOGGLE	F	I/E AutoRange
IERANGE	IQUANT	9	I/E Range
ACHSELECT	IQUANT	0	Ach Select
ACHRANGE	IQUANT	2	Ach Range
ACHOFFSETENABLE	TOGGLE	F	Ach Offset Enable
ACHOFFSET	QUANT	0	Ach Offset (V)
ACHFILTER	IQUANT	1	Ach Filter
SENSECABLEID	IQUANT	14	Sense Cable ID
PWRCABLEID	IQUANT	14	Power Cable ID
DCCALDATE	LABEL	1/24/2022	DC Calibration Date
ACCALDATE	LABEL	4/2/2018	AC Calibration Date
FRAMEWORKVERSION	QUANT	7.06	Framework Version
INSTRUMENTVERSION	LABEL	4.30	Instrument Version
CURVE	TABLE	98
	Pt	T	Vf	Im	Vu	Sig	Ach	IERange	Over	Temp
	#	s	V vs. Ref.	A	V	V	V	#	bits	deg C
	0	-0.4	-7.01774E-001	-1.46340E-004	0.00000E+000	-7.00083E-001	0.00000E+000	9	...........	1426.40
	1	-0.3	-7.01246E-001	-1.46025E-004	0.00000E+000	-7.00083E-001	0.00000E+000	9	...........	1426.40
	2	-0.2	-7.01243E-001	-1.45596E-004	0.00000E+000	-7.00083E-001	0.00000E+000	9	...........	1426.40
	3	-0.1	-7.01236E-001	-1.45218E-004	0.00000E+000	-7.00083E-001	0.00000E+000	9	...........	1426.40
	4	0	-7.01245E-001	-1.44879E-004	0.00000E+000	-7.00083E-001	0.00000E+000	9	...........	1426.40
	5	0.1	-8.01256E-001	-7.29673E-004	0.00000E+000	-8.00083E-001	0.00000E+000	9	...........	1426.31
	6	0.2	-8.01273E-001	-6.09452E-004	0.00000E+000	-8.00083E-001	0.00000E+000	9	...........	1426.31
	7	0.3	-8.01268E-001	-5.45042E-004	0.00000E+000	-8.00083E-001	0.00000E+000	9	...........	1426.31
	8	0.4	-8.01261E-001	-5.00466E-004	0.00000E+000	-8.00083E-001	0.00000E+000	9	...........	1426.31
	9	0.5	-8.01256E-001	-4.65782E-004	0.00000E+000	-8.00083E-001	0.00000E+000	9	...........	1426.31
	10	0.6	-8.01263E-001	-4.37459E-004	0.00000E+000	-8.00083E-001	0.00000E+000	9	...........	1426.31
	11	0.7	-8.01263E-001	-4.13287E-004	0.00000E+000	-8.00083E-001	0.00000E+000	9	...........	1426.31
	12	0.8	-8.01258E-001	-3.92187E-004	0.00000E+000	-8.00083E-001	0.00000E+000	9	...........	1426.31
	13	0.9	-8.01268E-001	-3.73914E-004	0.00000E+000	-8.00083E-001	0.00000E+000	9	...........	1426.31
	14	1	-8.01250E-001	-3.57483E-004	0.00000E+000	-8.00083E-001	0.00000E+000	9	...........	1426.31
	15	1.1	-8.01249E-001	-3.42860E-004	0.00000E+000	-8.00083E-001	0.00000E+000	9	...........	1425.87
	16	1.2	-8.01257E-001	-3.29974E-004	0.00000E+000	-8.00083E-001	0.00000E+000	9	...........	1425.87
	17	1.3	-8.01259E-001	-3.18029E-004	0.00000E+000	-8.00083E-001	0.00000E+000	9	...........	1425.87
	18	1.4	-8.01255E-001	-3.07270E-004	0.00000E+000	-8.00083E-001	0.00000E+000	9	...........	1425.87
	19	1.5	-8.01264E-001	-2.97492E-004	0.00000E+000	-8.00083E-001	0.00000E+000	9	...........	1425.87
	20	1.6	-8.01274E-001	-2.88382E-004	0.00000E+000	-8.00083E-001	0.00000E+000	9	...........	1425.87
	21	1.7	-8.01272E-001	-2.80278E-004	0.00000E+000	-8.00083E-001	0.00000E+000	9	...........	1425.87
	22	1.8	-8.01272E-001	-2.72589E-004	0.00000E+000	-8.00083E-001	0.00000E+000	9	...........	1425.87
	23	1.9	-8.01271E-001	-2.65690E-004	0.00000E+000	-8.00083E-001	0.00000E+000	9	...........	1425.87
	24	2	-8.01268E-001	-2.59201E-004	0.00000E+000	-8.00083E-001	0.00000E+000	9	...........	1425.87
	25	2.1	-8.01271E-001	-2.53205E-004	0.00000E+000	-8.00083E-001	0.00000E+000	9	...........	1426.04
	26	2.2	-8.01263E-001	-2.47674E-004	0.00000E+000	-8.00083E-001	0.00000E+000	9	...........	1426.04
	27	2.3	-8.01256E-001	-2.42474E-004	0.00000E+000	-8.00083E-001	0.00000E+000	9	...........	1426.04
	28	2.4	-8.01262E-001	-2.37536E-004	0.00000E+000	-8.00083E-001	0.00000E+000	9	...........	1426.04
	29	2.5	-8.01259E-001	-2.32998E-004	0.00000E+000	-8.00083E-001	0.00000E+000	9	...........	1426.04
	30	2.6	-8.01262E-001	-2.28928E-004	0.00000E+000	-8.00083E-001	0.00000E+000	9	...........	1426.04
	31	2.7	-8.01265E-001	-2.24964E-004	0.00000E+000	-8.00083E-001	0.00000E+000	9	...........	1426.04
	32	2.8	-8.01271E-001	-2.21279E-004	0.00000E+000	-8.00083E-001	0.00000E+000	9	...........	1426.04
	33	2.9	-8.01266E-001	-2.17742E-004	0.00000E+000	-8.00083E-001	0.00000E+000	9	...........	1426.04
	34	3	-8.01257E-001	-2.14455E-004	0.00000E+000	-8.00083E-001	0.00000E+000	9	...........	1426.04
	35	3.1	-8.01261E-001	-2.11463E-004	0.00000E+000	-8.00083E-001	0.00000E+000	9	...........	1426.31
	36	3.2	-8.01268E-001	-2.08489E-004	0.00000E+000	-8.00083E-001	0.00000E+000	9	...........	1426.31
	37	3.3	-8.01262E-001	-2.05890E-004	0.00000E+000	-8.00083E-001	0.00000E+000	9	...........	1426.31
	38	3.4	-8.01258E-001	-2.03235E-004	0.00000E+000	-8.00083E-001	0.00000E+000	9	...........	1426.31
	39	3.5	-8.01265E-001	-2.00901E-004	0.00000E+000	-8.00083E-001	0.00000E+000	9	...........	1426.31
	40	3.6	-8.01269E-001	-1.98569E-004	0.00000E+000	-8.00083E-001	0.00000E+000	9	...........	1426.31
	41	3.7	-8.01269E-001	-1.96405E-004	0.00000E+000	-8.00083E-001	0.00000E+000	9	...........	1426.31
	42	3.8	-8.01271E-001	-1.94340E-004	0.00000E+000	-8.00083E-001	0.00000E+000	9	...........	1426.31
	43	3.9	-8.01264E-001	-1.92417E-004	0.00000E+000	-8.00083E-001	0.00000E+000	9	...........	1426.31
	44	4	-8.01272E-001	-1.90428E-004	0.00000E+000	-8.00083E-001	0.00000E+000	9	...........	1426.31
	45	4.1	-8.01269E-001	-1.88794E-004	0.00000E+000	-8.00083E-001	0.00000E+000	9	...........	1426.31
	46	4.2	-8.01258E-001	-1.87132E-004	0.00000E+000	-8.00083E-001	0.00000E+000	9	...........	1426.31
	47	4.3	-8.01259E-001	-1.85527E-004	0.00000E+000	-8.00083E-001	0.00000E+000	9	...........	1426.31
	48	4.4	-8.01271E-001	-1.84086E-004	0.00000E+000	-8.00083E-001	0.00000E+000	9	...........	1426.31
	49	4.5	-8.01271E-001	-1.82710E-004	0.00000E+000	-8.00083E-001	0.00000E+000	9	...........	1426.31
	50	4.6	-8.01261E-001	-1.81258E-004	0.00000E+000	-8.00083E-001	0.00000E+000	9	...........	1426.31
	51	4.7	-8.01266E-001	-1.80063E-004	0.00000E+000	-8.00083E-001	0.00000E+000	9	...........	1426.31
	52	4.8	-8.01259E-001	-1.78732E-004	0.00000E+000	-8.00083E-001	0.00000E+000	9	...........	1426.31
	53	4.9	-8.01254E-001	-1.77653E-004	0.00000E+000	-8.00083E-001	0.00000E+000	9	...........	1426.31
	54	5	-8.01258E-001	-1.76480E-004	0.00000E+000	-8.00083E-001	0.00000E+000	9	...........	1426.31
	55	5.1	-8.01266E-001	-1.75331E-004	0.00000E+000	-8.00083E-001	0.00000E+000	9	...........	1425.87
	56	5.2	-8.01282E-001	-1.74316E-004	0.00000E+000	-8.00083E-001	0.00000E+000	9	...........	1425.87
	57	5.3	-8.01271E-001	-1.73314E-004	0.00000E+000	-8.00083E-001	0.00000E+000	9	...........	1425.87
	58	5.4	-8.01260E-001	-1.72312E-004	0.00000E+000	-8.00083E-001	0.00000E+000	9	...........	1425.87
	59	5.5	-8.01252E-001	-1.71397E-004	0.00000E+000	-8.00083E-001	0.00000E+000	9	...........	1425.87
	60	5.6	-8.01261E-001	-1.70539E-004	0.00000E+000	-8.00083E-001	0.00000E+000	9	...........	1425.87
	61	5.7	-8.01271E-001	-1.69538E-004	0.00000E+000	-8.00083E-001	0.00000E+000	9	...........	1425.87
	62	5.8	-8.01263E-001	-1.68873E-004	0.00000E+000	-8.00083E-001	0.00000E+000	9	...........	1425.87
	63	5.9	-8.01265E-001	-1.68079E-004	0.00000E+000	-8.00083E-001	0.00000E+000	9	...........	1425.87
	64	6	-8.01264E-001	-1.67387E-004	0.00000E+000	-8.00083E-001	0.00000E+000	9	...........	1425.87
	65	6.1	-8.01268E-001	-1.66559E-004	0.00000E+000	-8.00083E-001	0.00000E+000	9	...........	1425.87
	66	7.1	-8.01274E-001	-1.60582E-004	0.00000E+000	-8.00083E-001	0.00000E+000	9	...........	1425.87
	67	8.1	-8.01262E-001	-1.56200E-004	0.00000E+000	-8.00083E-001	0.00000E+000	9	...........	1426.31
	68	9.1	-8.01271E-001	-1.53004E-004	0.00000E+000	-8.00083E-001	0.00000E+000	9	...........	1426.31
	69	10.1	-8.01271E-001	-1.50563E-004	0.00000E+000	-8.00083E-001	0.00000E+000	9	...........	1426.31
	70	11.1	-8.01262E-001	-1.48331E-004	0.00000E+000	-8.00083E-001	0.00000E+000	9	...........	1426.31
	71	12.1	-8.01256E-001	-1.46560E-004	0.00000E+000	-8.00083E-001	0.00000E+000	9	...........	1426.31
	72	13.1	-8.01267E-001	-1.45104E-004	0.00000E+000	-8.00083E-001	0.00000E+000	9	...........	1426.31
	73	14.1	-8.01271E-001	-1.44049E-004	0.00000E+000	-8.00083E-001	0.00000E+000	9	...........	1426.31
	74	15.1	-8.01263E-001	-1.43205E-004	0.00000E+000	-8.00083E-001	0.00000E+000	9	...........	1426.31
	75	16.1	-8.01260E-001	-1.42310E-004	0.00000E+000	-8.00083E-001	0.00000E+000	9	...........	1426.31
	76	26.1	-8.01277E-001	-1.37699E-004	0.00000E+000	-8.00083E-001	0.00000E+000	9	...........	1426.31
	77	36.1	-8.01256E-001	-1.35171E-004	0.00000E+000	-8.00083E-001	0.00000E+000	9	...........	1426.31
	78	46.1	-8.01267E-001	-1.34173E-004	0.00000E+000	-8.00083E-001	0.00000E+000	9	...........	1426.31
	79	56.1	-8.01260E-001	-1.33735E-004	0.00000E+000	-8.00083E-001	0.00000E+000	9	...........	1426.31
	80	66.1	-8.01264E-001	-1.34008E-004	0.00000E+000	-8.00083E-001	0.00000E+000	9	...........	1426.31
	81	76.1	-8.01268E-001	-1.33208E-004	0.00000E+000	-8.00083E-001	0.00000E+000	9	...........	1426.40
	82	86.1	-8.01258E-001	-1.32929E-004	0.00000E+000	-8.00083E-001	0.00000E+000	9	...........	1426.40
	83	96.1	-8.01269E-001	-1.33782E-004	0.00000E+000	-8.00083E-001	0.00000E+000	9	...........	1426.40
	84	106.1	-8.01279E-001	-1.33584E-004	0.00000E+000	-8.00083E-001	0.00000E+000	9	...........	1426.31
	85	116.1	-8.01271E-001	-1.33088E-004	0.00000E+000	-8.00083E-001	0.00000E+000	9	...........	1426.31
	86	216.1	-8.01264E-001	-1.36402E-004	0.00000E+000	-8.00083E-001	0.00000E+000	9	...........	1426.31
	87	300	-8.01262E-001	-1.40501E-004	0.00000E+000	-8.00083E-001	0.00000E+000	9	...........	1426.31
	88	300.1	-7.01249E-001	3.54330E-004	0.00000E+000	-7.00083E-001	0.00000E+000	9	...........	1426.31
	89	300.2	-7.01240E-001	2.10741E-004	0.00000E+000	-7.00083E-001	0.00000E+000	9	...........	1426.31
	90	300.3	-7.01244E-001	1.28905E-004	0.00000E+000	-7.00083E-001	0.00000E+000	9	...........	1426.31
	91	300.4	-7.01246E-001	7.62793E-005	0.00000E+000	-7.00083E-001	0.00000E+000	9	...........	1426.31
	92	300.5	-7.01249E-001	4.01160E-005	0.00000E+000	-7.00083E-001	0.00000E+000	9	...........	1426.31
	93	300.6	-7.01242E-001	1.42850E-005	0.00000E+000	-7.00083E-001	0.00000E+000	9	...........	1426.31
	94	300.7	-7.01242E-001	-5.19902E-006	0.00000E+000	-7.00083E-001	0.00000E+000	9	...........	1426.31
	95	300.8	-7.01243E-001	-2.01253E-005	0.00000E+000	-7.00083E-001	0.00000E+000	9	...........	1426.31
	96	300.9	-7.01231E-001	-3.18517E-005	0.00000E+000	-7.00083E-001	0.00000E+000	9	...........	1426.31
	97	301	-7.01239E-001	-4.14174E-005	0.00000E+000	-7.00083E-001	0.00000E+000	9	...........	1426.31
