EXPLAIN
TAG	CHRONOA
TITLE	LABEL	Chronoamperometry Scan	Test Identifier
DATE	LABEL	7/2/2022	Date
TIME	LABEL	17:39:38	Time
NOTES	NOTES	1	Notes...
	
PSTAT	PSTAT	IFC1010-21051	Potentiostat
VPRESTEP	POTEN	1.00000E-001	F	Pre-step Voltage (V)
TPRESTEP	QUANT	5.00000E-001	Pre-step Delay Time (s)
VSTEP1	POTEN	0.00000E+000	F	Step 1 Voltage (V)
TSTEP1	QUANT	6.00000E+001	Step 1 Time (s)
VSTEP2	POTEN	1.00000E-001	F	Step 2 Voltage (V)
TSTEP2	QUANT	1.00000E+000	Step 2 Time (s)
SAMPLETIME	QUANT	1.00000E-002	Sample Period (s)
DECIMATE	TOGGLE	T	Decimate
ILIMIT	QUANT	1.00000E+000	Limit I (mA/cm^2)
IMODE	SELECTOR	1	I/E Range Mode
IRANGE	QUANT	3.00000E-001	Max Current (mA)
EQDELAY	QUANT	5.00000E+000	Equil. Time (s)
SAMPLINGMODE	SELECTOR	1	Sampling Mode
AREA	QUANT	1.00000E+000	Sample Area (cm^2)
IRCOMP	SELECTOR	0	IRComp
PFCOR	QUANT	5.00000E+001	PF Corr. (ohm)
SEQUENCER	TOGGLE	TRUE	Run as Sequence
PSTATMODEL	IQUANT	64	Pstat Model
PSTATSECTION	LABEL	IFC1010-21051	Pstat Section
PSTATSERIALNO	LABEL	21051	Pstat Serial Number
CTRLMODE	IQUANT	1	Control Mode
ELECTROMETER	IQUANT	0	RE=0 or CS=1
IESTAB	IQUANT	0	I/E Stability
CASPEED	IQUANT	4	Control Amp Speed
CONVENTION	IQUANT	1	Current Convention
ICHRANGE	IQUANT	2	Ich Range
ICHRANGEMODE	TOGGLE	T	Ich Auto Range
ICHOFFSETENABLE	TOGGLE	F	Ich Offset Enable
ICHOFFSET	QUANT	0	Ich Offset (V)
ICHFILTER	IQUANT	3	Ich Filter
VCHRANGE	IQUANT	3	Vch Range
VCHRANGEMODE	TOGGLE	T	Vch Auto Range
VCHOFFSETENABLE	TOGGLE	F	Vch Offset Enable
VCHOFFSET	QUANT	0	Vch Offset (V)
VCHFILTER	IQUANT	3	Vch Filter
IERANGELOWERLIMIT	IQUANT	4	I/E Range Lower Limit
IERANGEMODE	TOGGLE	F	I/E AutoRange
IERANGE	IQUANT	9	I/E Range
ACHSELECT	IQUANT	0	Ach Select
ACHRANGE	IQUANT	2	Ach Range
ACHOFFSETENABLE	TOGGLE	F	Ach Offset Enable
ACHOFFSET	QUANT	0	Ach Offset (V)
ACHFILTER	IQUANT	1	Ach Filter
SENSECABLEID	IQUANT	14	Sense Cable ID
PWRCABLEID	IQUANT	14	Power Cable ID
DCCALDATE	LABEL	1/24/2022	DC Calibration Date
ACCALDATE	LABEL	4/2/2018	AC Calibration Date
FRAMEWORKVERSION	QUANT	7.06	Framework Version
INSTRUMENTVERSION	LABEL	4.30	Instrument Version
CURVE	TABLE	201
	Pt	T	Vf	Im	Vu	Sig	Ach	IERange	Over	Temp
	#	s	V vs. Ref.	A	V	V	V	#	bits	deg C
	0	-0.49	9.91341E-002	-1.04891E-004	0.00000E+000	9.99387E-002	0.00000E+000	9	...........	1426.31
	1	-0.48	9.97793E-002	-1.04251E-004	0.00000E+000	9.99387E-002	0.00000E+000	9	...........	1426.31
	2	-0.47	9.99510E-002	-1.04740E-004	0.00000E+000	9.99387E-002	0.00000E+000	9	...........	1426.31
	3	-0.46	9.99446E-002	-1.04075E-004	0.00000E+000	9.99387E-002	0.00000E+000	9	...........	1426.31
	4	-0.45	9.99510E-002	-1.04560E-004	0.00000E+000	9.99387E-002	0.00000E+000	9	...........	1426.31
	5	-0.44	9.99464E-002	-1.03879E-004	0.00000E+000	9.99387E-002	0.00000E+000	9	...........	1426.31
	6	-0.43	9.99519E-002	-1.04373E-004	0.00000E+000	9.99387E-002	0.00000E+000	9	...........	1426.31
	7	-0.42	9.99449E-002	-1.03706E-004	0.00000E+000	9.99387E-002	0.00000E+000	9	...........	1426.31
	8	-0.41	9.99466E-002	-1.04210E-004	0.00000E+000	9.99387E-002	0.00000E+000	9	...........	1426.31
	9	-0.4	9.99529E-002	-1.03523E-004	0.00000E+000	9.99387E-002	0.00000E+000	9	...........	1426.31
	10	-0.39	9.99544E-002	-1.04048E-004	0.00000E+000	9.99387E-002	0.00000E+000	9	...........	1426.31
	11	-0.38	9.99510E-002	-1.03352E-004	0.00000E+000	9.99387E-002	0.00000E+000	9	...........	1426.31
	12	-0.37	9.99535E-002	-1.03895E-004	0.00000E+000	9.99387E-002	0.00000E+000	9	...........	1426.31
	13	-0.36	9.99500E-002	-1.03179E-004	0.00000E+000	9.99387E-002	0.00000E+000	9	...........	1426.31
	14	-0.35	9.99520E-002	-1.03702E-004	0.00000E+000	9.99387E-002	0.00000E+000	9	...........	1426.31
	15	-0.34	9.99469E-002	-1.02995E-004	0.00000E+000	9.99387E-002	0.00000E+000	9	...........	1426.31
	16	-0.33	9.99484E-002	-1.03557E-004	0.00000E+000	9.99387E-002	0.00000E+000	9	...........	1426.31
	17	-0.32	9.99490E-002	-1.02810E-004	0.00000E+000	9.99387E-002	0.00000E+000	9	...........	1426.31
	18	-0.31	9.99489E-002	-1.03367E-004	0.00000E+000	9.99387E-002	0.00000E+000	9	...........	1426.31
	19	-0.3	9.99470E-002	-1.02620E-004	0.00000E+000	9.99387E-002	0.00000E+000	9	...........	1426.31
	20	-0.29	9.99511E-002	-1.03222E-004	0.00000E+000	9.99387E-002	0.00000E+000	9	...........	1426.31
	21	-0.28	9.99507E-002	-1.02434E-004	0.00000E+000	9.99387E-002	0.00000E+000	9	...........	1426.31
	22	-0.27	9.99549E-002	-1.03025E-004	0.00000E+000	9.99387E-002	0.00000E+000	9	...........	1426.31
	23	-0.26	9.99486E-002	-1.02282E-004	0.00000E+000	9.99387E-002	0.00000E+000	9	...........	1426.31
	24	-0.25	9.99494E-002	-1.02878E-004	0.00000E+000	9.99387E-002	0.00000E+000	9	...........	1426.31
	25	-0.24	9.99449E-002	-1.02096E-004	0.00000E+000	9.99387E-002	0.00000E+000	9	...........	1426.31
	26	-0.23	9.99499E-002	-1.02677E-004	0.00000E+000	9.99387E-002	0.00000E+000	9	...........	1426.31
	27	-0.22	9.99476E-002	-1.01859E-004	0.00000E+000	9.99387E-002	0.00000E+000	9	...........	1426.31
	28	-0.21	9.99515E-002	-1.02506E-004	0.00000E+000	9.99387E-002	0.00000E+000	9	...........	1426.31
	29	-0.2	9.99504E-002	-1.01690E-004	0.00000E+000	9.99387E-002	0.00000E+000	9	...........	1426.31
	30	-0.19	9.99535E-002	-1.02327E-004	0.00000E+000	9.99387E-002	0.00000E+000	9	...........	1426.31
	31	-0.18	9.99484E-002	-1.01528E-004	0.00000E+000	9.99387E-002	0.00000E+000	9	...........	1426.31
	32	-0.17	9.99512E-002	-1.02163E-004	0.00000E+000	9.99387E-002	0.00000E+000	9	...........	1426.31
	33	-0.16	9.99485E-002	-1.01334E-004	0.00000E+000	9.99387E-002	0.00000E+000	9	...........	1426.31
	34	-0.15	9.99539E-002	-1.01990E-004	0.00000E+000	9.99387E-002	0.00000E+000	9	...........	1426.31
	35	-0.14	9.99457E-002	-1.01162E-004	0.00000E+000	9.99387E-002	0.00000E+000	9	...........	1426.31
	36	-0.13	9.99490E-002	-1.01818E-004	0.00000E+000	9.99387E-002	0.00000E+000	9	...........	1426.31
	37	-0.12	9.99487E-002	-1.00942E-004	0.00000E+000	9.99387E-002	0.00000E+000	9	...........	1426.31
	38	-0.11	9.99532E-002	-1.01638E-004	0.00000E+000	9.99387E-002	0.00000E+000	9	...........	1426.31
	39	-0.1	9.99490E-002	-1.00771E-004	0.00000E+000	9.99387E-002	0.00000E+000	9	...........	1426.31
	40	-0.09	9.99491E-002	-1.01467E-004	0.00000E+000	9.99387E-002	0.00000E+000	9	...........	1426.31
	41	-0.08	9.99500E-002	-1.00579E-004	0.00000E+000	9.99387E-002	0.00000E+000	9	...........	1426.31
	42	-0.07	9.99527E-002	-1.01305E-004	0.00000E+000	9.99387E-002	0.00000E+000	9	...........	1426.31
	43	-0.06	9.99520E-002	-1.00369E-004	0.00000E+000	9.99387E-002	0.00000E+000	9	...........	1426.31
	44	-0.05	9.99511E-002	-1.01124E-004	0.00000E+000	9.99387E-002	0.00000E+000	9	...........	1426.31
	45	-0.04	9.99466E-002	-1.00213E-004	0.00000E+000	9.99387E-002	0.00000E+000	9	...........	1426.31
	46	-0.03	9.99515E-002	-1.00964E-004	0.00000E+000	9.99387E-002	0.00000E+000	9	...........	1426.31
	47	-0.02	9.99500E-002	-1.00008E-004	0.00000E+000	9.99387E-002	0.00000E+000	9	...........	1426.31
	48	-0.01	9.99530E-002	-1.00783E-004	0.00000E+000	9.99387E-002	0.00000E+000	9	...........	1426.31
	49	0	9.99491E-002	-9.98284E-005	0.00000E+000	9.99387E-002	0.00000E+000	9	...........	1426.31
	50	0.01	-6.70359E-005	-7.31884E-004	0.00000E+000	-6.08154E-005	0.00000E+000	9	...........	1426.31
	51	0.02	-5.88328E-005	-6.52316E-004	0.00000E+000	-6.08154E-005	0.00000E+000	9	...........	1426.31
	52	0.03	-5.46693E-005	-5.97739E-004	0.00000E+000	-6.08154E-005	0.00000E+000	9	...........	1426.31
	53	0.04	-5.65717E-005	-5.52103E-004	0.00000E+000	-6.08154E-005	0.00000E+000	9	...........	1426.31
	54	0.05	-5.37599E-005	-5.15697E-004	0.00000E+000	-6.08154E-005	0.00000E+000	9	...........	1426.31
	55	0.06	-5.92666E-005	-4.83105E-004	0.00000E+000	-6.08154E-005	0.00000E+000	9	...........	1426.31
	56	0.07	-5.46026E-005	-4.56838E-004	0.00000E+000	-6.08154E-005	0.00000E+000	9	...........	1426.31
	57	0.08	-5.66384E-005	-4.32305E-004	0.00000E+000	-6.08154E-005	0.00000E+000	9	...........	1426.31
	58	0.09	-5.29756E-005	-4.12665E-004	0.00000E+000	-6.08154E-005	0.00000E+000	9	...........	1426.31
	59	0.1	-5.89162E-005	-3.93623E-004	0.00000E+000	-6.08154E-005	0.00000E+000	9	...........	1426.31
	60	0.11	-5.65216E-005	-3.78610E-004	0.00000E+000	-6.08154E-005	0.00000E+000	9	...........	1426.31
	61	0.12	-5.68720E-005	-3.63420E-004	0.00000E+000	-6.08154E-005	0.00000E+000	9	...........	1426.31
	62	0.13	-5.21829E-005	-3.51750E-004	0.00000E+000	-6.08154E-005	0.00000E+000	9	...........	1426.31
	63	0.14	-5.61795E-005	-3.39401E-004	0.00000E+000	-6.08154E-005	0.00000E+000	9	...........	1426.31
	64	0.15	-5.28004E-005	-3.30257E-004	0.00000E+000	-6.08154E-005	0.00000E+000	9	...........	1426.31
	65	0.16	-5.51866E-005	-3.20028E-004	0.00000E+000	-6.08154E-005	0.00000E+000	9	...........	1426.31
	66	0.17	-5.65967E-005	-3.12805E-004	0.00000E+000	-6.08154E-005	0.00000E+000	9	...........	1426.31
	67	0.18	-5.42104E-005	-3.04176E-004	0.00000E+000	-6.08154E-005	0.00000E+000	9	...........	1426.31
	68	0.19	-5.44691E-005	-2.98351E-004	0.00000E+000	-6.08154E-005	0.00000E+000	9	...........	1426.31
	69	0.2	-5.87493E-005	-2.91026E-004	0.00000E+000	-6.08154E-005	0.00000E+000	9	...........	1426.31
	70	0.21	-5.36347E-005	-2.86309E-004	0.00000E+000	-6.08154E-005	0.00000E+000	9	...........	1426.31
	71	0.22	-5.39434E-005	-2.79911E-004	0.00000E+000	-6.08154E-005	0.00000E+000	9	...........	1426.31
	72	0.23	-5.43523E-005	-2.76088E-004	0.00000E+000	-6.08154E-005	0.00000E+000	9	...........	1426.31
	73	0.24	-5.68053E-005	-2.70486E-004	0.00000E+000	-6.08154E-005	0.00000E+000	9	...........	1426.31
	74	0.25	-5.50531E-005	-2.67365E-004	0.00000E+000	-6.08154E-005	0.00000E+000	9	...........	1426.31
	75	0.26	-5.35596E-005	-2.62300E-004	0.00000E+000	-6.08154E-005	0.00000E+000	9	...........	1426.31
	76	0.27	-5.21162E-005	-2.59740E-004	0.00000E+000	-6.08154E-005	0.00000E+000	9	...........	1426.31
	77	0.28	-5.44440E-005	-2.55178E-004	0.00000E+000	-6.08154E-005	0.00000E+000	9	...........	1426.31
	78	0.29	-5.40853E-005	-2.53088E-004	0.00000E+000	-6.08154E-005	0.00000E+000	9	...........	1426.31
	79	0.3	-5.67552E-005	-2.48910E-004	0.00000E+000	-6.08154E-005	0.00000E+000	9	...........	1426.31
	80	0.31	-5.15405E-005	-2.47185E-004	0.00000E+000	-6.08154E-005	0.00000E+000	9	...........	1426.31
	81	0.32	-5.42021E-005	-2.43328E-004	0.00000E+000	-6.08154E-005	0.00000E+000	9	...........	1426.31
	82	0.33	-5.25083E-005	-2.41901E-004	0.00000E+000	-6.08154E-005	0.00000E+000	9	...........	1426.31
	83	0.34	-5.88662E-005	-2.38307E-004	0.00000E+000	-6.08154E-005	0.00000E+000	9	...........	1426.31
	84	0.35	-5.07896E-005	-2.37141E-004	0.00000E+000	-6.08154E-005	0.00000E+000	9	...........	1426.31
	85	0.36	-5.31341E-005	-2.33732E-004	0.00000E+000	-6.08154E-005	0.00000E+000	9	...........	1426.31
	86	0.37	-5.33093E-005	-2.32812E-004	0.00000E+000	-6.08154E-005	0.00000E+000	9	...........	1426.31
	87	0.38	-5.42188E-005	-2.29599E-004	0.00000E+000	-6.08154E-005	0.00000E+000	9	...........	1426.31
	88	0.39	-5.17407E-005	-2.28837E-004	0.00000E+000	-6.08154E-005	0.00000E+000	9	...........	1426.31
	89	0.4	-5.43272E-005	-2.25793E-004	0.00000E+000	-6.08154E-005	0.00000E+000	9	...........	1426.31
	90	0.41	-5.30256E-005	-2.25198E-004	0.00000E+000	-6.08154E-005	0.00000E+000	9	...........	1426.31
	91	0.42	-5.74227E-005	-2.22275E-004	0.00000E+000	-6.08154E-005	0.00000E+000	9	...........	1426.31
	92	0.43	-5.44190E-005	-2.21798E-004	0.00000E+000	-6.08154E-005	0.00000E+000	9	...........	1426.31
	93	0.44	-5.53702E-005	-2.18976E-004	0.00000E+000	-6.08154E-005	0.00000E+000	9	...........	1426.31
	94	0.45	-5.16656E-005	-2.18639E-004	0.00000E+000	-6.08154E-005	0.00000E+000	9	...........	1426.31
	95	0.46	-5.46777E-005	-2.15880E-004	0.00000E+000	-6.08154E-005	0.00000E+000	9	...........	1426.31
	96	0.47	-5.03390E-005	-2.15635E-004	0.00000E+000	-6.08154E-005	0.00000E+000	9	...........	1426.31
	97	0.48	-5.46443E-005	-2.12988E-004	0.00000E+000	-6.08154E-005	0.00000E+000	9	...........	1426.31
	98	0.49	-5.16406E-005	-2.12888E-004	0.00000E+000	-6.08154E-005	0.00000E+000	9	...........	1426.31
	99	0.5	-5.76396E-005	-2.10306E-004	0.00000E+000	-6.08154E-005	0.00000E+000	9	...........	1426.31
	100	0.51	-5.41770E-005	-2.10215E-004	0.00000E+000	-6.08154E-005	0.00000E+000	9	...........	1426.31
	101	0.52	-5.56122E-005	-2.07685E-004	0.00000E+000	-6.08154E-005	0.00000E+000	9	...........	1426.31
	102	0.53	-5.18575E-005	-2.07723E-004	0.00000E+000	-6.08154E-005	0.00000E+000	9	...........	1426.31
	103	0.54	-5.51032E-005	-2.05199E-004	0.00000E+000	-6.08154E-005	0.00000E+000	9	...........	1426.31
	104	0.55	-5.45692E-005	-2.05324E-004	0.00000E+000	-6.08154E-005	0.00000E+000	9	...........	1426.31
	105	0.56	-5.85491E-005	-2.02886E-004	0.00000E+000	-6.08154E-005	0.00000E+000	9	...........	1426.31
	106	0.57	-5.38350E-005	-2.03023E-004	0.00000E+000	-6.08154E-005	0.00000E+000	9	...........	1426.04
	107	0.58	-5.67302E-005	-2.00597E-004	0.00000E+000	-6.08154E-005	0.00000E+000	9	...........	1426.04
	108	0.59	-5.47611E-005	-2.00836E-004	0.00000E+000	-6.08154E-005	0.00000E+000	9	...........	1426.04
	109	0.6	-5.48612E-005	-1.98424E-004	0.00000E+000	-6.08154E-005	0.00000E+000	9	...........	1426.04
	110	0.61	-5.38350E-005	-1.98714E-004	0.00000E+000	-6.08154E-005	0.00000E+000	9	...........	1426.04
	111	0.71	-4.86703E-005	-1.89054E-004	0.00000E+000	-6.08154E-005	0.00000E+000	9	...........	1426.04
	112	0.81	-5.48278E-005	-1.80626E-004	0.00000E+000	-6.08154E-005	0.00000E+000	9	...........	1426.04
	113	0.91	-5.13819E-005	-1.72877E-004	0.00000E+000	-6.08154E-005	0.00000E+000	9	...........	1426.04
	114	1.01	-5.08563E-005	-1.65713E-004	0.00000E+000	-6.08154E-005	0.00000E+000	9	...........	1426.04
	115	1.11	-5.55204E-005	-1.59007E-004	0.00000E+000	-6.08154E-005	0.00000E+000	9	...........	1426.04
	116	1.21	-5.32259E-005	-1.52651E-004	0.00000E+000	-6.08154E-005	0.00000E+000	9	...........	1426.04
	117	1.31	-5.48863E-005	-1.46662E-004	0.00000E+000	-6.08154E-005	0.00000E+000	9	...........	1426.04
	118	1.41	-5.14904E-005	-1.40976E-004	0.00000E+000	-6.08154E-005	0.00000E+000	9	...........	1426.04
	119	1.51	-5.43272E-005	-1.35632E-004	0.00000E+000	-6.08154E-005	0.00000E+000	9	...........	1426.04
	120	1.61	-5.29923E-005	-1.30622E-004	0.00000E+000	-6.08154E-005	0.00000E+000	9	...........	1426.04
	121	2.61	-5.51199E-005	-9.49378E-005	0.00000E+000	-6.08154E-005	0.00000E+000	9	...........	1426.57
	122	3.61	-5.59793E-005	-7.57093E-005	0.00000E+000	-6.08154E-005	0.00000E+000	9	...........	1426.57
	123	4.61	-5.58291E-005	-6.40768E-005	0.00000E+000	-6.08154E-005	0.00000E+000	9	...........	1426.57
	124	5.61	-5.66468E-005	-5.62120E-005	0.00000E+000	-6.08154E-005	0.00000E+000	9	...........	1426.57
	125	6.61	-5.57707E-005	-5.04436E-005	0.00000E+000	-6.08154E-005	0.00000E+000	9	...........	1426.57
	126	7.61	-5.60043E-005	-4.60460E-005	0.00000E+000	-6.08154E-005	0.00000E+000	9	...........	1426.66
	127	8.61	-5.60711E-005	-4.24603E-005	0.00000E+000	-6.08154E-005	0.00000E+000	9	...........	1426.66
	128	9.61	-5.78816E-005	-3.95773E-005	0.00000E+000	-6.08154E-005	0.00000E+000	9	...........	1426.66
	129	10.61	-5.61628E-005	-3.71632E-005	0.00000E+000	-6.08154E-005	0.00000E+000	9	...........	1426.66
	130	11.61	-5.82904E-005	-3.51595E-005	0.00000E+000	-6.08154E-005	0.00000E+000	9	...........	1426.66
	131	21.61	-5.33093E-005	-2.17884E-005	0.00000E+000	-6.08154E-005	0.00000E+000	9	...........	1426.57
	132	31.61	-5.98173E-005	-1.68492E-005	0.00000E+000	-6.08154E-005	0.00000E+000	9	...........	1426.57
	133	41.61	-5.75896E-005	-1.37240E-005	0.00000E+000	-6.08154E-005	0.00000E+000	9	...........	1426.57
	134	51.61	-5.55204E-005	-1.51174E-005	0.00000E+000	-6.08154E-005	0.00000E+000	9	...........	1426.57
	135	60	-5.99008E-005	-1.11644E-005	0.00000E+000	-6.08154E-005	0.00000E+000	9	...........	1426.49
	136	60.01	3.26887E-002	6.23909E-004	0.00000E+000	9.99387E-002	0.00000E+000	9	.........v.	1426.49
	137	60.02	9.87900E-002	5.24669E-004	0.00000E+000	9.99387E-002	0.00000E+000	9	...........	1426.49
	138	60.03	9.97351E-002	4.55161E-004	0.00000E+000	9.99387E-002	0.00000E+000	9	...........	1426.49
	139	60.04	9.98986E-002	4.04220E-004	0.00000E+000	9.99387E-002	0.00000E+000	9	...........	1426.49
	140	60.05	9.99260E-002	3.56522E-004	0.00000E+000	9.99387E-002	0.00000E+000	9	...........	1426.49
	141	60.06	9.99334E-002	3.20774E-004	0.00000E+000	9.99387E-002	0.00000E+000	9	...........	1426.49
	142	60.07	9.99423E-002	2.84977E-004	0.00000E+000	9.99387E-002	0.00000E+000	9	...........	1426.49
	143	60.08	9.99459E-002	2.58881E-004	0.00000E+000	9.99387E-002	0.00000E+000	9	...........	1426.49
	144	60.09	9.99470E-002	2.31137E-004	0.00000E+000	9.99387E-002	0.00000E+000	9	...........	1426.49
	145	60.1	9.99482E-002	2.11864E-004	0.00000E+000	9.99387E-002	0.00000E+000	9	...........	1426.49
	146	60.11	9.99504E-002	1.89950E-004	0.00000E+000	9.99387E-002	0.00000E+000	9	...........	1426.49
	147	60.12	9.99496E-002	1.75616E-004	0.00000E+000	9.99387E-002	0.00000E+000	9	...........	1426.49
	148	60.13	9.99523E-002	1.58019E-004	0.00000E+000	9.99387E-002	0.00000E+000	9	...........	1426.49
	149	60.14	9.99488E-002	1.47421E-004	0.00000E+000	9.99387E-002	0.00000E+000	9	...........	1426.49
	150	60.15	9.99503E-002	1.33029E-004	0.00000E+000	9.99387E-002	0.00000E+000	9	...........	1426.49
	151	60.16	9.99518E-002	1.25247E-004	0.00000E+000	9.99387E-002	0.00000E+000	9	...........	1426.49
	152	60.17	9.99526E-002	1.13273E-004	0.00000E+000	9.99387E-002	0.00000E+000	9	...........	1426.49
	153	60.18	9.99510E-002	1.07602E-004	0.00000E+000	9.99387E-002	0.00000E+000	9	...........	1426.49
	154	60.19	9.99517E-002	9.75186E-005	0.00000E+000	9.99387E-002	0.00000E+000	9	...........	1426.49
	155	60.2	9.99504E-002	9.34774E-005	0.00000E+000	9.99387E-002	0.00000E+000	9	...........	1426.49
	156	60.21	9.99516E-002	8.48438E-005	0.00000E+000	9.99387E-002	0.00000E+000	9	...........	1426.49
	157	60.22	9.99490E-002	8.20740E-005	0.00000E+000	9.99387E-002	0.00000E+000	9	...........	1426.49
	158	60.23	9.99482E-002	7.45482E-005	0.00000E+000	9.99387E-002	0.00000E+000	9	...........	1426.49
	159	60.24	9.99469E-002	7.27872E-005	0.00000E+000	9.99387E-002	0.00000E+000	9	...........	1426.49
	160	60.25	9.99495E-002	6.61045E-005	0.00000E+000	9.99387E-002	0.00000E+000	9	...........	1426.49
	161	60.26	9.99530E-002	6.51557E-005	0.00000E+000	9.99387E-002	0.00000E+000	9	...........	1426.49
	162	60.27	9.99485E-002	5.91545E-005	0.00000E+000	9.99387E-002	0.00000E+000	9	...........	1426.49
	163	60.28	9.99514E-002	5.88153E-005	0.00000E+000	9.99387E-002	0.00000E+000	9	...........	1426.49
	164	60.29	9.99511E-002	5.33808E-005	0.00000E+000	9.99387E-002	0.00000E+000	9	...........	1426.49
	165	60.3	9.99512E-002	5.34965E-005	0.00000E+000	9.99387E-002	0.00000E+000	9	...........	1426.49
	166	60.31	9.99492E-002	4.85024E-005	0.00000E+000	9.99387E-002	0.00000E+000	9	...........	1426.49
	167	60.32	9.99494E-002	4.90152E-005	0.00000E+000	9.99387E-002	0.00000E+000	9	...........	1426.49
	168	60.33	9.99498E-002	4.43979E-005	0.00000E+000	9.99387E-002	0.00000E+000	9	...........	1426.49
	169	60.34	9.99494E-002	4.52346E-005	0.00000E+000	9.99387E-002	0.00000E+000	9	...........	1426.49
	170	60.35	9.99478E-002	4.08687E-005	0.00000E+000	9.99387E-002	0.00000E+000	9	...........	1426.49
	171	60.36	9.99460E-002	4.19509E-005	0.00000E+000	9.99387E-002	0.00000E+000	9	...........	1426.49
	172	60.37	9.99511E-002	3.78398E-005	0.00000E+000	9.99387E-002	0.00000E+000	9	...........	1426.49
	173	60.38	9.99482E-002	3.91692E-005	0.00000E+000	9.99387E-002	0.00000E+000	9	...........	1426.49
	174	60.39	9.99488E-002	3.52329E-005	0.00000E+000	9.99387E-002	0.00000E+000	9	...........	1426.49
	175	60.4	9.99480E-002	3.66972E-005	0.00000E+000	9.99387E-002	0.00000E+000	9	...........	1426.49
	176	60.41	9.99484E-002	3.29205E-005	0.00000E+000	9.99387E-002	0.00000E+000	9	...........	1426.49
	177	60.42	9.99502E-002	3.45508E-005	0.00000E+000	9.99387E-002	0.00000E+000	9	...........	1426.49
	178	60.43	9.99516E-002	3.08951E-005	0.00000E+000	9.99387E-002	0.00000E+000	9	...........	1426.49
	179	60.44	9.99451E-002	3.26077E-005	0.00000E+000	9.99387E-002	0.00000E+000	9	...........	1426.49
	180	60.45	9.99487E-002	2.90902E-005	0.00000E+000	9.99387E-002	0.00000E+000	9	...........	1426.49
	181	60.46	9.99504E-002	3.09571E-005	0.00000E+000	9.99387E-002	0.00000E+000	9	...........	1426.49
	182	60.47	9.99470E-002	2.75127E-005	0.00000E+000	9.99387E-002	0.00000E+000	9	...........	1426.49
	183	60.48	9.99510E-002	2.94480E-005	0.00000E+000	9.99387E-002	0.00000E+000	9	...........	1426.49
	184	60.49	9.99492E-002	2.60568E-005	0.00000E+000	9.99387E-002	0.00000E+000	9	...........	1426.49
	185	60.5	9.99496E-002	2.80630E-005	0.00000E+000	9.99387E-002	0.00000E+000	9	...........	1426.49
	186	60.51	9.99501E-002	2.47602E-005	0.00000E+000	9.99387E-002	0.00000E+000	9	...........	1426.49
	187	60.52	9.99464E-002	2.68540E-005	0.00000E+000	9.99387E-002	0.00000E+000	9	...........	1426.49
	188	60.53	9.99492E-002	2.35767E-005	0.00000E+000	9.99387E-002	0.00000E+000	9	...........	1426.49
	189	60.54	9.99467E-002	2.57114E-005	0.00000E+000	9.99387E-002	0.00000E+000	9	...........	1426.49
	190	60.55	9.99484E-002	2.25081E-005	0.00000E+000	9.99387E-002	0.00000E+000	9	...........	1426.49
	191	60.56	9.99476E-002	2.46906E-005	0.00000E+000	9.99387E-002	0.00000E+000	9	...........	1426.49
	192	60.57	9.99491E-002	2.15146E-005	0.00000E+000	9.99387E-002	0.00000E+000	9	...........	1426.57
	193	60.58	9.99494E-002	2.37402E-005	0.00000E+000	9.99387E-002	0.00000E+000	9	...........	1426.57
	194	60.59	9.99507E-002	2.06273E-005	0.00000E+000	9.99387E-002	0.00000E+000	9	...........	1426.57
	195	60.6	9.99486E-002	2.28537E-005	0.00000E+000	9.99387E-002	0.00000E+000	9	...........	1426.57
	196	60.61	9.99480E-002	1.97633E-005	0.00000E+000	9.99387E-002	0.00000E+000	9	...........	1426.57
	197	60.71	9.99483E-002	1.63342E-005	0.00000E+000	9.99387E-002	0.00000E+000	9	...........	1426.57
	198	60.81	9.99494E-002	1.37905E-005	0.00000E+000	9.99387E-002	0.00000E+000	9	...........	1426.57
	199	60.91	9.99482E-002	1.18037E-005	0.00000E+000	9.99387E-002	0.00000E+000	9	...........	1426.57
	200	61	9.99480E-002	1.30450E-005	0.00000E+000	9.99387E-002	0.00000E+000	9	...........	1426.57
