EXPLAIN
TAG	CHRONOA
TITLE	LABEL	Chronoamperometry Scan	Test Identifier
DATE	LABEL	7/2/2022	Date
TIME	LABEL	10:33:24	Time
NOTES	NOTES	1	Notes...
	
PSTAT	PSTAT	IFC1010-21051	Potentiostat
VPRESTEP	POTEN	1.00000E-001	F	Pre-step Voltage (V)
TPRESTEP	QUANT	5.00000E-001	Pre-step Delay Time (s)
VSTEP1	POTEN	0.00000E+000	F	Step 1 Voltage (V)
TSTEP1	QUANT	6.00000E+001	Step 1 Time (s)
VSTEP2	POTEN	1.00000E-001	F	Step 2 Voltage (V)
TSTEP2	QUANT	1.00000E+000	Step 2 Time (s)
SAMPLETIME	QUANT	1.00000E-002	Sample Period (s)
DECIMATE	TOGGLE	T	Decimate
ILIMIT	QUANT	1.00000E+000	Limit I (mA/cm^2)
IMODE	SELECTOR	1	I/E Range Mode
IRANGE	QUANT	3.00000E-001	Max Current (mA)
EQDELAY	QUANT	5.00000E+000	Equil. Time (s)
SAMPLINGMODE	SELECTOR	1	Sampling Mode
AREA	QUANT	1.00000E+000	Sample Area (cm^2)
IRCOMP	SELECTOR	0	IRComp
PFCOR	QUANT	5.00000E+001	PF Corr. (ohm)
SEQUENCER	TOGGLE	TRUE	Run as Sequence
PSTATMODEL	IQUANT	64	Pstat Model
PSTATSECTION	LABEL	IFC1010-21051	Pstat Section
PSTATSERIALNO	LABEL	21051	Pstat Serial Number
CTRLMODE	IQUANT	1	Control Mode
ELECTROMETER	IQUANT	0	RE=0 or CS=1
IESTAB	IQUANT	0	I/E Stability
CASPEED	IQUANT	4	Control Amp Speed
CONVENTION	IQUANT	1	Current Convention
ICHRANGE	IQUANT	2	Ich Range
ICHRANGEMODE	TOGGLE	T	Ich Auto Range
ICHOFFSETENABLE	TOGGLE	F	Ich Offset Enable
ICHOFFSET	QUANT	0	Ich Offset (V)
ICHFILTER	IQUANT	3	Ich Filter
VCHRANGE	IQUANT	3	Vch Range
VCHRANGEMODE	TOGGLE	T	Vch Auto Range
VCHOFFSETENABLE	TOGGLE	F	Vch Offset Enable
VCHOFFSET	QUANT	0	Vch Offset (V)
VCHFILTER	IQUANT	3	Vch Filter
IERANGELOWERLIMIT	IQUANT	4	I/E Range Lower Limit
IERANGEMODE	TOGGLE	F	I/E AutoRange
IERANGE	IQUANT	9	I/E Range
ACHSELECT	IQUANT	0	Ach Select
ACHRANGE	IQUANT	2	Ach Range
ACHOFFSETENABLE	TOGGLE	F	Ach Offset Enable
ACHOFFSET	QUANT	0	Ach Offset (V)
ACHFILTER	IQUANT	1	Ach Filter
SENSECABLEID	IQUANT	14	Sense Cable ID
PWRCABLEID	IQUANT	14	Power Cable ID
DCCALDATE	LABEL	1/24/2022	DC Calibration Date
ACCALDATE	LABEL	4/2/2018	AC Calibration Date
FRAMEWORKVERSION	QUANT	7.06	Framework Version
INSTRUMENTVERSION	LABEL	4.30	Instrument Version
CURVE	TABLE	201
	Pt	T	Vf	Im	Vu	Sig	Ach	IERange	Over	Temp
	#	s	V vs. Ref.	A	V	V	V	#	bits	deg C
	0	-0.49	9.91475E-002	-7.44583E-005	0.00000E+000	9.99387E-002	0.00000E+000	9	...........	1425.34
	1	-0.48	9.97818E-002	-7.23781E-005	0.00000E+000	9.99387E-002	0.00000E+000	9	...........	1425.34
	2	-0.47	9.99582E-002	-7.42509E-005	0.00000E+000	9.99387E-002	0.00000E+000	9	...........	1425.34
	3	-0.46	9.99571E-002	-7.21212E-005	0.00000E+000	9.99387E-002	0.00000E+000	9	...........	1425.34
	4	-0.45	9.99612E-002	-7.40176E-005	0.00000E+000	9.99387E-002	0.00000E+000	9	...........	1425.34
	5	-0.44	9.99673E-002	-7.18609E-005	0.00000E+000	9.99387E-002	0.00000E+000	9	...........	1425.34
	6	-0.43	9.99592E-002	-7.38132E-005	0.00000E+000	9.99387E-002	0.00000E+000	9	...........	1425.34
	7	-0.42	9.99634E-002	-7.16274E-005	0.00000E+000	9.99387E-002	0.00000E+000	9	...........	1425.34
	8	-0.41	9.99595E-002	-7.36052E-005	0.00000E+000	9.99387E-002	0.00000E+000	9	...........	1425.34
	9	-0.4	9.99620E-002	-7.13827E-005	0.00000E+000	9.99387E-002	0.00000E+000	9	...........	1425.34
	10	-0.39	9.99593E-002	-7.33959E-005	0.00000E+000	9.99387E-002	0.00000E+000	9	...........	1425.34
	11	-0.38	9.99625E-002	-7.11460E-005	0.00000E+000	9.99387E-002	0.00000E+000	9	...........	1425.34
	12	-0.37	9.99641E-002	-7.31912E-005	0.00000E+000	9.99387E-002	0.00000E+000	9	...........	1425.34
	13	-0.36	9.99625E-002	-7.09130E-005	0.00000E+000	9.99387E-002	0.00000E+000	9	...........	1425.34
	14	-0.35	9.99620E-002	-7.30074E-005	0.00000E+000	9.99387E-002	0.00000E+000	9	...........	1425.34
	15	-0.34	9.99590E-002	-7.07089E-005	0.00000E+000	9.99387E-002	0.00000E+000	9	...........	1425.34
	16	-0.33	9.99610E-002	-7.27794E-005	0.00000E+000	9.99387E-002	0.00000E+000	9	...........	1425.34
	17	-0.32	9.99618E-002	-7.04990E-005	0.00000E+000	9.99387E-002	0.00000E+000	9	...........	1425.34
	18	-0.31	9.99632E-002	-7.25608E-005	0.00000E+000	9.99387E-002	0.00000E+000	9	...........	1425.34
	19	-0.3	9.99600E-002	-7.02754E-005	0.00000E+000	9.99387E-002	0.00000E+000	9	...........	1425.34
	20	-0.29	9.99602E-002	-7.23481E-005	0.00000E+000	9.99387E-002	0.00000E+000	9	...........	1425.34
	21	-0.28	9.99572E-002	-7.00830E-005	0.00000E+000	9.99387E-002	0.00000E+000	9	...........	1425.34
	22	-0.27	9.99617E-002	-7.21151E-005	0.00000E+000	9.99387E-002	0.00000E+000	9	...........	1425.34
	23	-0.26	9.99621E-002	-6.98736E-005	0.00000E+000	9.99387E-002	0.00000E+000	9	...........	1425.34
	24	-0.25	9.99626E-002	-7.18865E-005	0.00000E+000	9.99387E-002	0.00000E+000	9	...........	1425.34
	25	-0.24	9.99610E-002	-6.96853E-005	0.00000E+000	9.99387E-002	0.00000E+000	9	...........	1425.34
	26	-0.23	9.99604E-002	-7.16527E-005	0.00000E+000	9.99387E-002	0.00000E+000	9	...........	1425.34
	27	-0.22	9.99583E-002	-6.95018E-005	0.00000E+000	9.99387E-002	0.00000E+000	9	...........	1425.34
	28	-0.21	9.99622E-002	-7.14069E-005	0.00000E+000	9.99387E-002	0.00000E+000	9	...........	1425.34
	29	-0.2	9.99610E-002	-6.93244E-005	0.00000E+000	9.99387E-002	0.00000E+000	9	...........	1425.34
	30	-0.19	9.99641E-002	-7.11852E-005	0.00000E+000	9.99387E-002	0.00000E+000	9	...........	1425.34
	31	-0.18	9.99632E-002	-6.91479E-005	0.00000E+000	9.99387E-002	0.00000E+000	9	...........	1425.34
	32	-0.17	9.99650E-002	-7.09561E-005	0.00000E+000	9.99387E-002	0.00000E+000	9	...........	1425.34
	33	-0.16	9.99615E-002	-6.89657E-005	0.00000E+000	9.99387E-002	0.00000E+000	9	...........	1425.34
	34	-0.15	9.99620E-002	-7.07281E-005	0.00000E+000	9.99387E-002	0.00000E+000	9	...........	1425.34
	35	-0.14	9.99595E-002	-6.87914E-005	0.00000E+000	9.99387E-002	0.00000E+000	9	...........	1425.34
	36	-0.13	9.99640E-002	-7.05026E-005	0.00000E+000	9.99387E-002	0.00000E+000	9	...........	1425.34
	37	-0.12	9.99628E-002	-6.86159E-005	0.00000E+000	9.99387E-002	0.00000E+000	9	...........	1425.34
	38	-0.11	9.99627E-002	-7.02785E-005	0.00000E+000	9.99387E-002	0.00000E+000	9	...........	1425.34
	39	-0.1	9.99609E-002	-6.84488E-005	0.00000E+000	9.99387E-002	0.00000E+000	9	...........	1425.34
	40	-0.09	9.99618E-002	-7.00505E-005	0.00000E+000	9.99387E-002	0.00000E+000	9	...........	1425.34
	41	-0.08	9.99585E-002	-6.82886E-005	0.00000E+000	9.99387E-002	0.00000E+000	9	...........	1425.34
	42	-0.07	9.99598E-002	-6.98072E-005	0.00000E+000	9.99387E-002	0.00000E+000	9	...........	1425.34
	43	-0.06	9.99585E-002	-6.80998E-005	0.00000E+000	9.99387E-002	0.00000E+000	9	...........	1425.34
	44	-0.05	9.99625E-002	-6.95725E-005	0.00000E+000	9.99387E-002	0.00000E+000	9	...........	1425.34
	45	-0.04	9.99585E-002	-6.79397E-005	0.00000E+000	9.99387E-002	0.00000E+000	9	...........	1425.34
	46	-0.03	9.99623E-002	-6.93489E-005	0.00000E+000	9.99387E-002	0.00000E+000	9	...........	1425.34
	47	-0.02	9.99595E-002	-6.77689E-005	0.00000E+000	9.99387E-002	0.00000E+000	9	...........	1425.34
	48	-0.01	9.99614E-002	-6.91098E-005	0.00000E+000	9.99387E-002	0.00000E+000	9	...........	1425.34
	49	0	9.99633E-002	-6.76121E-005	0.00000E+000	9.99387E-002	0.00000E+000	9	...........	1425.34
	50	0.01	-5.03489E-005	-6.05270E-004	0.00000E+000	-6.08154E-005	0.00000E+000	9	...........	1425.34
	51	0.02	-4.05520E-005	-5.77782E-004	0.00000E+000	-6.08154E-005	0.00000E+000	9	...........	1425.34
	52	0.03	-4.38393E-005	-5.63294E-004	0.00000E+000	-6.08154E-005	0.00000E+000	9	...........	1425.34
	53	0.04	-4.17451E-005	-5.48472E-004	0.00000E+000	-6.08154E-005	0.00000E+000	9	...........	1425.34
	54	0.05	-4.10943E-005	-5.37381E-004	0.00000E+000	-6.08154E-005	0.00000E+000	9	...........	1425.34
	55	0.06	-4.16867E-005	-5.24579E-004	0.00000E+000	-6.08154E-005	0.00000E+000	9	...........	1425.34
	56	0.07	-4.17785E-005	-5.14885E-004	0.00000E+000	-6.08154E-005	0.00000E+000	9	...........	1425.34
	57	0.08	-4.22958E-005	-5.03321E-004	0.00000E+000	-6.08154E-005	0.00000E+000	9	...........	1425.34
	58	0.09	-4.11193E-005	-4.94613E-004	0.00000E+000	-6.08154E-005	0.00000E+000	9	...........	1425.34
	59	0.1	-4.07522E-005	-4.84020E-004	0.00000E+000	-6.08154E-005	0.00000E+000	9	...........	1425.34
	60	0.11	-4.09024E-005	-4.76117E-004	0.00000E+000	-6.08154E-005	0.00000E+000	9	...........	1425.34
	61	0.12	-4.12445E-005	-4.66323E-004	0.00000E+000	-6.08154E-005	0.00000E+000	9	...........	1425.34
	62	0.13	-4.07188E-005	-4.59100E-004	0.00000E+000	-6.08154E-005	0.00000E+000	9	...........	1425.34
	63	0.14	-4.09775E-005	-4.50009E-004	0.00000E+000	-6.08154E-005	0.00000E+000	9	...........	1425.34
	64	0.15	-4.18452E-005	-4.43395E-004	0.00000E+000	-6.08154E-005	0.00000E+000	9	...........	1425.34
	65	0.16	-4.14697E-005	-4.34893E-004	0.00000E+000	-6.08154E-005	0.00000E+000	9	...........	1425.34
	66	0.17	-4.28548E-005	-4.28840E-004	0.00000E+000	-6.08154E-005	0.00000E+000	9	...........	1425.34
	67	0.18	-4.22541E-005	-4.20879E-004	0.00000E+000	-6.08154E-005	0.00000E+000	9	...........	1425.34
	68	0.19	-4.20371E-005	-4.15297E-004	0.00000E+000	-6.08154E-005	0.00000E+000	9	...........	1425.34
	69	0.2	-4.12111E-005	-4.07836E-004	0.00000E+000	-6.08154E-005	0.00000E+000	9	...........	1425.34
	70	0.21	-4.09858E-005	-4.02685E-004	0.00000E+000	-6.08154E-005	0.00000E+000	9	...........	1425.34
	71	0.22	-4.23375E-005	-3.95667E-004	0.00000E+000	-6.08154E-005	0.00000E+000	9	...........	1425.34
	72	0.23	-4.12862E-005	-3.90909E-004	0.00000E+000	-6.08154E-005	0.00000E+000	9	...........	1425.34
	73	0.24	-4.40980E-005	-3.84292E-004	0.00000E+000	-6.08154E-005	0.00000E+000	9	...........	1425.34
	74	0.25	-4.35390E-005	-3.79887E-004	0.00000E+000	-6.08154E-005	0.00000E+000	9	...........	1425.34
	75	0.26	-4.49240E-005	-3.73624E-004	0.00000E+000	-6.08154E-005	0.00000E+000	9	...........	1425.34
	76	0.27	-4.20622E-005	-3.69539E-004	0.00000E+000	-6.08154E-005	0.00000E+000	9	...........	1425.34
	77	0.28	-4.16366E-005	-3.63617E-004	0.00000E+000	-6.08154E-005	0.00000E+000	9	...........	1425.34
	78	0.29	-4.10943E-005	-3.59810E-004	0.00000E+000	-6.08154E-005	0.00000E+000	9	...........	1425.34
	79	0.3	-4.20622E-005	-3.54198E-004	0.00000E+000	-6.08154E-005	0.00000E+000	9	...........	1425.34
	80	0.31	-4.17868E-005	-3.50675E-004	0.00000E+000	-6.08154E-005	0.00000E+000	9	...........	1425.34
	81	0.32	-4.00430E-005	-3.45338E-004	0.00000E+000	-6.08154E-005	0.00000E+000	9	...........	1425.34
	82	0.33	-4.40145E-005	-3.42046E-004	0.00000E+000	-6.08154E-005	0.00000E+000	9	...........	1425.34
	83	0.34	-4.09274E-005	-3.36978E-004	0.00000E+000	-6.08154E-005	0.00000E+000	9	...........	1425.34
	84	0.35	-4.17034E-005	-3.33905E-004	0.00000E+000	-6.08154E-005	0.00000E+000	9	...........	1425.34
	85	0.36	-4.21956E-005	-3.29070E-004	0.00000E+000	-6.08154E-005	0.00000E+000	9	...........	1425.34
	86	0.37	-4.01598E-005	-3.26213E-004	0.00000E+000	-6.08154E-005	0.00000E+000	9	...........	1425.34
	87	0.38	-4.31301E-005	-3.21584E-004	0.00000E+000	-6.08154E-005	0.00000E+000	9	...........	1425.34
	88	0.39	-4.17284E-005	-3.18886E-004	0.00000E+000	-6.08154E-005	0.00000E+000	9	...........	1425.34
	89	0.4	-4.30968E-005	-3.14484E-004	0.00000E+000	-6.08154E-005	0.00000E+000	9	...........	1425.34
	90	0.41	-4.31301E-005	-3.11953E-004	0.00000E+000	-6.08154E-005	0.00000E+000	9	...........	1425.34
	91	0.42	-4.17534E-005	-3.07754E-004	0.00000E+000	-6.08154E-005	0.00000E+000	9	...........	1425.34
	92	0.43	-4.34138E-005	-3.05382E-004	0.00000E+000	-6.08154E-005	0.00000E+000	9	...........	1425.34
	93	0.44	-4.12445E-005	-3.01306E-004	0.00000E+000	-6.08154E-005	0.00000E+000	9	...........	1425.34
	94	0.45	-4.42899E-005	-2.99101E-004	0.00000E+000	-6.08154E-005	0.00000E+000	9	...........	1425.34
	95	0.46	-4.12278E-005	-2.95196E-004	0.00000E+000	-6.08154E-005	0.00000E+000	9	...........	1425.34
	96	0.47	-4.36391E-005	-2.93121E-004	0.00000E+000	-6.08154E-005	0.00000E+000	9	...........	1425.34
	97	0.48	-4.24126E-005	-2.89380E-004	0.00000E+000	-6.08154E-005	0.00000E+000	9	...........	1425.34
	98	0.49	-4.22791E-005	-2.87414E-004	0.00000E+000	-6.08154E-005	0.00000E+000	9	...........	1425.34
	99	0.5	-4.43817E-005	-2.83830E-004	0.00000E+000	-6.08154E-005	0.00000E+000	9	...........	1425.34
	100	0.51	-4.33137E-005	-2.81968E-004	0.00000E+000	-6.08154E-005	0.00000E+000	9	...........	1425.34
	101	0.52	-4.15866E-005	-2.78515E-004	0.00000E+000	-6.08154E-005	0.00000E+000	9	...........	1425.34
	102	0.53	-4.06604E-005	-2.76754E-004	0.00000E+000	-6.08154E-005	0.00000E+000	9	...........	1425.34
	103	0.54	-4.05937E-005	-2.73419E-004	0.00000E+000	-6.08154E-005	0.00000E+000	9	...........	1425.34
	104	0.55	-4.16199E-005	-2.71761E-004	0.00000E+000	-6.08154E-005	0.00000E+000	9	...........	1425.34
	105	0.56	-4.22707E-005	-2.68549E-004	0.00000E+000	-6.08154E-005	0.00000E+000	9	...........	1425.34
	106	0.57	-4.28298E-005	-2.67008E-004	0.00000E+000	-6.08154E-005	0.00000E+000	9	...........	1425.34
	107	0.58	-3.93004E-005	-2.63885E-004	0.00000E+000	-6.08154E-005	0.00000E+000	9	...........	1425.34
	108	0.59	-4.18118E-005	-2.62440E-004	0.00000E+000	-6.08154E-005	0.00000E+000	9	...........	1425.34
	109	0.6	-4.30884E-005	-2.59428E-004	0.00000E+000	-6.08154E-005	0.00000E+000	9	...........	1425.34
	110	0.61	-4.49490E-005	-2.58070E-004	0.00000E+000	-6.08154E-005	0.00000E+000	9	...........	1425.34
	111	0.71	-4.21956E-005	-2.38553E-004	0.00000E+000	-6.08154E-005	0.00000E+000	9	...........	1425.34
	112	0.81	-4.18452E-005	-2.22460E-004	0.00000E+000	-6.08154E-005	0.00000E+000	9	...........	1425.34
	113	0.91	-4.39561E-005	-2.09026E-004	0.00000E+000	-6.08154E-005	0.00000E+000	9	...........	1425.34
	114	1.01	-4.20037E-005	-1.97665E-004	0.00000E+000	-6.08154E-005	0.00000E+000	9	...........	1425.34
	115	1.11	-4.42732E-005	-1.87860E-004	0.00000E+000	-6.08154E-005	0.00000E+000	9	...........	1425.34
	116	1.21	-4.63090E-005	-1.79319E-004	0.00000E+000	-6.08154E-005	0.00000E+000	9	...........	1425.16
	117	1.31	-4.32970E-005	-1.71824E-004	0.00000E+000	-6.08154E-005	0.00000E+000	9	...........	1425.16
	118	1.41	-4.23959E-005	-1.65172E-004	0.00000E+000	-6.08154E-005	0.00000E+000	9	...........	1425.16
	119	1.51	-4.03684E-005	-1.59225E-004	0.00000E+000	-6.08154E-005	0.00000E+000	9	...........	1425.16
	120	1.61	-4.29799E-005	-1.53823E-004	0.00000E+000	-6.08154E-005	0.00000E+000	9	...........	1425.16
	121	2.61	-4.38977E-005	-1.18500E-004	0.00000E+000	-6.08154E-005	0.00000E+000	9	...........	1425.51
	122	3.61	-4.48906E-005	-9.95481E-005	0.00000E+000	-6.08154E-005	0.00000E+000	9	...........	1425.69
	123	4.61	-4.29466E-005	-8.72921E-005	0.00000E+000	-6.08154E-005	0.00000E+000	9	...........	1425.69
	124	5.61	-4.48239E-005	-7.83501E-005	0.00000E+000	-6.08154E-005	0.00000E+000	9	...........	1425.69
	125	6.61	-4.76357E-005	-7.23250E-005	0.00000E+000	-6.08154E-005	0.00000E+000	9	...........	1425.69
	126	7.61	-4.51576E-005	-6.66875E-005	0.00000E+000	-6.08154E-005	0.00000E+000	9	...........	1425.69
	127	8.61	-4.41647E-005	-6.20380E-005	0.00000E+000	-6.08154E-005	0.00000E+000	9	...........	1425.69
	128	9.61	-4.39061E-005	-5.79021E-005	0.00000E+000	-6.08154E-005	0.00000E+000	9	...........	1425.69
	129	10.61	-4.31635E-005	-5.35943E-005	0.00000E+000	-6.08154E-005	0.00000E+000	9	...........	1425.69
	130	11.61	-4.66428E-005	-5.04842E-005	0.00000E+000	-6.08154E-005	0.00000E+000	9	...........	1425.69
	131	21.61	-4.41898E-005	-3.46520E-005	0.00000E+000	-6.08154E-005	0.00000E+000	9	...........	1425.69
	132	31.61	-4.64676E-005	-2.98003E-005	0.00000E+000	-6.08154E-005	0.00000E+000	9	...........	1425.78
	133	41.61	-4.40229E-005	-2.58090E-005	0.00000E+000	-6.08154E-005	0.00000E+000	9	...........	1425.69
	134	51.61	-4.21956E-005	-2.17431E-005	0.00000E+000	-6.08154E-005	0.00000E+000	9	...........	1425.69
	135	60	-4.58418E-005	-2.06887E-005	0.00000E+000	-6.08154E-005	0.00000E+000	9	...........	1425.69
	136	60.01	3.26887E-002	5.22412E-004	0.00000E+000	9.99387E-002	0.00000E+000	9	.........v.	1425.69
	137	60.02	9.87773E-002	4.89866E-004	0.00000E+000	9.99387E-002	0.00000E+000	9	...........	1425.69
	138	60.03	9.97386E-002	4.71087E-004	0.00000E+000	9.99387E-002	0.00000E+000	9	...........	1425.69
	139	60.04	9.99002E-002	4.57290E-004	0.00000E+000	9.99387E-002	0.00000E+000	9	...........	1425.69
	140	60.05	9.99293E-002	4.42633E-004	0.00000E+000	9.99387E-002	0.00000E+000	9	...........	1425.69
	141	60.06	9.99380E-002	4.30944E-004	0.00000E+000	9.99387E-002	0.00000E+000	9	...........	1425.69
	142	60.07	9.99416E-002	4.17798E-004	0.00000E+000	9.99387E-002	0.00000E+000	9	...........	1425.69
	143	60.08	9.99437E-002	4.07325E-004	0.00000E+000	9.99387E-002	0.00000E+000	9	...........	1425.69
	144	60.09	9.99442E-002	3.95189E-004	0.00000E+000	9.99387E-002	0.00000E+000	9	...........	1425.69
	145	60.1	9.99477E-002	3.85703E-004	0.00000E+000	9.99387E-002	0.00000E+000	9	...........	1425.69
	146	60.11	9.99490E-002	3.74375E-004	0.00000E+000	9.99387E-002	0.00000E+000	9	...........	1425.69
	147	60.12	9.99565E-002	3.65736E-004	0.00000E+000	9.99387E-002	0.00000E+000	9	...........	1425.69
	148	60.13	9.99530E-002	3.55070E-004	0.00000E+000	9.99387E-002	0.00000E+000	9	...........	1425.69
	149	60.14	9.99544E-002	3.47155E-004	0.00000E+000	9.99387E-002	0.00000E+000	9	...........	1425.69
	150	60.15	9.99544E-002	3.37082E-004	0.00000E+000	9.99387E-002	0.00000E+000	9	...........	1425.69
	151	60.16	9.99572E-002	3.29843E-004	0.00000E+000	9.99387E-002	0.00000E+000	9	...........	1425.69
	152	60.17	9.99538E-002	3.20271E-004	0.00000E+000	9.99387E-002	0.00000E+000	9	...........	1425.69
	153	60.18	9.99545E-002	3.13652E-004	0.00000E+000	9.99387E-002	0.00000E+000	9	...........	1425.69
	154	60.19	9.99536E-002	3.04503E-004	0.00000E+000	9.99387E-002	0.00000E+000	9	...........	1425.69
	155	60.2	9.99574E-002	2.98476E-004	0.00000E+000	9.99387E-002	0.00000E+000	9	...........	1425.69
	156	60.21	9.99585E-002	2.89736E-004	0.00000E+000	9.99387E-002	0.00000E+000	9	...........	1425.69
	157	60.22	9.99584E-002	2.84247E-004	0.00000E+000	9.99387E-002	0.00000E+000	9	...........	1425.69
	158	60.23	9.99588E-002	2.75862E-004	0.00000E+000	9.99387E-002	0.00000E+000	9	...........	1425.69
	159	60.24	9.99582E-002	2.70863E-004	0.00000E+000	9.99387E-002	0.00000E+000	9	...........	1425.69
	160	60.25	9.99550E-002	2.62781E-004	0.00000E+000	9.99387E-002	0.00000E+000	9	...........	1425.69
	161	60.26	9.99612E-002	2.58300E-004	0.00000E+000	9.99387E-002	0.00000E+000	9	...........	1425.69
	162	60.27	9.99575E-002	2.50474E-004	0.00000E+000	9.99387E-002	0.00000E+000	9	...........	1425.69
	163	60.28	9.99594E-002	2.46456E-004	0.00000E+000	9.99387E-002	0.00000E+000	9	...........	1425.69
	164	60.29	9.99550E-002	2.38881E-004	0.00000E+000	9.99387E-002	0.00000E+000	9	...........	1425.69
	165	60.3	9.99593E-002	2.35292E-004	0.00000E+000	9.99387E-002	0.00000E+000	9	...........	1425.69
	166	60.31	9.99614E-002	2.27966E-004	0.00000E+000	9.99387E-002	0.00000E+000	9	...........	1425.69
	167	60.32	9.99571E-002	2.24712E-004	0.00000E+000	9.99387E-002	0.00000E+000	9	...........	1425.69
	168	60.33	9.99584E-002	2.17629E-004	0.00000E+000	9.99387E-002	0.00000E+000	9	...........	1425.69
	169	60.34	9.99575E-002	2.14751E-004	0.00000E+000	9.99387E-002	0.00000E+000	9	...........	1425.69
	170	60.35	9.99566E-002	2.07881E-004	0.00000E+000	9.99387E-002	0.00000E+000	9	...........	1425.69
	171	60.36	9.99575E-002	2.05325E-004	0.00000E+000	9.99387E-002	0.00000E+000	9	...........	1425.69
	172	60.37	9.99579E-002	1.98699E-004	0.00000E+000	9.99387E-002	0.00000E+000	9	...........	1425.69
	173	60.38	9.99545E-002	1.96393E-004	0.00000E+000	9.99387E-002	0.00000E+000	9	...........	1425.69
	174	60.39	9.99613E-002	1.90056E-004	0.00000E+000	9.99387E-002	0.00000E+000	9	...........	1425.69
	175	60.4	9.99576E-002	1.87951E-004	0.00000E+000	9.99387E-002	0.00000E+000	9	...........	1425.69
	176	60.41	9.99599E-002	1.81839E-004	0.00000E+000	9.99387E-002	0.00000E+000	9	...........	1425.69
	177	60.42	9.99583E-002	1.79964E-004	0.00000E+000	9.99387E-002	0.00000E+000	9	...........	1425.69
	178	60.43	9.99580E-002	1.74064E-004	0.00000E+000	9.99387E-002	0.00000E+000	9	...........	1425.69
	179	60.44	9.99600E-002	1.72382E-004	0.00000E+000	9.99387E-002	0.00000E+000	9	...........	1425.69
	180	60.45	9.99598E-002	1.66723E-004	0.00000E+000	9.99387E-002	0.00000E+000	9	...........	1425.69
	181	60.46	9.99581E-002	1.65203E-004	0.00000E+000	9.99387E-002	0.00000E+000	9	...........	1425.69
	182	60.47	9.99575E-002	1.59755E-004	0.00000E+000	9.99387E-002	0.00000E+000	9	...........	1425.69
	183	60.48	9.99599E-002	1.58425E-004	0.00000E+000	9.99387E-002	0.00000E+000	9	...........	1425.69
	184	60.49	9.99592E-002	1.53136E-004	0.00000E+000	9.99387E-002	0.00000E+000	9	...........	1425.69
	185	60.5	9.99632E-002	1.52003E-004	0.00000E+000	9.99387E-002	0.00000E+000	9	...........	1425.69
	186	60.51	9.99609E-002	1.46863E-004	0.00000E+000	9.99387E-002	0.00000E+000	9	...........	1425.69
	187	60.52	9.99575E-002	1.45889E-004	0.00000E+000	9.99387E-002	0.00000E+000	9	...........	1425.69
	188	60.53	9.99610E-002	1.40909E-004	0.00000E+000	9.99387E-002	0.00000E+000	9	...........	1425.69
	189	60.54	9.99599E-002	1.40120E-004	0.00000E+000	9.99387E-002	0.00000E+000	9	...........	1425.69
	190	60.55	9.99580E-002	1.35236E-004	0.00000E+000	9.99387E-002	0.00000E+000	9	...........	1425.69
	191	60.56	9.99599E-002	1.34637E-004	0.00000E+000	9.99387E-002	0.00000E+000	9	...........	1425.69
	192	60.57	9.99584E-002	1.29839E-004	0.00000E+000	9.99387E-002	0.00000E+000	9	...........	1425.69
	193	60.58	9.99616E-002	1.29465E-004	0.00000E+000	9.99387E-002	0.00000E+000	9	...........	1425.69
	194	60.59	9.99605E-002	1.24747E-004	0.00000E+000	9.99387E-002	0.00000E+000	9	...........	1425.69
	195	60.6	9.99616E-002	1.24513E-004	0.00000E+000	9.99387E-002	0.00000E+000	9	...........	1425.69
	196	60.61	9.99612E-002	1.19882E-004	0.00000E+000	9.99387E-002	0.00000E+000	9	...........	1425.69
	197	60.71	9.99586E-002	9.90610E-005	0.00000E+000	9.99387E-002	0.00000E+000	9	...........	1425.69
	198	60.81	9.99596E-002	8.28926E-005	0.00000E+000	9.99387E-002	0.00000E+000	9	...........	1425.69
	199	60.91	9.99589E-002	7.01723E-005	0.00000E+000	9.99387E-002	0.00000E+000	9	...........	1425.69
	200	61	9.99561E-002	6.22185E-005	0.00000E+000	9.99387E-002	0.00000E+000	9	...........	1425.69
