EXPLAIN
TAG	CHRONOA
TITLE	LABEL	Chronoamperometry Scan	Test Identifier
DATE	LABEL	7/2/2022	Date
TIME	LABEL	10:44:44	Time
NOTES	NOTES	1	Notes...
	
PSTAT	PSTAT	IFC1010-21051	Potentiostat
VPRESTEP	POTEN	-5.00000E-001	F	Pre-step Voltage (V)
TPRESTEP	QUANT	5.00000E-001	Pre-step Delay Time (s)
VSTEP1	POTEN	-6.00000E-001	F	Step 1 Voltage (V)
TSTEP1	QUANT	3.00000E+002	Step 1 Time (s)
VSTEP2	POTEN	-7.00000E-001	F	Step 2 Voltage (V)
TSTEP2	QUANT	1.00000E+000	Step 2 Time (s)
SAMPLETIME	QUANT	1.00000E-001	Sample Period (s)
DECIMATE	TOGGLE	T	Decimate
ILIMIT	QUANT	1.00000E+000	Limit I (mA/cm^2)
IMODE	SELECTOR	1	I/E Range Mode
IRANGE	QUANT	3.00000E-001	Max Current (mA)
EQDELAY	QUANT	5.00000E+000	Equil. Time (s)
SAMPLINGMODE	SELECTOR	1	Sampling Mode
AREA	QUANT	1.00000E+000	Sample Area (cm^2)
IRCOMP	SELECTOR	0	IRComp
PFCOR	QUANT	5.00000E+001	PF Corr. (ohm)
SEQUENCER	TOGGLE	TRUE	Run as Sequence
PSTATMODEL	IQUANT	64	Pstat Model
PSTATSECTION	LABEL	IFC1010-21051	Pstat Section
PSTATSERIALNO	LABEL	21051	Pstat Serial Number
CTRLMODE	IQUANT	1	Control Mode
ELECTROMETER	IQUANT	0	RE=0 or CS=1
IESTAB	IQUANT	0	I/E Stability
CASPEED	IQUANT	4	Control Amp Speed
CONVENTION	IQUANT	1	Current Convention
ICHRANGE	IQUANT	2	Ich Range
ICHRANGEMODE	TOGGLE	T	Ich Auto Range
ICHOFFSETENABLE	TOGGLE	F	Ich Offset Enable
ICHOFFSET	QUANT	0	Ich Offset (V)
ICHFILTER	IQUANT	3	Ich Filter
VCHRANGE	IQUANT	3	Vch Range
VCHRANGEMODE	TOGGLE	T	Vch Auto Range
VCHOFFSETENABLE	TOGGLE	F	Vch Offset Enable
VCHOFFSET	QUANT	0	Vch Offset (V)
VCHFILTER	IQUANT	3	Vch Filter
IERANGELOWERLIMIT	IQUANT	4	I/E Range Lower Limit
IERANGEMODE	TOGGLE	F	I/E AutoRange
IERANGE	IQUANT	9	I/E Range
ACHSELECT	IQUANT	0	Ach Select
ACHRANGE	IQUANT	2	Ach Range
ACHOFFSETENABLE	TOGGLE	F	Ach Offset Enable
ACHOFFSET	QUANT	0	Ach Offset (V)
ACHFILTER	IQUANT	1	Ach Filter
SENSECABLEID	IQUANT	14	Sense Cable ID
PWRCABLEID	IQUANT	14	Power Cable ID
DCCALDATE	LABEL	1/24/2022	DC Calibration Date
ACCALDATE	LABEL	4/2/2018	AC Calibration Date
FRAMEWORKVERSION	QUANT	7.06	Framework Version
INSTRUMENTVERSION	LABEL	4.30	Instrument Version
CURVE	TABLE	98
	Pt	T	Vf	Im	Vu	Sig	Ach	IERange	Over	Temp
	#	s	V vs. Ref.	A	V	V	V	#	bits	deg C
	0	-0.4	-5.01515E-001	-1.35047E-004	0.00000E+000	-5.00017E-001	0.00000E+000	9	...........	1425.60
	1	-0.3	-5.00958E-001	-1.34641E-004	0.00000E+000	-5.00017E-001	0.00000E+000	9	...........	1425.60
	2	-0.2	-5.00965E-001	-1.34268E-004	0.00000E+000	-5.00017E-001	0.00000E+000	9	...........	1425.60
	3	-0.1	-5.00954E-001	-1.33893E-004	0.00000E+000	-5.00017E-001	0.00000E+000	9	...........	1425.60
	4	0	-5.00951E-001	-1.33551E-004	0.00000E+000	-5.00017E-001	0.00000E+000	9	...........	1425.60
	5	0.1	-6.00957E-001	-6.30078E-004	0.00000E+000	-6.00016E-001	0.00000E+000	9	...........	1425.60
	6	0.2	-6.00949E-001	-5.44694E-004	0.00000E+000	-6.00016E-001	0.00000E+000	9	...........	1425.60
	7	0.3	-6.00960E-001	-4.89047E-004	0.00000E+000	-6.00016E-001	0.00000E+000	9	...........	1425.69
	8	0.4	-6.00962E-001	-4.48973E-004	0.00000E+000	-6.00016E-001	0.00000E+000	9	...........	1425.69
	9	0.5	-6.00960E-001	-4.18343E-004	0.00000E+000	-6.00016E-001	0.00000E+000	9	...........	1425.69
	10	0.6	-6.00949E-001	-3.94081E-004	0.00000E+000	-6.00016E-001	0.00000E+000	9	...........	1425.69
	11	0.7	-6.00964E-001	-3.74415E-004	0.00000E+000	-6.00016E-001	0.00000E+000	9	...........	1425.69
	12	0.8	-6.00962E-001	-3.58028E-004	0.00000E+000	-6.00016E-001	0.00000E+000	9	...........	1425.69
	13	0.9	-6.00963E-001	-3.44192E-004	0.00000E+000	-6.00016E-001	0.00000E+000	9	...........	1425.69
	14	1	-6.00961E-001	-3.32368E-004	0.00000E+000	-6.00016E-001	0.00000E+000	9	...........	1425.69
	15	1.1	-6.00960E-001	-3.22066E-004	0.00000E+000	-6.00016E-001	0.00000E+000	9	...........	1425.69
	16	1.2	-6.00962E-001	-3.13022E-004	0.00000E+000	-6.00016E-001	0.00000E+000	9	...........	1425.69
	17	1.3	-6.00965E-001	-3.04961E-004	0.00000E+000	-6.00016E-001	0.00000E+000	9	...........	1425.51
	18	1.4	-6.00962E-001	-2.97742E-004	0.00000E+000	-6.00016E-001	0.00000E+000	9	...........	1425.51
	19	1.5	-6.00959E-001	-2.91231E-004	0.00000E+000	-6.00016E-001	0.00000E+000	9	...........	1425.51
	20	1.6	-6.00971E-001	-2.85280E-004	0.00000E+000	-6.00016E-001	0.00000E+000	9	...........	1425.51
	21	1.7	-6.00970E-001	-2.79890E-004	0.00000E+000	-6.00016E-001	0.00000E+000	9	...........	1425.51
	22	1.8	-6.00962E-001	-2.74921E-004	0.00000E+000	-6.00016E-001	0.00000E+000	9	...........	1425.51
	23	1.9	-6.00971E-001	-2.70355E-004	0.00000E+000	-6.00016E-001	0.00000E+000	9	...........	1425.51
	24	2	-6.00963E-001	-2.66022E-004	0.00000E+000	-6.00016E-001	0.00000E+000	9	...........	1425.51
	25	2.1	-6.00955E-001	-2.62117E-004	0.00000E+000	-6.00016E-001	0.00000E+000	9	...........	1425.51
	26	2.2	-6.00956E-001	-2.58417E-004	0.00000E+000	-6.00016E-001	0.00000E+000	9	...........	1425.51
	27	2.3	-6.00947E-001	-2.54851E-004	0.00000E+000	-6.00016E-001	0.00000E+000	9	...........	1425.60
	28	2.4	-6.00957E-001	-2.51700E-004	0.00000E+000	-6.00016E-001	0.00000E+000	9	...........	1425.60
	29	2.5	-6.00971E-001	-2.48581E-004	0.00000E+000	-6.00016E-001	0.00000E+000	9	...........	1425.60
	30	2.6	-6.00966E-001	-2.45737E-004	0.00000E+000	-6.00016E-001	0.00000E+000	9	...........	1425.60
	31	2.7	-6.00977E-001	-2.42945E-004	0.00000E+000	-6.00016E-001	0.00000E+000	9	...........	1425.60
	32	2.8	-6.00968E-001	-2.40350E-004	0.00000E+000	-6.00016E-001	0.00000E+000	9	...........	1425.60
	33	2.9	-6.00956E-001	-2.37737E-004	0.00000E+000	-6.00016E-001	0.00000E+000	9	...........	1425.60
	34	3	-6.00955E-001	-2.35495E-004	0.00000E+000	-6.00016E-001	0.00000E+000	9	...........	1425.60
	35	3.1	-6.00965E-001	-2.33219E-004	0.00000E+000	-6.00016E-001	0.00000E+000	9	...........	1425.60
	36	3.2	-6.00962E-001	-2.31013E-004	0.00000E+000	-6.00016E-001	0.00000E+000	9	...........	1425.60
	37	3.3	-6.00971E-001	-2.28988E-004	0.00000E+000	-6.00016E-001	0.00000E+000	9	...........	1425.60
	38	3.4	-6.00966E-001	-2.27006E-004	0.00000E+000	-6.00016E-001	0.00000E+000	9	...........	1425.60
	39	3.5	-6.00962E-001	-2.25079E-004	0.00000E+000	-6.00016E-001	0.00000E+000	9	...........	1425.60
	40	3.6	-6.00952E-001	-2.23207E-004	0.00000E+000	-6.00016E-001	0.00000E+000	9	...........	1425.60
	41	3.7	-6.00960E-001	-2.21496E-004	0.00000E+000	-6.00016E-001	0.00000E+000	9	...........	1425.60
	42	3.8	-6.00951E-001	-2.19733E-004	0.00000E+000	-6.00016E-001	0.00000E+000	9	...........	1425.60
	43	3.9	-6.00970E-001	-2.18229E-004	0.00000E+000	-6.00016E-001	0.00000E+000	9	...........	1425.60
	44	4	-6.00959E-001	-2.16705E-004	0.00000E+000	-6.00016E-001	0.00000E+000	9	...........	1425.60
	45	4.1	-6.00966E-001	-2.15176E-004	0.00000E+000	-6.00016E-001	0.00000E+000	9	...........	1425.60
	46	4.2	-6.00974E-001	-2.13731E-004	0.00000E+000	-6.00016E-001	0.00000E+000	9	...........	1425.60
	47	4.3	-6.00966E-001	-2.12347E-004	0.00000E+000	-6.00016E-001	0.00000E+000	9	...........	1425.60
	48	4.4	-6.00971E-001	-2.10944E-004	0.00000E+000	-6.00016E-001	0.00000E+000	9	...........	1425.60
	49	4.5	-6.00970E-001	-2.09646E-004	0.00000E+000	-6.00016E-001	0.00000E+000	9	...........	1425.60
	50	4.6	-6.00959E-001	-2.08356E-004	0.00000E+000	-6.00016E-001	0.00000E+000	9	...........	1425.60
	51	4.7	-6.00962E-001	-2.07083E-004	0.00000E+000	-6.00016E-001	0.00000E+000	9	...........	1425.60
	52	4.8	-6.00964E-001	-2.05917E-004	0.00000E+000	-6.00016E-001	0.00000E+000	9	...........	1425.60
	53	4.9	-6.00959E-001	-2.04721E-004	0.00000E+000	-6.00016E-001	0.00000E+000	9	...........	1425.60
	54	5	-6.00970E-001	-2.03586E-004	0.00000E+000	-6.00016E-001	0.00000E+000	9	...........	1425.60
	55	5.1	-6.00960E-001	-2.02429E-004	0.00000E+000	-6.00016E-001	0.00000E+000	9	...........	1425.60
	56	5.2	-6.00966E-001	-2.01428E-004	0.00000E+000	-6.00016E-001	0.00000E+000	9	...........	1425.60
	57	5.3	-6.00958E-001	-2.00344E-004	0.00000E+000	-6.00016E-001	0.00000E+000	9	...........	1425.60
	58	5.4	-6.00962E-001	-1.99305E-004	0.00000E+000	-6.00016E-001	0.00000E+000	9	...........	1425.60
	59	5.5	-6.00981E-001	-1.98346E-004	0.00000E+000	-6.00016E-001	0.00000E+000	9	...........	1425.60
	60	5.6	-6.00972E-001	-1.97353E-004	0.00000E+000	-6.00016E-001	0.00000E+000	9	...........	1425.60
	61	5.7	-6.00940E-001	-1.96376E-004	0.00000E+000	-6.00016E-001	0.00000E+000	9	...........	1425.60
	62	5.8	-6.00966E-001	-1.95512E-004	0.00000E+000	-6.00016E-001	0.00000E+000	9	...........	1425.60
	63	5.9	-6.00961E-001	-1.94591E-004	0.00000E+000	-6.00016E-001	0.00000E+000	9	...........	1425.60
	64	6	-6.00959E-001	-1.93680E-004	0.00000E+000	-6.00016E-001	0.00000E+000	9	...........	1425.60
	65	6.1	-6.00968E-001	-1.92789E-004	0.00000E+000	-6.00016E-001	0.00000E+000	9	...........	1425.60
	66	7.1	-6.00965E-001	-1.85063E-004	0.00000E+000	-6.00016E-001	0.00000E+000	9	...........	1425.60
	67	8.1	-6.00965E-001	-1.78745E-004	0.00000E+000	-6.00016E-001	0.00000E+000	9	...........	1425.60
	68	9.1	-6.00963E-001	-1.73435E-004	0.00000E+000	-6.00016E-001	0.00000E+000	9	...........	1425.60
	69	10.1	-6.00958E-001	-1.68759E-004	0.00000E+000	-6.00016E-001	0.00000E+000	9	...........	1425.60
	70	11.1	-6.00967E-001	-1.64570E-004	0.00000E+000	-6.00016E-001	0.00000E+000	9	...........	1425.69
	71	12.1	-6.00962E-001	-1.61114E-004	0.00000E+000	-6.00016E-001	0.00000E+000	9	...........	1425.69
	72	13.1	-6.00956E-001	-1.58041E-004	0.00000E+000	-6.00016E-001	0.00000E+000	9	...........	1425.60
	73	14.1	-6.00958E-001	-1.55197E-004	0.00000E+000	-6.00016E-001	0.00000E+000	9	...........	1425.60
	74	15.1	-6.00954E-001	-1.52701E-004	0.00000E+000	-6.00016E-001	0.00000E+000	9	...........	1425.60
	75	16.1	-6.00968E-001	-1.50787E-004	0.00000E+000	-6.00016E-001	0.00000E+000	9	...........	1425.60
	76	26.1	-6.00962E-001	-1.35782E-004	0.00000E+000	-6.00016E-001	0.00000E+000	9	...........	1425.60
	77	36.1	-6.00970E-001	-1.27528E-004	0.00000E+000	-6.00016E-001	0.00000E+000	9	...........	1425.60
	78	46.1	-6.00959E-001	-1.22354E-004	0.00000E+000	-6.00016E-001	0.00000E+000	9	...........	1425.60
	79	56.1	-6.00962E-001	-1.18776E-004	0.00000E+000	-6.00016E-001	0.00000E+000	9	...........	1425.60
	80	66.1	-6.00970E-001	-1.15566E-004	0.00000E+000	-6.00016E-001	0.00000E+000	9	...........	1425.69
	81	76.1	-6.00969E-001	-1.13300E-004	0.00000E+000	-6.00016E-001	0.00000E+000	9	...........	1425.69
	82	86.1	-6.00957E-001	-1.11242E-004	0.00000E+000	-6.00016E-001	0.00000E+000	9	...........	1425.69
	83	96.1	-6.00967E-001	-1.10077E-004	0.00000E+000	-6.00016E-001	0.00000E+000	9	...........	1425.69
	84	106.1	-6.00953E-001	-1.08878E-004	0.00000E+000	-6.00016E-001	0.00000E+000	9	...........	1425.69
	85	116.1	-6.00965E-001	-1.07543E-004	0.00000E+000	-6.00016E-001	0.00000E+000	9	...........	1425.69
	86	216.1	-6.00981E-001	-1.01916E-004	0.00000E+000	-6.00016E-001	0.00000E+000	9	...........	1425.69
	87	300	-6.00968E-001	-9.93513E-005	0.00000E+000	-6.00016E-001	0.00000E+000	9	...........	1425.69
	88	300.1	-7.00961E-001	-5.70280E-004	0.00000E+000	-7.00016E-001	0.00000E+000	9	...........	1425.69
	89	300.2	-7.00967E-001	-4.70972E-004	0.00000E+000	-7.00016E-001	0.00000E+000	9	...........	1425.69
	90	300.3	-7.00971E-001	-4.08089E-004	0.00000E+000	-7.00016E-001	0.00000E+000	9	...........	1425.69
	91	300.4	-7.00967E-001	-3.64060E-004	0.00000E+000	-7.00016E-001	0.00000E+000	9	...........	1425.69
	92	300.5	-7.00974E-001	-3.31248E-004	0.00000E+000	-7.00016E-001	0.00000E+000	9	...........	1425.69
	93	300.6	-7.00968E-001	-3.05775E-004	0.00000E+000	-7.00016E-001	0.00000E+000	9	...........	1425.69
	94	300.7	-7.00962E-001	-2.85663E-004	0.00000E+000	-7.00016E-001	0.00000E+000	9	...........	1425.69
	95	300.8	-7.00969E-001	-2.69182E-004	0.00000E+000	-7.00016E-001	0.00000E+000	9	...........	1425.69
	96	300.9	-7.00958E-001	-2.55554E-004	0.00000E+000	-7.00016E-001	0.00000E+000	9	...........	1425.69
	97	301	-7.00961E-001	-2.44253E-004	0.00000E+000	-7.00016E-001	0.00000E+000	9	...........	1425.69
