EXPLAIN
TAG	CHRONOA
TITLE	LABEL	Chronoamperometry Scan	Test Identifier
DATE	LABEL	7/2/2022	Date
TIME	LABEL	11:13:51	Time
NOTES	NOTES	1	Notes...
	
PSTAT	PSTAT	IFC1010-21051	Potentiostat
VPRESTEP	POTEN	0.00000E+000	F	Pre-step Voltage (V)
TPRESTEP	QUANT	5.00000E-001	Pre-step Delay Time (s)
VSTEP1	POTEN	-2.00000E-001	F	Step 1 Voltage (V)
TSTEP1	QUANT	3.00000E+002	Step 1 Time (s)
VSTEP2	POTEN	-3.00000E-001	F	Step 2 Voltage (V)
TSTEP2	QUANT	1.00000E+000	Step 2 Time (s)
SAMPLETIME	QUANT	1.00000E-001	Sample Period (s)
DECIMATE	TOGGLE	T	Decimate
ILIMIT	QUANT	1.00000E+000	Limit I (mA/cm^2)
IMODE	SELECTOR	1	I/E Range Mode
IRANGE	QUANT	3.00000E-001	Max Current (mA)
EQDELAY	QUANT	5.00000E+000	Equil. Time (s)
SAMPLINGMODE	SELECTOR	1	Sampling Mode
AREA	QUANT	1.00000E+000	Sample Area (cm^2)
IRCOMP	SELECTOR	0	IRComp
PFCOR	QUANT	5.00000E+001	PF Corr. (ohm)
SEQUENCER	TOGGLE	TRUE	Run as Sequence
PSTATMODEL	IQUANT	64	Pstat Model
PSTATSECTION	LABEL	IFC1010-21051	Pstat Section
PSTATSERIALNO	LABEL	21051	Pstat Serial Number
CTRLMODE	IQUANT	1	Control Mode
ELECTROMETER	IQUANT	0	RE=0 or CS=1
IESTAB	IQUANT	0	I/E Stability
CASPEED	IQUANT	4	Control Amp Speed
CONVENTION	IQUANT	1	Current Convention
ICHRANGE	IQUANT	2	Ich Range
ICHRANGEMODE	TOGGLE	T	Ich Auto Range
ICHOFFSETENABLE	TOGGLE	F	Ich Offset Enable
ICHOFFSET	QUANT	0	Ich Offset (V)
ICHFILTER	IQUANT	3	Ich Filter
VCHRANGE	IQUANT	3	Vch Range
VCHRANGEMODE	TOGGLE	T	Vch Auto Range
VCHOFFSETENABLE	TOGGLE	F	Vch Offset Enable
VCHOFFSET	QUANT	0	Vch Offset (V)
VCHFILTER	IQUANT	3	Vch Filter
IERANGELOWERLIMIT	IQUANT	4	I/E Range Lower Limit
IERANGEMODE	TOGGLE	F	I/E AutoRange
IERANGE	IQUANT	9	I/E Range
ACHSELECT	IQUANT	0	Ach Select
ACHRANGE	IQUANT	2	Ach Range
ACHOFFSETENABLE	TOGGLE	F	Ach Offset Enable
ACHOFFSET	QUANT	0	Ach Offset (V)
ACHFILTER	IQUANT	1	Ach Filter
SENSECABLEID	IQUANT	14	Sense Cable ID
PWRCABLEID	IQUANT	14	Power Cable ID
DCCALDATE	LABEL	1/24/2022	DC Calibration Date
ACCALDATE	LABEL	4/2/2018	AC Calibration Date
FRAMEWORKVERSION	QUANT	7.06	Framework Version
INSTRUMENTVERSION	LABEL	4.30	Instrument Version
CURVE	TABLE	98
	Pt	T	Vf	Im	Vu	Sig	Ach	IERange	Over	Temp
	#	s	V vs. Ref.	A	V	V	V	#	bits	deg C
	0	-0.4	-9.63410E-004	-2.36151E-005	0.00000E+000	-6.72489E-005	0.00000E+000	9	...........	1425.69
	1	-0.3	-3.50966E-004	-2.35259E-005	0.00000E+000	-6.72489E-005	0.00000E+000	9	...........	1425.69
	2	-0.2	-2.12310E-004	-2.34607E-005	0.00000E+000	-6.72489E-005	0.00000E+000	9	...........	1425.69
	3	-0.1	-2.00900E-004	-2.33972E-005	0.00000E+000	-6.72489E-005	0.00000E+000	9	...........	1425.69
	4	0	-2.01749E-004	-2.33341E-005	0.00000E+000	-6.72489E-005	0.00000E+000	9	...........	1425.69
	5	0.1	-3.29270E-002	-8.79215E-004	0.00000E+000	-2.00066E-001	0.00000E+000	9	.........v.	1425.69
	6	0.2	-2.00235E-001	-7.18090E-004	0.00000E+000	-2.00066E-001	0.00000E+000	9	...........	1425.69
	7	0.3	-2.00236E-001	-6.10775E-004	0.00000E+000	-2.00066E-001	0.00000E+000	9	...........	1425.69
	8	0.4	-2.00235E-001	-5.31392E-004	0.00000E+000	-2.00066E-001	0.00000E+000	9	...........	1425.69
	9	0.5	-2.00239E-001	-4.68879E-004	0.00000E+000	-2.00066E-001	0.00000E+000	9	...........	1425.69
	10	0.6	-2.00237E-001	-4.17605E-004	0.00000E+000	-2.00066E-001	0.00000E+000	9	...........	1425.60
	11	0.7	-2.00237E-001	-3.74718E-004	0.00000E+000	-2.00066E-001	0.00000E+000	9	...........	1425.60
	12	0.8	-2.00238E-001	-3.38285E-004	0.00000E+000	-2.00066E-001	0.00000E+000	9	...........	1425.60
	13	0.9	-2.00239E-001	-3.07105E-004	0.00000E+000	-2.00066E-001	0.00000E+000	9	...........	1425.60
	14	1	-2.00240E-001	-2.80251E-004	0.00000E+000	-2.00066E-001	0.00000E+000	9	...........	1425.60
	15	1.1	-2.00239E-001	-2.57046E-004	0.00000E+000	-2.00066E-001	0.00000E+000	9	...........	1425.60
	16	1.2	-2.00240E-001	-2.36935E-004	0.00000E+000	-2.00066E-001	0.00000E+000	9	...........	1425.60
	17	1.3	-2.00242E-001	-2.19394E-004	0.00000E+000	-2.00066E-001	0.00000E+000	9	...........	1425.60
	18	1.4	-2.00241E-001	-2.04041E-004	0.00000E+000	-2.00066E-001	0.00000E+000	9	...........	1425.60
	19	1.5	-2.00241E-001	-1.90562E-004	0.00000E+000	-2.00066E-001	0.00000E+000	9	...........	1425.60
	20	1.6	-2.00241E-001	-1.78671E-004	0.00000E+000	-2.00066E-001	0.00000E+000	9	...........	1425.51
	21	1.7	-2.00238E-001	-1.68166E-004	0.00000E+000	-2.00066E-001	0.00000E+000	9	...........	1425.51
	22	1.8	-2.00240E-001	-1.58861E-004	0.00000E+000	-2.00066E-001	0.00000E+000	9	...........	1425.51
	23	1.9	-2.00240E-001	-1.50569E-004	0.00000E+000	-2.00066E-001	0.00000E+000	9	...........	1425.51
	24	2	-2.00239E-001	-1.43151E-004	0.00000E+000	-2.00066E-001	0.00000E+000	9	...........	1425.51
	25	2.1	-2.00240E-001	-1.36545E-004	0.00000E+000	-2.00066E-001	0.00000E+000	9	...........	1425.51
	26	2.2	-2.00240E-001	-1.30601E-004	0.00000E+000	-2.00066E-001	0.00000E+000	9	...........	1425.51
	27	2.3	-2.00240E-001	-1.25244E-004	0.00000E+000	-2.00066E-001	0.00000E+000	9	...........	1425.51
	28	2.4	-2.00242E-001	-1.20426E-004	0.00000E+000	-2.00066E-001	0.00000E+000	9	...........	1425.51
	29	2.5	-2.00241E-001	-1.16042E-004	0.00000E+000	-2.00066E-001	0.00000E+000	9	...........	1425.51
	30	2.6	-2.00242E-001	-1.12053E-004	0.00000E+000	-2.00066E-001	0.00000E+000	9	...........	1425.42
	31	2.7	-2.00242E-001	-1.08417E-004	0.00000E+000	-2.00066E-001	0.00000E+000	9	...........	1425.42
	32	2.8	-2.00242E-001	-1.05137E-004	0.00000E+000	-2.00066E-001	0.00000E+000	9	...........	1425.42
	33	2.9	-2.00242E-001	-1.02118E-004	0.00000E+000	-2.00066E-001	0.00000E+000	9	...........	1425.42
	34	3	-2.00243E-001	-9.93223E-005	0.00000E+000	-2.00066E-001	0.00000E+000	9	...........	1425.42
	35	3.1	-2.00242E-001	-9.68109E-005	0.00000E+000	-2.00066E-001	0.00000E+000	9	...........	1425.42
	36	3.2	-2.00241E-001	-9.44633E-005	0.00000E+000	-2.00066E-001	0.00000E+000	9	...........	1425.42
	37	3.3	-2.00243E-001	-9.23093E-005	0.00000E+000	-2.00066E-001	0.00000E+000	9	...........	1425.42
	38	3.4	-2.00244E-001	-9.03103E-005	0.00000E+000	-2.00066E-001	0.00000E+000	9	...........	1425.42
	39	3.5	-2.00244E-001	-8.84584E-005	0.00000E+000	-2.00066E-001	0.00000E+000	9	...........	1425.42
	40	3.6	-2.00243E-001	-8.67357E-005	0.00000E+000	-2.00066E-001	0.00000E+000	9	...........	1425.42
	41	3.7	-2.00241E-001	-8.50939E-005	0.00000E+000	-2.00066E-001	0.00000E+000	9	...........	1425.42
	42	3.8	-2.00242E-001	-8.36011E-005	0.00000E+000	-2.00066E-001	0.00000E+000	9	...........	1425.42
	43	3.9	-2.00242E-001	-8.22058E-005	0.00000E+000	-2.00066E-001	0.00000E+000	9	...........	1425.42
	44	4	-2.00242E-001	-8.08851E-005	0.00000E+000	-2.00066E-001	0.00000E+000	9	...........	1425.42
	45	4.1	-2.00244E-001	-7.96567E-005	0.00000E+000	-2.00066E-001	0.00000E+000	9	...........	1425.42
	46	4.2	-2.00241E-001	-7.84810E-005	0.00000E+000	-2.00066E-001	0.00000E+000	9	...........	1425.42
	47	4.3	-2.00242E-001	-7.73911E-005	0.00000E+000	-2.00066E-001	0.00000E+000	9	...........	1425.42
	48	4.4	-2.00242E-001	-7.63612E-005	0.00000E+000	-2.00066E-001	0.00000E+000	9	...........	1425.42
	49	4.5	-2.00242E-001	-7.53584E-005	0.00000E+000	-2.00066E-001	0.00000E+000	9	...........	1425.42
	50	4.6	-2.00241E-001	-7.44290E-005	0.00000E+000	-2.00066E-001	0.00000E+000	9	...........	1425.42
	51	4.7	-2.00242E-001	-7.35543E-005	0.00000E+000	-2.00066E-001	0.00000E+000	9	...........	1425.42
	52	4.8	-2.00242E-001	-7.27328E-005	0.00000E+000	-2.00066E-001	0.00000E+000	9	...........	1425.42
	53	4.9	-2.00241E-001	-7.19601E-005	0.00000E+000	-2.00066E-001	0.00000E+000	9	...........	1425.42
	54	5	-2.00242E-001	-7.12159E-005	0.00000E+000	-2.00066E-001	0.00000E+000	9	...........	1425.42
	55	5.1	-2.00245E-001	-7.05050E-005	0.00000E+000	-2.00066E-001	0.00000E+000	9	...........	1425.42
	56	5.2	-2.00242E-001	-6.98410E-005	0.00000E+000	-2.00066E-001	0.00000E+000	9	...........	1425.42
	57	5.3	-2.00242E-001	-6.91936E-005	0.00000E+000	-2.00066E-001	0.00000E+000	9	...........	1425.42
	58	5.4	-2.00241E-001	-6.85613E-005	0.00000E+000	-2.00066E-001	0.00000E+000	9	...........	1425.42
	59	5.5	-2.00241E-001	-6.79553E-005	0.00000E+000	-2.00066E-001	0.00000E+000	9	...........	1425.42
	60	5.6	-2.00242E-001	-6.73751E-005	0.00000E+000	-2.00066E-001	0.00000E+000	9	...........	1425.42
	61	5.7	-2.00242E-001	-6.68217E-005	0.00000E+000	-2.00066E-001	0.00000E+000	9	...........	1425.42
	62	5.8	-2.00242E-001	-6.62901E-005	0.00000E+000	-2.00066E-001	0.00000E+000	9	...........	1425.42
	63	5.9	-2.00241E-001	-6.57677E-005	0.00000E+000	-2.00066E-001	0.00000E+000	9	...........	1425.42
	64	6	-2.00240E-001	-6.52649E-005	0.00000E+000	-2.00066E-001	0.00000E+000	9	...........	1425.42
	65	6.1	-2.00241E-001	-6.47882E-005	0.00000E+000	-2.00066E-001	0.00000E+000	9	...........	1425.42
	66	7.1	-2.00242E-001	-6.08767E-005	0.00000E+000	-2.00066E-001	0.00000E+000	9	...........	1425.42
	67	8.1	-2.00243E-001	-5.78966E-005	0.00000E+000	-2.00066E-001	0.00000E+000	9	...........	1425.87
	68	9.1	-2.00244E-001	-5.57335E-005	0.00000E+000	-2.00066E-001	0.00000E+000	9	...........	1425.87
	69	10.1	-2.00242E-001	-5.40063E-005	0.00000E+000	-2.00066E-001	0.00000E+000	9	...........	1425.87
	70	11.1	-2.00244E-001	-5.24813E-005	0.00000E+000	-2.00066E-001	0.00000E+000	9	...........	1425.87
	71	12.1	-2.00244E-001	-5.11605E-005	0.00000E+000	-2.00066E-001	0.00000E+000	9	...........	1425.87
	72	13.1	-2.00243E-001	-4.99834E-005	0.00000E+000	-2.00066E-001	0.00000E+000	9	...........	1425.87
	73	14.1	-2.00245E-001	-4.91132E-005	0.00000E+000	-2.00066E-001	0.00000E+000	9	...........	1425.87
	74	15.1	-2.00243E-001	-4.83508E-005	0.00000E+000	-2.00066E-001	0.00000E+000	9	...........	1425.87
	75	16.1	-2.00244E-001	-4.77516E-005	0.00000E+000	-2.00066E-001	0.00000E+000	9	...........	1425.87
	76	26.1	-2.00242E-001	-4.39616E-005	0.00000E+000	-2.00066E-001	0.00000E+000	9	...........	1425.87
	77	36.1	-2.00243E-001	-4.18752E-005	0.00000E+000	-2.00066E-001	0.00000E+000	9	...........	1425.87
	78	46.1	-2.00244E-001	-4.03823E-005	0.00000E+000	-2.00066E-001	0.00000E+000	9	...........	1425.87
	79	56.1	-2.00245E-001	-3.91580E-005	0.00000E+000	-2.00066E-001	0.00000E+000	9	...........	1425.87
	80	66.1	-2.00244E-001	-3.83514E-005	0.00000E+000	-2.00066E-001	0.00000E+000	9	...........	1425.87
	81	76.1	-2.00244E-001	-3.73745E-005	0.00000E+000	-2.00066E-001	0.00000E+000	9	...........	1425.87
	82	86.1	-2.00246E-001	-3.66326E-005	0.00000E+000	-2.00066E-001	0.00000E+000	9	...........	1425.87
	83	96.1	-2.00246E-001	-3.62748E-005	0.00000E+000	-2.00066E-001	0.00000E+000	9	...........	1425.87
	84	106.1	-2.00245E-001	-3.54871E-005	0.00000E+000	-2.00066E-001	0.00000E+000	9	...........	1425.87
	85	116.1	-2.00244E-001	-3.45824E-005	0.00000E+000	-2.00066E-001	0.00000E+000	9	...........	1425.87
	86	216.1	-2.00245E-001	-3.05595E-005	0.00000E+000	-2.00066E-001	0.00000E+000	9	...........	1425.87
	87	300	-2.00244E-001	-2.87239E-005	0.00000E+000	-2.00066E-001	0.00000E+000	9	...........	1425.87
	88	300.1	-3.00246E-001	-4.41279E-004	0.00000E+000	-3.00066E-001	0.00000E+000	9	...........	1425.87
	89	300.2	-3.00403E-001	-3.42439E-004	0.00000E+000	-3.00066E-001	0.00000E+000	9	...........	1425.87
	90	300.3	-3.00399E-001	-2.78819E-004	0.00000E+000	-3.00066E-001	0.00000E+000	9	...........	1425.87
	91	300.4	-3.00406E-001	-2.35273E-004	0.00000E+000	-3.00066E-001	0.00000E+000	9	...........	1425.87
	92	300.5	-3.00395E-001	-2.04140E-004	0.00000E+000	-3.00066E-001	0.00000E+000	9	...........	1425.87
	93	300.6	-3.00414E-001	-1.81183E-004	0.00000E+000	-3.00066E-001	0.00000E+000	9	...........	1425.87
	94	300.7	-3.00403E-001	-1.63788E-004	0.00000E+000	-3.00066E-001	0.00000E+000	9	...........	1425.87
	95	300.8	-3.00394E-001	-1.50321E-004	0.00000E+000	-3.00066E-001	0.00000E+000	9	...........	1425.87
	96	300.9	-3.00398E-001	-1.39788E-004	0.00000E+000	-3.00066E-001	0.00000E+000	9	...........	1425.87
	97	301	-3.00412E-001	-1.31360E-004	0.00000E+000	-3.00066E-001	0.00000E+000	9	...........	1425.87
