EXPLAIN
TAG	CHRONOA
TITLE	LABEL	Chronoamperometry Scan	Test Identifier
DATE	LABEL	7/2/2022	Date
TIME	LABEL	16:57:22	Time
NOTES	NOTES	1	Notes...
	
PSTAT	PSTAT	IFC1010-21051	Potentiostat
VPRESTEP	POTEN	0.00000E+000	F	Pre-step Voltage (V)
TPRESTEP	QUANT	5.00000E-001	Pre-step Delay Time (s)
VSTEP1	POTEN	-2.00000E-001	F	Step 1 Voltage (V)
TSTEP1	QUANT	3.00000E+002	Step 1 Time (s)
VSTEP2	POTEN	-3.00000E-001	F	Step 2 Voltage (V)
TSTEP2	QUANT	1.00000E+000	Step 2 Time (s)
SAMPLETIME	QUANT	1.00000E-001	Sample Period (s)
DECIMATE	TOGGLE	T	Decimate
ILIMIT	QUANT	1.00000E+000	Limit I (mA/cm^2)
IMODE	SELECTOR	1	I/E Range Mode
IRANGE	QUANT	3.00000E-001	Max Current (mA)
EQDELAY	QUANT	5.00000E+000	Equil. Time (s)
SAMPLINGMODE	SELECTOR	1	Sampling Mode
AREA	QUANT	1.00000E+000	Sample Area (cm^2)
IRCOMP	SELECTOR	0	IRComp
PFCOR	QUANT	5.00000E+001	PF Corr. (ohm)
SEQUENCER	TOGGLE	TRUE	Run as Sequence
PSTATMODEL	IQUANT	64	Pstat Model
PSTATSECTION	LABEL	IFC1010-21051	Pstat Section
PSTATSERIALNO	LABEL	21051	Pstat Serial Number
CTRLMODE	IQUANT	1	Control Mode
ELECTROMETER	IQUANT	0	RE=0 or CS=1
IESTAB	IQUANT	0	I/E Stability
CASPEED	IQUANT	4	Control Amp Speed
CONVENTION	IQUANT	1	Current Convention
ICHRANGE	IQUANT	2	Ich Range
ICHRANGEMODE	TOGGLE	T	Ich Auto Range
ICHOFFSETENABLE	TOGGLE	F	Ich Offset Enable
ICHOFFSET	QUANT	0	Ich Offset (V)
ICHFILTER	IQUANT	3	Ich Filter
VCHRANGE	IQUANT	3	Vch Range
VCHRANGEMODE	TOGGLE	T	Vch Auto Range
VCHOFFSETENABLE	TOGGLE	F	Vch Offset Enable
VCHOFFSET	QUANT	0	Vch Offset (V)
VCHFILTER	IQUANT	3	Vch Filter
IERANGELOWERLIMIT	IQUANT	4	I/E Range Lower Limit
IERANGEMODE	TOGGLE	F	I/E AutoRange
IERANGE	IQUANT	9	I/E Range
ACHSELECT	IQUANT	0	Ach Select
ACHRANGE	IQUANT	2	Ach Range
ACHOFFSETENABLE	TOGGLE	F	Ach Offset Enable
ACHOFFSET	QUANT	0	Ach Offset (V)
ACHFILTER	IQUANT	1	Ach Filter
SENSECABLEID	IQUANT	14	Sense Cable ID
PWRCABLEID	IQUANT	14	Power Cable ID
DCCALDATE	LABEL	1/24/2022	DC Calibration Date
ACCALDATE	LABEL	4/2/2018	AC Calibration Date
FRAMEWORKVERSION	QUANT	7.06	Framework Version
INSTRUMENTVERSION	LABEL	4.30	Instrument Version
CURVE	TABLE	98
	Pt	T	Vf	Im	Vu	Sig	Ach	IERange	Over	Temp
	#	s	V vs. Ref.	A	V	V	V	#	bits	deg C
	0	-0.4	-1.06071E-003	-1.26138E-005	0.00000E+000	-6.72489E-005	0.00000E+000	9	...........	1426.22
	1	-0.3	-3.73890E-004	-1.25879E-005	0.00000E+000	-6.72489E-005	0.00000E+000	9	...........	1426.22
	2	-0.2	-2.23494E-004	-1.25688E-005	0.00000E+000	-6.72489E-005	0.00000E+000	9	...........	1426.22
	3	-0.1	-2.08031E-004	-1.25515E-005	0.00000E+000	-6.72489E-005	0.00000E+000	9	...........	1426.22
	4	0	-2.08011E-004	-1.25272E-005	0.00000E+000	-6.72489E-005	0.00000E+000	9	...........	1426.22
	5	0.1	-3.29270E-002	-6.35505E-004	0.00000E+000	-2.00066E-001	0.00000E+000	9	.........v.	1426.22
	6	0.2	-2.00249E-001	-4.53886E-004	0.00000E+000	-2.00066E-001	0.00000E+000	9	...........	1426.22
	7	0.3	-2.00248E-001	-3.91399E-004	0.00000E+000	-2.00066E-001	0.00000E+000	9	...........	1426.22
	8	0.4	-2.00248E-001	-3.53986E-004	0.00000E+000	-2.00066E-001	0.00000E+000	9	...........	1426.22
	9	0.5	-2.00250E-001	-3.25232E-004	0.00000E+000	-2.00066E-001	0.00000E+000	9	...........	1426.22
	10	0.6	-2.00248E-001	-3.01314E-004	0.00000E+000	-2.00066E-001	0.00000E+000	9	...........	1426.22
	11	0.7	-2.00247E-001	-2.80898E-004	0.00000E+000	-2.00066E-001	0.00000E+000	9	...........	1426.22
	12	0.8	-2.00250E-001	-2.63244E-004	0.00000E+000	-2.00066E-001	0.00000E+000	9	...........	1426.22
	13	0.9	-2.00248E-001	-2.47853E-004	0.00000E+000	-2.00066E-001	0.00000E+000	9	...........	1426.22
	14	1	-2.00248E-001	-2.34382E-004	0.00000E+000	-2.00066E-001	0.00000E+000	9	...........	1426.22
	15	1.1	-2.00250E-001	-2.22486E-004	0.00000E+000	-2.00066E-001	0.00000E+000	9	...........	1426.22
	16	1.2	-2.00249E-001	-2.11986E-004	0.00000E+000	-2.00066E-001	0.00000E+000	9	...........	1426.22
	17	1.3	-2.00249E-001	-2.02613E-004	0.00000E+000	-2.00066E-001	0.00000E+000	9	...........	1426.22
	18	1.4	-2.00250E-001	-1.94250E-004	0.00000E+000	-2.00066E-001	0.00000E+000	9	...........	1426.22
	19	1.5	-2.00248E-001	-1.86702E-004	0.00000E+000	-2.00066E-001	0.00000E+000	9	...........	1426.22
	20	1.6	-2.00248E-001	-1.79905E-004	0.00000E+000	-2.00066E-001	0.00000E+000	9	...........	1426.40
	21	1.7	-2.00248E-001	-1.73731E-004	0.00000E+000	-2.00066E-001	0.00000E+000	9	...........	1426.40
	22	1.8	-2.00248E-001	-1.68094E-004	0.00000E+000	-2.00066E-001	0.00000E+000	9	...........	1426.40
	23	1.9	-2.00250E-001	-1.62926E-004	0.00000E+000	-2.00066E-001	0.00000E+000	9	...........	1426.40
	24	2	-2.00249E-001	-1.58221E-004	0.00000E+000	-2.00066E-001	0.00000E+000	9	...........	1426.40
	25	2.1	-2.00250E-001	-1.53843E-004	0.00000E+000	-2.00066E-001	0.00000E+000	9	...........	1426.40
	26	2.2	-2.00249E-001	-1.49766E-004	0.00000E+000	-2.00066E-001	0.00000E+000	9	...........	1426.40
	27	2.3	-2.00250E-001	-1.46011E-004	0.00000E+000	-2.00066E-001	0.00000E+000	9	...........	1426.40
	28	2.4	-2.00250E-001	-1.42500E-004	0.00000E+000	-2.00066E-001	0.00000E+000	9	...........	1426.40
	29	2.5	-2.00251E-001	-1.39257E-004	0.00000E+000	-2.00066E-001	0.00000E+000	9	...........	1426.40
	30	2.6	-2.00249E-001	-1.36165E-004	0.00000E+000	-2.00066E-001	0.00000E+000	9	...........	1426.31
	31	2.7	-2.00251E-001	-1.33326E-004	0.00000E+000	-2.00066E-001	0.00000E+000	9	...........	1426.31
	32	2.8	-2.00250E-001	-1.30632E-004	0.00000E+000	-2.00066E-001	0.00000E+000	9	...........	1426.31
	33	2.9	-2.00250E-001	-1.28088E-004	0.00000E+000	-2.00066E-001	0.00000E+000	9	...........	1426.31
	34	3	-2.00250E-001	-1.25713E-004	0.00000E+000	-2.00066E-001	0.00000E+000	9	...........	1426.31
	35	3.1	-2.00250E-001	-1.23452E-004	0.00000E+000	-2.00066E-001	0.00000E+000	9	...........	1426.31
	36	3.2	-2.00252E-001	-1.21304E-004	0.00000E+000	-2.00066E-001	0.00000E+000	9	...........	1426.31
	37	3.3	-2.00250E-001	-1.19272E-004	0.00000E+000	-2.00066E-001	0.00000E+000	9	...........	1426.31
	38	3.4	-2.00250E-001	-1.17337E-004	0.00000E+000	-2.00066E-001	0.00000E+000	9	...........	1426.31
	39	3.5	-2.00250E-001	-1.15508E-004	0.00000E+000	-2.00066E-001	0.00000E+000	9	...........	1426.31
	40	3.6	-2.00250E-001	-1.13758E-004	0.00000E+000	-2.00066E-001	0.00000E+000	9	...........	1425.87
	41	3.7	-2.00251E-001	-1.12108E-004	0.00000E+000	-2.00066E-001	0.00000E+000	9	...........	1425.87
	42	3.8	-2.00251E-001	-1.10505E-004	0.00000E+000	-2.00066E-001	0.00000E+000	9	...........	1425.87
	43	3.9	-2.00251E-001	-1.08977E-004	0.00000E+000	-2.00066E-001	0.00000E+000	9	...........	1425.87
	44	4	-2.00252E-001	-1.07506E-004	0.00000E+000	-2.00066E-001	0.00000E+000	9	...........	1425.87
	45	4.1	-2.00252E-001	-1.06120E-004	0.00000E+000	-2.00066E-001	0.00000E+000	9	...........	1425.87
	46	4.2	-2.00250E-001	-1.04777E-004	0.00000E+000	-2.00066E-001	0.00000E+000	9	...........	1425.87
	47	4.3	-2.00252E-001	-1.03490E-004	0.00000E+000	-2.00066E-001	0.00000E+000	9	...........	1425.87
	48	4.4	-2.00249E-001	-1.02233E-004	0.00000E+000	-2.00066E-001	0.00000E+000	9	...........	1425.87
	49	4.5	-2.00251E-001	-1.01049E-004	0.00000E+000	-2.00066E-001	0.00000E+000	9	...........	1425.87
	50	4.6	-2.00251E-001	-9.99185E-005	0.00000E+000	-2.00066E-001	0.00000E+000	9	...........	1426.22
	51	4.7	-2.00251E-001	-9.88046E-005	0.00000E+000	-2.00066E-001	0.00000E+000	9	...........	1426.22
	52	4.8	-2.00250E-001	-9.77298E-005	0.00000E+000	-2.00066E-001	0.00000E+000	9	...........	1426.22
	53	4.9	-2.00250E-001	-9.66965E-005	0.00000E+000	-2.00066E-001	0.00000E+000	9	...........	1426.22
	54	5	-2.00250E-001	-9.57089E-005	0.00000E+000	-2.00066E-001	0.00000E+000	9	...........	1426.22
	55	5.1	-2.00251E-001	-9.47541E-005	0.00000E+000	-2.00066E-001	0.00000E+000	9	...........	1426.22
	56	5.2	-2.00248E-001	-9.37876E-005	0.00000E+000	-2.00066E-001	0.00000E+000	9	...........	1426.22
	57	5.3	-2.00251E-001	-9.29264E-005	0.00000E+000	-2.00066E-001	0.00000E+000	9	...........	1426.22
	58	5.4	-2.00251E-001	-9.20554E-005	0.00000E+000	-2.00066E-001	0.00000E+000	9	...........	1426.22
	59	5.5	-2.00250E-001	-9.12139E-005	0.00000E+000	-2.00066E-001	0.00000E+000	9	...........	1426.22
	60	5.6	-2.00249E-001	-9.03817E-005	0.00000E+000	-2.00066E-001	0.00000E+000	9	...........	1426.31
	61	5.7	-2.00248E-001	-8.95924E-005	0.00000E+000	-2.00066E-001	0.00000E+000	9	...........	1426.31
	62	5.8	-2.00250E-001	-8.88308E-005	0.00000E+000	-2.00066E-001	0.00000E+000	9	...........	1426.31
	63	5.9	-2.00251E-001	-8.81016E-005	0.00000E+000	-2.00066E-001	0.00000E+000	9	...........	1426.31
	64	6	-2.00252E-001	-8.73705E-005	0.00000E+000	-2.00066E-001	0.00000E+000	9	...........	1426.31
	65	6.1	-2.00251E-001	-8.66594E-005	0.00000E+000	-2.00066E-001	0.00000E+000	9	...........	1426.31
	66	7.1	-2.00252E-001	-8.06483E-005	0.00000E+000	-2.00066E-001	0.00000E+000	9	...........	1426.31
	67	8.1	-2.00252E-001	-7.59241E-005	0.00000E+000	-2.00066E-001	0.00000E+000	9	...........	1426.40
	68	9.1	-2.00251E-001	-7.20918E-005	0.00000E+000	-2.00066E-001	0.00000E+000	9	...........	1426.40
	69	10.1	-2.00251E-001	-6.90454E-005	0.00000E+000	-2.00066E-001	0.00000E+000	9	...........	1426.40
	70	11.1	-2.00251E-001	-6.64729E-005	0.00000E+000	-2.00066E-001	0.00000E+000	9	...........	1426.40
	71	12.1	-2.00252E-001	-6.43081E-005	0.00000E+000	-2.00066E-001	0.00000E+000	9	...........	1426.40
	72	13.1	-2.00251E-001	-6.24119E-005	0.00000E+000	-2.00066E-001	0.00000E+000	9	...........	1426.40
	73	14.1	-2.00253E-001	-6.07615E-005	0.00000E+000	-2.00066E-001	0.00000E+000	9	...........	1426.40
	74	15.1	-2.00253E-001	-5.93077E-005	0.00000E+000	-2.00066E-001	0.00000E+000	9	...........	1426.40
	75	16.1	-2.00251E-001	-5.80117E-005	0.00000E+000	-2.00066E-001	0.00000E+000	9	...........	1426.40
	76	26.1	-2.00253E-001	-4.98755E-005	0.00000E+000	-2.00066E-001	0.00000E+000	9	...........	1426.40
	77	36.1	-2.00252E-001	-4.59916E-005	0.00000E+000	-2.00066E-001	0.00000E+000	9	...........	1426.40
	78	46.1	-2.00253E-001	-4.37930E-005	0.00000E+000	-2.00066E-001	0.00000E+000	9	...........	1426.40
	79	56.1	-2.00254E-001	-4.21395E-005	0.00000E+000	-2.00066E-001	0.00000E+000	9	...........	1426.40
	80	66.1	-2.00254E-001	-4.06282E-005	0.00000E+000	-2.00066E-001	0.00000E+000	9	...........	1426.40
	81	76.1	-2.00254E-001	-3.97476E-005	0.00000E+000	-2.00066E-001	0.00000E+000	9	...........	1426.40
	82	86.1	-2.00253E-001	-3.83642E-005	0.00000E+000	-2.00066E-001	0.00000E+000	9	...........	1426.40
	83	96.1	-2.00254E-001	-3.76094E-005	0.00000E+000	-2.00066E-001	0.00000E+000	9	...........	1426.40
	84	106.1	-2.00254E-001	-3.69788E-005	0.00000E+000	-2.00066E-001	0.00000E+000	9	...........	1426.40
	85	116.1	-2.00252E-001	-3.65449E-005	0.00000E+000	-2.00066E-001	0.00000E+000	9	...........	1426.40
	86	216.1	-2.00255E-001	-3.30761E-005	0.00000E+000	-2.00066E-001	0.00000E+000	9	...........	1426.40
	87	300	-2.00253E-001	-3.14702E-005	0.00000E+000	-2.00066E-001	0.00000E+000	9	...........	1426.40
	88	300.1	-3.00259E-001	-2.99523E-004	0.00000E+000	-3.00066E-001	0.00000E+000	9	...........	1426.40
	89	300.2	-3.00423E-001	-1.81495E-004	0.00000E+000	-3.00066E-001	0.00000E+000	9	...........	1426.40
	90	300.3	-3.00432E-001	-1.42742E-004	0.00000E+000	-3.00066E-001	0.00000E+000	9	...........	1426.40
	91	300.4	-3.00432E-001	-1.26844E-004	0.00000E+000	-3.00066E-001	0.00000E+000	9	...........	1426.40
	92	300.5	-3.00422E-001	-1.19018E-004	0.00000E+000	-3.00066E-001	0.00000E+000	9	...........	1426.40
	93	300.6	-3.00421E-001	-1.14535E-004	0.00000E+000	-3.00066E-001	0.00000E+000	9	...........	1426.40
	94	300.7	-3.00413E-001	-1.11616E-004	0.00000E+000	-3.00066E-001	0.00000E+000	9	...........	1426.40
	95	300.8	-3.00412E-001	-1.09507E-004	0.00000E+000	-3.00066E-001	0.00000E+000	9	...........	1426.40
	96	300.9	-3.00405E-001	-1.07940E-004	0.00000E+000	-3.00066E-001	0.00000E+000	9	...........	1426.40
	97	301	-3.00406E-001	-1.06707E-004	0.00000E+000	-3.00066E-001	0.00000E+000	9	...........	1426.40
