EXPLAIN
TAG	CHRONOA
TITLE	LABEL	Chronoamperometry Scan	Test Identifier
DATE	LABEL	7/2/2022	Date
TIME	LABEL	9:54:11	Time
NOTES	NOTES	1	Notes...
	
PSTAT	PSTAT	IFC1010-21051	Potentiostat
VPRESTEP	POTEN	1.00000E-001	F	Pre-step Voltage (V)
TPRESTEP	QUANT	5.00000E-001	Pre-step Delay Time (s)
VSTEP1	POTEN	0.00000E+000	F	Step 1 Voltage (V)
TSTEP1	QUANT	6.00000E+001	Step 1 Time (s)
VSTEP2	POTEN	1.00000E-001	F	Step 2 Voltage (V)
TSTEP2	QUANT	1.00000E+000	Step 2 Time (s)
SAMPLETIME	QUANT	1.00000E-002	Sample Period (s)
DECIMATE	TOGGLE	T	Decimate
ILIMIT	QUANT	1.00000E+000	Limit I (mA/cm^2)
IMODE	SELECTOR	1	I/E Range Mode
IRANGE	QUANT	3.00000E-001	Max Current (mA)
EQDELAY	QUANT	5.00000E+000	Equil. Time (s)
SAMPLINGMODE	SELECTOR	1	Sampling Mode
AREA	QUANT	1.00000E+000	Sample Area (cm^2)
IRCOMP	SELECTOR	0	IRComp
PFCOR	QUANT	5.00000E+001	PF Corr. (ohm)
SEQUENCER	TOGGLE	TRUE	Run as Sequence
PSTATMODEL	IQUANT	64	Pstat Model
PSTATSECTION	LABEL	IFC1010-21051	Pstat Section
PSTATSERIALNO	LABEL	21051	Pstat Serial Number
CTRLMODE	IQUANT	1	Control Mode
ELECTROMETER	IQUANT	0	RE=0 or CS=1
IESTAB	IQUANT	0	I/E Stability
CASPEED	IQUANT	4	Control Amp Speed
CONVENTION	IQUANT	1	Current Convention
ICHRANGE	IQUANT	2	Ich Range
ICHRANGEMODE	TOGGLE	T	Ich Auto Range
ICHOFFSETENABLE	TOGGLE	F	Ich Offset Enable
ICHOFFSET	QUANT	0	Ich Offset (V)
ICHFILTER	IQUANT	3	Ich Filter
VCHRANGE	IQUANT	3	Vch Range
VCHRANGEMODE	TOGGLE	T	Vch Auto Range
VCHOFFSETENABLE	TOGGLE	F	Vch Offset Enable
VCHOFFSET	QUANT	0	Vch Offset (V)
VCHFILTER	IQUANT	3	Vch Filter
IERANGELOWERLIMIT	IQUANT	4	I/E Range Lower Limit
IERANGEMODE	TOGGLE	F	I/E AutoRange
IERANGE	IQUANT	9	I/E Range
ACHSELECT	IQUANT	0	Ach Select
ACHRANGE	IQUANT	2	Ach Range
ACHOFFSETENABLE	TOGGLE	F	Ach Offset Enable
ACHOFFSET	QUANT	0	Ach Offset (V)
ACHFILTER	IQUANT	1	Ach Filter
SENSECABLEID	IQUANT	14	Sense Cable ID
PWRCABLEID	IQUANT	14	Power Cable ID
DCCALDATE	LABEL	1/24/2022	DC Calibration Date
ACCALDATE	LABEL	4/2/2018	AC Calibration Date
FRAMEWORKVERSION	QUANT	7.06	Framework Version
INSTRUMENTVERSION	LABEL	4.30	Instrument Version
CURVE	TABLE	201
	Pt	T	Vf	Im	Vu	Sig	Ach	IERange	Over	Temp
	#	s	V vs. Ref.	A	V	V	V	#	bits	deg C
	0	-0.49	9.93877E-002	-5.57215E-005	0.00000E+000	9.99387E-002	0.00000E+000	9	...........	1424.27
	1	-0.48	9.98544E-002	-5.49346E-005	0.00000E+000	9.99387E-002	0.00000E+000	9	...........	1424.27
	2	-0.47	9.99874E-002	-5.55174E-005	0.00000E+000	9.99387E-002	0.00000E+000	9	...........	1424.27
	3	-0.46	9.99832E-002	-5.47591E-005	0.00000E+000	9.99387E-002	0.00000E+000	9	...........	1424.27
	4	-0.45	9.99870E-002	-5.53339E-005	0.00000E+000	9.99387E-002	0.00000E+000	9	...........	1424.27
	5	-0.44	9.99866E-002	-5.45711E-005	0.00000E+000	9.99387E-002	0.00000E+000	9	...........	1424.27
	6	-0.43	9.99827E-002	-5.51690E-005	0.00000E+000	9.99387E-002	0.00000E+000	9	...........	1424.27
	7	-0.42	9.99807E-002	-5.44163E-005	0.00000E+000	9.99387E-002	0.00000E+000	9	...........	1424.27
	8	-0.41	9.99820E-002	-5.49838E-005	0.00000E+000	9.99387E-002	0.00000E+000	9	...........	1424.27
	9	-0.4	9.99822E-002	-5.42430E-005	0.00000E+000	9.99387E-002	0.00000E+000	9	...........	1424.27
	10	-0.39	9.99846E-002	-5.48097E-005	0.00000E+000	9.99387E-002	0.00000E+000	9	...........	1424.27
	11	-0.38	9.99852E-002	-5.40818E-005	0.00000E+000	9.99387E-002	0.00000E+000	9	...........	1424.27
	12	-0.37	9.99836E-002	-5.46345E-005	0.00000E+000	9.99387E-002	0.00000E+000	9	...........	1424.27
	13	-0.36	9.99817E-002	-5.38954E-005	0.00000E+000	9.99387E-002	0.00000E+000	9	...........	1424.27
	14	-0.35	9.99840E-002	-5.44402E-005	0.00000E+000	9.99387E-002	0.00000E+000	9	...........	1424.27
	15	-0.34	9.99826E-002	-5.37428E-005	0.00000E+000	9.99387E-002	0.00000E+000	9	...........	1424.27
	16	-0.33	9.99856E-002	-5.42756E-005	0.00000E+000	9.99387E-002	0.00000E+000	9	...........	1424.27
	17	-0.32	9.99836E-002	-5.35740E-005	0.00000E+000	9.99387E-002	0.00000E+000	9	...........	1424.27
	18	-0.31	9.99849E-002	-5.40984E-005	0.00000E+000	9.99387E-002	0.00000E+000	9	...........	1424.27
	19	-0.3	9.99859E-002	-5.34024E-005	0.00000E+000	9.99387E-002	0.00000E+000	9	...........	1424.27
	20	-0.29	9.99862E-002	-5.39347E-005	0.00000E+000	9.99387E-002	0.00000E+000	9	...........	1424.27
	21	-0.28	9.99813E-002	-5.32581E-005	0.00000E+000	9.99387E-002	0.00000E+000	9	...........	1424.27
	22	-0.27	9.99868E-002	-5.37667E-005	0.00000E+000	9.99387E-002	0.00000E+000	9	...........	1424.27
	23	-0.26	9.99856E-002	-5.30946E-005	0.00000E+000	9.99387E-002	0.00000E+000	9	...........	1424.27
	24	-0.25	9.99868E-002	-5.36154E-005	0.00000E+000	9.99387E-002	0.00000E+000	9	...........	1424.27
	25	-0.24	9.99856E-002	-5.29331E-005	0.00000E+000	9.99387E-002	0.00000E+000	9	...........	1424.27
	26	-0.23	9.99845E-002	-5.34439E-005	0.00000E+000	9.99387E-002	0.00000E+000	9	...........	1424.27
	27	-0.22	9.99809E-002	-5.27890E-005	0.00000E+000	9.99387E-002	0.00000E+000	9	...........	1424.27
	28	-0.21	9.99862E-002	-5.32612E-005	0.00000E+000	9.99387E-002	0.00000E+000	9	...........	1424.25
	29	-0.2	9.99848E-002	-5.26219E-005	0.00000E+000	9.99387E-002	0.00000E+000	9	...........	1424.19
	30	-0.19	9.99868E-002	-5.30863E-005	0.00000E+000	9.99387E-002	0.00000E+000	9	...........	1424.19
	31	-0.18	9.99837E-002	-5.24684E-005	0.00000E+000	9.99387E-002	0.00000E+000	9	...........	1424.19
	32	-0.17	9.99897E-002	-5.29317E-005	0.00000E+000	9.99387E-002	0.00000E+000	9	...........	1424.19
	33	-0.16	9.99804E-002	-5.23074E-005	0.00000E+000	9.99387E-002	0.00000E+000	9	...........	1424.19
	34	-0.15	9.99852E-002	-5.27721E-005	0.00000E+000	9.99387E-002	0.00000E+000	9	...........	1424.19
	35	-0.14	9.99831E-002	-5.21525E-005	0.00000E+000	9.99387E-002	0.00000E+000	9	...........	1424.19
	36	-0.13	9.99873E-002	-5.26038E-005	0.00000E+000	9.99387E-002	0.00000E+000	9	...........	1424.19
	37	-0.12	9.99837E-002	-5.19907E-005	0.00000E+000	9.99387E-002	0.00000E+000	9	...........	1424.19
	38	-0.11	9.99860E-002	-5.24426E-005	0.00000E+000	9.99387E-002	0.00000E+000	9	...........	1424.19
	39	-0.1	9.99833E-002	-5.18405E-005	0.00000E+000	9.99387E-002	0.00000E+000	9	...........	1424.19
	40	-0.09	9.99862E-002	-5.22924E-005	0.00000E+000	9.99387E-002	0.00000E+000	9	...........	1424.19
	41	-0.08	9.99876E-002	-5.16793E-005	0.00000E+000	9.99387E-002	0.00000E+000	9	...........	1424.19
	42	-0.07	9.99869E-002	-5.21367E-005	0.00000E+000	9.99387E-002	0.00000E+000	9	...........	1424.19
	43	-0.06	9.99847E-002	-5.15444E-005	0.00000E+000	9.99387E-002	0.00000E+000	9	...........	1424.19
	44	-0.05	9.99856E-002	-5.19721E-005	0.00000E+000	9.99387E-002	0.00000E+000	9	...........	1424.19
	45	-0.04	9.99841E-002	-5.13884E-005	0.00000E+000	9.99387E-002	0.00000E+000	9	...........	1424.19
	46	-0.03	9.99862E-002	-5.18105E-005	0.00000E+000	9.99387E-002	0.00000E+000	9	...........	1424.19
	47	-0.02	9.99839E-002	-5.12461E-005	0.00000E+000	9.99387E-002	0.00000E+000	9	...........	1424.19
	48	-0.01	9.99850E-002	-5.16648E-005	0.00000E+000	9.99387E-002	0.00000E+000	9	...........	1424.19
	49	0	9.99817E-002	-5.11006E-005	0.00000E+000	9.99387E-002	0.00000E+000	9	...........	1424.19
	50	0.01	-2.22312E-005	-5.74836E-004	0.00000E+000	-6.08154E-005	0.00000E+000	9	...........	1424.19
	51	0.02	-1.96262E-005	-5.46092E-004	0.00000E+000	-6.08154E-005	0.00000E+000	9	...........	1424.19
	52	0.03	-1.31683E-005	-5.29337E-004	0.00000E+000	-6.08154E-005	0.00000E+000	9	...........	1424.19
	53	0.04	-1.75069E-005	-5.14313E-004	0.00000E+000	-6.08154E-005	0.00000E+000	9	...........	1424.19
	54	0.05	-1.65808E-005	-5.01595E-004	0.00000E+000	-6.08154E-005	0.00000E+000	9	...........	1424.19
	55	0.06	-1.86417E-005	-4.88815E-004	0.00000E+000	-6.08154E-005	0.00000E+000	9	...........	1424.19
	56	0.07	-1.58132E-005	-4.77721E-004	0.00000E+000	-6.08154E-005	0.00000E+000	9	...........	1424.19
	57	0.08	-1.91339E-005	-4.66297E-004	0.00000E+000	-6.08154E-005	0.00000E+000	9	...........	1424.19
	58	0.09	-1.64223E-005	-4.56325E-004	0.00000E+000	-6.08154E-005	0.00000E+000	9	...........	1424.19
	59	0.1	-1.82996E-005	-4.45918E-004	0.00000E+000	-6.08154E-005	0.00000E+000	9	...........	1424.19
	60	0.11	-1.67477E-005	-4.36861E-004	0.00000E+000	-6.08154E-005	0.00000E+000	9	...........	1424.19
	61	0.12	-1.77572E-005	-4.27290E-004	0.00000E+000	-6.08154E-005	0.00000E+000	9	...........	1424.19
	62	0.13	-1.39693E-005	-4.18987E-004	0.00000E+000	-6.08154E-005	0.00000E+000	9	...........	1424.19
	63	0.14	-1.89087E-005	-4.10181E-004	0.00000E+000	-6.08154E-005	0.00000E+000	9	...........	1424.19
	64	0.15	-1.62554E-005	-4.02571E-004	0.00000E+000	-6.08154E-005	0.00000E+000	9	...........	1424.19
	65	0.16	-1.91590E-005	-3.94397E-004	0.00000E+000	-6.08154E-005	0.00000E+000	9	...........	1424.19
	66	0.17	-1.76071E-005	-3.87359E-004	0.00000E+000	-6.08154E-005	0.00000E+000	9	...........	1424.19
	67	0.18	-1.95011E-005	-3.79791E-004	0.00000E+000	-6.08154E-005	0.00000E+000	9	...........	1424.19
	68	0.19	-1.95177E-005	-3.73282E-004	0.00000E+000	-6.08154E-005	0.00000E+000	9	...........	1424.19
	69	0.2	-1.80409E-005	-3.66194E-004	0.00000E+000	-6.08154E-005	0.00000E+000	9	...........	1424.19
	70	0.21	-1.73901E-005	-3.60173E-004	0.00000E+000	-6.08154E-005	0.00000E+000	9	...........	1424.19
	71	0.22	-2.13951E-005	-3.53560E-004	0.00000E+000	-6.08154E-005	0.00000E+000	9	...........	1424.19
	72	0.23	-1.77656E-005	-3.47960E-004	0.00000E+000	-6.08154E-005	0.00000E+000	9	...........	1424.19
	73	0.24	-1.62053E-005	-3.41759E-004	0.00000E+000	-6.08154E-005	0.00000E+000	9	...........	1424.19
	74	0.25	-1.79575E-005	-3.36536E-004	0.00000E+000	-6.08154E-005	0.00000E+000	9	...........	1424.19
	75	0.26	-2.08360E-005	-3.30754E-004	0.00000E+000	-6.08154E-005	0.00000E+000	9	...........	1424.19
	76	0.27	-1.95678E-005	-3.25890E-004	0.00000E+000	-6.08154E-005	0.00000E+000	9	...........	1424.19
	77	0.28	-1.80743E-005	-3.20413E-004	0.00000E+000	-6.08154E-005	0.00000E+000	9	...........	1424.19
	78	0.29	-1.93592E-005	-3.15867E-004	0.00000E+000	-6.08154E-005	0.00000E+000	9	...........	1424.19
	79	0.3	-1.88503E-005	-3.10723E-004	0.00000E+000	-6.08154E-005	0.00000E+000	9	...........	1424.19
	80	0.31	-1.54628E-005	-3.06457E-004	0.00000E+000	-6.08154E-005	0.00000E+000	9	...........	1424.19
	81	0.32	-1.86834E-005	-3.01636E-004	0.00000E+000	-6.08154E-005	0.00000E+000	9	...........	1424.19
	82	0.33	-1.78574E-005	-2.97649E-004	0.00000E+000	-6.08154E-005	0.00000E+000	9	...........	1424.19
	83	0.34	-1.82745E-005	-2.93075E-004	0.00000E+000	-6.08154E-005	0.00000E+000	9	...........	1424.19
	84	0.35	-1.42947E-005	-2.89317E-004	0.00000E+000	-6.08154E-005	0.00000E+000	9	...........	1424.19
	85	0.36	-1.82161E-005	-2.85026E-004	0.00000E+000	-6.08154E-005	0.00000E+000	9	...........	1424.19
	86	0.37	-1.73901E-005	-2.81484E-004	0.00000E+000	-6.08154E-005	0.00000E+000	9	...........	1424.19
	87	0.38	-1.71398E-005	-2.77412E-004	0.00000E+000	-6.08154E-005	0.00000E+000	9	...........	1424.19
	88	0.39	-1.45450E-005	-2.74073E-004	0.00000E+000	-6.08154E-005	0.00000E+000	9	...........	1424.19
	89	0.4	-1.87501E-005	-2.70219E-004	0.00000E+000	-6.08154E-005	0.00000E+000	9	...........	1424.19
	90	0.41	-1.53459E-005	-2.67084E-004	0.00000E+000	-6.08154E-005	0.00000E+000	9	...........	1424.19
	91	0.42	-1.70314E-005	-2.63411E-004	0.00000E+000	-6.08154E-005	0.00000E+000	9	...........	1424.19
	92	0.43	-1.55963E-005	-2.60456E-004	0.00000E+000	-6.08154E-005	0.00000E+000	9	...........	1424.19
	93	0.44	-1.79241E-005	-2.56998E-004	0.00000E+000	-6.08154E-005	0.00000E+000	9	...........	1424.19
	94	0.45	-1.66642E-005	-2.54207E-004	0.00000E+000	-6.08154E-005	0.00000E+000	9	...........	1424.19
	95	0.46	-2.04773E-005	-2.50898E-004	0.00000E+000	-6.08154E-005	0.00000E+000	9	...........	1424.19
	96	0.47	-1.65558E-005	-2.48262E-004	0.00000E+000	-6.08154E-005	0.00000E+000	9	...........	1424.19
	97	0.48	-1.93759E-005	-2.45128E-004	0.00000E+000	-6.08154E-005	0.00000E+000	9	...........	1424.19
	98	0.49	-1.57715E-005	-2.42609E-004	0.00000E+000	-6.08154E-005	0.00000E+000	9	...........	1424.19
	99	0.5	-2.13367E-005	-2.39639E-004	0.00000E+000	-6.08154E-005	0.00000E+000	9	...........	1424.19
	100	0.51	-1.47285E-005	-2.37230E-004	0.00000E+000	-6.08154E-005	0.00000E+000	9	...........	1424.19
	101	0.52	-1.96512E-005	-2.34413E-004	0.00000E+000	-6.08154E-005	0.00000E+000	9	...........	1424.19
	102	0.53	-1.72733E-005	-2.32145E-004	0.00000E+000	-6.08154E-005	0.00000E+000	9	...........	1424.19
	103	0.54	-1.82328E-005	-2.29437E-004	0.00000E+000	-6.08154E-005	0.00000E+000	9	...........	1424.19
	104	0.55	-1.95845E-005	-2.27302E-004	0.00000E+000	-6.08154E-005	0.00000E+000	9	...........	1424.19
	105	0.56	-1.94343E-005	-2.24721E-004	0.00000E+000	-6.08154E-005	0.00000E+000	9	...........	1424.19
	106	0.57	-1.82495E-005	-2.22672E-004	0.00000E+000	-6.08154E-005	0.00000E+000	9	...........	1424.19
	107	0.58	-1.90171E-005	-2.20211E-004	0.00000E+000	-6.08154E-005	0.00000E+000	9	...........	1424.19
	108	0.59	-1.58966E-005	-2.18253E-004	0.00000E+000	-6.08154E-005	0.00000E+000	9	...........	1424.19
	109	0.6	-2.05774E-005	-2.15909E-004	0.00000E+000	-6.08154E-005	0.00000E+000	9	...........	1424.19
	110	0.61	-1.73818E-005	-2.14064E-004	0.00000E+000	-6.08154E-005	0.00000E+000	9	...........	1424.19
	111	0.71	-1.88252E-005	-1.95594E-004	0.00000E+000	-6.08154E-005	0.00000E+000	9	...........	1424.19
	112	0.81	-2.04606E-005	-1.80602E-004	0.00000E+000	-6.08154E-005	0.00000E+000	9	...........	1423.92
	113	0.91	-2.02937E-005	-1.68200E-004	0.00000E+000	-6.08154E-005	0.00000E+000	9	...........	1423.92
	114	1.01	-1.83580E-005	-1.57751E-004	0.00000E+000	-6.08154E-005	0.00000E+000	9	...........	1423.92
	115	1.11	-1.96596E-005	-1.48814E-004	0.00000E+000	-6.08154E-005	0.00000E+000	9	...........	1423.92
	116	1.21	-2.05357E-005	-1.41115E-004	0.00000E+000	-6.08154E-005	0.00000E+000	9	...........	1423.92
	117	1.31	-1.85749E-005	-1.34346E-004	0.00000E+000	-6.08154E-005	0.00000E+000	9	...........	1423.92
	118	1.41	-1.86667E-005	-1.28392E-004	0.00000E+000	-6.08154E-005	0.00000E+000	9	...........	1423.92
	119	1.51	-1.88169E-005	-1.23149E-004	0.00000E+000	-6.08154E-005	0.00000E+000	9	...........	1423.92
	120	1.61	-1.85666E-005	-1.18449E-004	0.00000E+000	-6.08154E-005	0.00000E+000	9	...........	1423.92
	121	2.61	-1.83163E-005	-8.95770E-005	0.00000E+000	-6.08154E-005	0.00000E+000	9	...........	1424.45
	122	3.61	-1.62137E-005	-7.53062E-005	0.00000E+000	-6.08154E-005	0.00000E+000	9	...........	1424.45
	123	4.61	-2.00350E-005	-6.64256E-005	0.00000E+000	-6.08154E-005	0.00000E+000	9	...........	1424.45
	124	5.61	-2.35143E-005	-6.02122E-005	0.00000E+000	-6.08154E-005	0.00000E+000	9	...........	1424.54
	125	6.61	-2.16704E-005	-5.55216E-005	0.00000E+000	-6.08154E-005	0.00000E+000	9	...........	1424.54
	126	7.61	-1.79241E-005	-5.18136E-005	0.00000E+000	-6.08154E-005	0.00000E+000	9	...........	1424.54
	127	8.61	-2.07109E-005	-4.87896E-005	0.00000E+000	-6.08154E-005	0.00000E+000	9	...........	1424.54
	128	9.61	-2.35894E-005	-4.63477E-005	0.00000E+000	-6.08154E-005	0.00000E+000	9	...........	1424.54
	129	10.61	-2.08444E-005	-4.43220E-005	0.00000E+000	-6.08154E-005	0.00000E+000	9	...........	1424.54
	130	11.61	-2.29553E-005	-4.26177E-005	0.00000E+000	-6.08154E-005	0.00000E+000	9	...........	1424.54
	131	21.61	-2.16454E-005	-3.08050E-005	0.00000E+000	-6.08154E-005	0.00000E+000	9	...........	1424.63
	132	31.61	-2.29803E-005	-2.58891E-005	0.00000E+000	-6.08154E-005	0.00000E+000	9	...........	1424.63
	133	41.61	-2.19291E-005	-2.27350E-005	0.00000E+000	-6.08154E-005	0.00000E+000	9	...........	1424.63
	134	51.61	-2.18706E-005	-2.07632E-005	0.00000E+000	-6.08154E-005	0.00000E+000	9	...........	1424.54
	135	60	-2.05857E-005	-1.83171E-005	0.00000E+000	-6.08154E-005	0.00000E+000	9	...........	1424.54
	136	60.01	3.26887E-002	5.12854E-004	0.00000E+000	9.99387E-002	0.00000E+000	9	.........v.	1424.54
	137	60.02	9.87743E-002	4.79175E-004	0.00000E+000	9.99387E-002	0.00000E+000	9	...........	1424.54
	138	60.03	9.97484E-002	4.58604E-004	0.00000E+000	9.99387E-002	0.00000E+000	9	...........	1424.54
	139	60.04	9.99195E-002	4.44252E-004	0.00000E+000	9.99387E-002	0.00000E+000	9	...........	1424.54
	140	60.05	9.99490E-002	4.28635E-004	0.00000E+000	9.99387E-002	0.00000E+000	9	...........	1424.54
	141	60.06	9.99595E-002	4.16888E-004	0.00000E+000	9.99387E-002	0.00000E+000	9	...........	1424.54
	142	60.07	9.99629E-002	4.03014E-004	0.00000E+000	9.99387E-002	0.00000E+000	9	...........	1424.54
	143	60.08	9.99686E-002	3.92658E-004	0.00000E+000	9.99387E-002	0.00000E+000	9	...........	1424.54
	144	60.09	9.99711E-002	3.79957E-004	0.00000E+000	9.99387E-002	0.00000E+000	9	...........	1424.54
	145	60.1	9.99709E-002	3.70589E-004	0.00000E+000	9.99387E-002	0.00000E+000	9	...........	1424.54
	146	60.11	9.99700E-002	3.58832E-004	0.00000E+000	9.99387E-002	0.00000E+000	9	...........	1424.54
	147	60.12	9.99716E-002	3.50342E-004	0.00000E+000	9.99387E-002	0.00000E+000	9	...........	1424.54
	148	60.13	9.99716E-002	3.39387E-004	0.00000E+000	9.99387E-002	0.00000E+000	9	...........	1424.54
	149	60.14	9.99741E-002	3.31622E-004	0.00000E+000	9.99387E-002	0.00000E+000	9	...........	1424.54
	150	60.15	9.99779E-002	3.21368E-004	0.00000E+000	9.99387E-002	0.00000E+000	9	...........	1424.54
	151	60.16	9.99754E-002	3.14249E-004	0.00000E+000	9.99387E-002	0.00000E+000	9	...........	1424.54
	152	60.17	9.99740E-002	3.04606E-004	0.00000E+000	9.99387E-002	0.00000E+000	9	...........	1424.54
	153	60.18	9.99749E-002	2.98069E-004	0.00000E+000	9.99387E-002	0.00000E+000	9	...........	1424.54
	154	60.19	9.99786E-002	2.88994E-004	0.00000E+000	9.99387E-002	0.00000E+000	9	...........	1424.54
	155	60.2	9.99771E-002	2.82974E-004	0.00000E+000	9.99387E-002	0.00000E+000	9	...........	1424.54
	156	60.21	9.99791E-002	2.74404E-004	0.00000E+000	9.99387E-002	0.00000E+000	9	...........	1424.54
	157	60.22	9.99768E-002	2.68884E-004	0.00000E+000	9.99387E-002	0.00000E+000	9	...........	1424.54
	158	60.23	9.99783E-002	2.60780E-004	0.00000E+000	9.99387E-002	0.00000E+000	9	...........	1424.54
	159	60.24	9.99819E-002	2.55714E-004	0.00000E+000	9.99387E-002	0.00000E+000	9	...........	1424.54
	160	60.25	9.99790E-002	2.48010E-004	0.00000E+000	9.99387E-002	0.00000E+000	9	...........	1424.54
	161	60.26	9.99782E-002	2.43353E-004	0.00000E+000	9.99387E-002	0.00000E+000	9	...........	1424.54
	162	60.27	9.99792E-002	2.36048E-004	0.00000E+000	9.99387E-002	0.00000E+000	9	...........	1424.54
	163	60.28	9.99782E-002	2.31750E-004	0.00000E+000	9.99387E-002	0.00000E+000	9	...........	1424.54
	164	60.29	9.99782E-002	2.24818E-004	0.00000E+000	9.99387E-002	0.00000E+000	9	...........	1424.54
	165	60.3	9.99797E-002	2.20859E-004	0.00000E+000	9.99387E-002	0.00000E+000	9	...........	1424.54
	166	60.31	9.99774E-002	2.14246E-004	0.00000E+000	9.99387E-002	0.00000E+000	9	...........	1424.54
	167	60.32	9.99785E-002	2.10633E-004	0.00000E+000	9.99387E-002	0.00000E+000	9	...........	1424.54
	168	60.33	9.99793E-002	2.04325E-004	0.00000E+000	9.99387E-002	0.00000E+000	9	...........	1424.54
	169	60.34	9.99812E-002	2.01011E-004	0.00000E+000	9.99387E-002	0.00000E+000	9	...........	1424.54
	170	60.35	9.99800E-002	1.94979E-004	0.00000E+000	9.99387E-002	0.00000E+000	9	...........	1424.54
	171	60.36	9.99815E-002	1.91940E-004	0.00000E+000	9.99387E-002	0.00000E+000	9	...........	1424.54
	172	60.37	9.99782E-002	1.86173E-004	0.00000E+000	9.99387E-002	0.00000E+000	9	...........	1424.54
	173	60.38	9.99793E-002	1.83406E-004	0.00000E+000	9.99387E-002	0.00000E+000	9	...........	1424.54
	174	60.39	9.99792E-002	1.77882E-004	0.00000E+000	9.99387E-002	0.00000E+000	9	...........	1424.54
	175	60.4	9.99810E-002	1.75349E-004	0.00000E+000	9.99387E-002	0.00000E+000	9	...........	1424.54
	176	60.41	9.99806E-002	1.70050E-004	0.00000E+000	9.99387E-002	0.00000E+000	9	...........	1424.54
	177	60.42	9.99802E-002	1.67737E-004	0.00000E+000	9.99387E-002	0.00000E+000	9	...........	1424.54
	178	60.43	9.99768E-002	1.62657E-004	0.00000E+000	9.99387E-002	0.00000E+000	9	...........	1424.54
	179	60.44	9.99821E-002	1.60553E-004	0.00000E+000	9.99387E-002	0.00000E+000	9	...........	1424.54
	180	60.45	9.99812E-002	1.55665E-004	0.00000E+000	9.99387E-002	0.00000E+000	9	...........	1424.54
	181	60.46	9.99799E-002	1.53773E-004	0.00000E+000	9.99387E-002	0.00000E+000	9	...........	1424.54
	182	60.47	9.99798E-002	1.49070E-004	0.00000E+000	9.99387E-002	0.00000E+000	9	...........	1424.54
	183	60.48	9.99783E-002	1.47341E-004	0.00000E+000	9.99387E-002	0.00000E+000	9	...........	1424.54
	184	60.49	9.99812E-002	1.42821E-004	0.00000E+000	9.99387E-002	0.00000E+000	9	...........	1424.54
	185	60.5	9.99802E-002	1.41276E-004	0.00000E+000	9.99387E-002	0.00000E+000	9	...........	1424.54
	186	60.51	9.99788E-002	1.36911E-004	0.00000E+000	9.99387E-002	0.00000E+000	9	...........	1424.54
	187	60.52	9.99810E-002	1.35523E-004	0.00000E+000	9.99387E-002	0.00000E+000	9	...........	1424.54
	188	60.53	9.99795E-002	1.31299E-004	0.00000E+000	9.99387E-002	0.00000E+000	9	...........	1424.54
	189	60.54	9.99792E-002	1.30062E-004	0.00000E+000	9.99387E-002	0.00000E+000	9	...........	1424.54
	190	60.55	9.99794E-002	1.26005E-004	0.00000E+000	9.99387E-002	0.00000E+000	9	...........	1424.54
	191	60.56	9.99809E-002	1.24903E-004	0.00000E+000	9.99387E-002	0.00000E+000	9	...........	1424.54
	192	60.57	9.99778E-002	1.20971E-004	0.00000E+000	9.99387E-002	0.00000E+000	9	...........	1424.54
	193	60.58	9.99816E-002	1.20011E-004	0.00000E+000	9.99387E-002	0.00000E+000	9	...........	1424.54
	194	60.59	9.99776E-002	1.16198E-004	0.00000E+000	9.99387E-002	0.00000E+000	9	...........	1424.54
	195	60.6	9.99862E-002	1.15402E-004	0.00000E+000	9.99387E-002	0.00000E+000	9	...........	1424.54
	196	60.61	9.99827E-002	1.11692E-004	0.00000E+000	9.99387E-002	0.00000E+000	9	...........	1424.54
	197	60.71	9.99787E-002	9.21831E-005	0.00000E+000	9.99387E-002	0.00000E+000	9	...........	1424.54
	198	60.81	9.99793E-002	7.69546E-005	0.00000E+000	9.99387E-002	0.00000E+000	9	...........	1424.54
	199	60.91	9.99829E-002	6.49505E-005	0.00000E+000	9.99387E-002	0.00000E+000	9	...........	1424.54
	200	61	9.99784E-002	5.76991E-005	0.00000E+000	9.99387E-002	0.00000E+000	9	...........	1424.54
