Data from AgNPs_UA_5uM_CRN_500uM_AS_RamanShift__25__13-26-43-849.txt Node

Date: Wed Aug 17 13:26:43 BST 2022
User: TCL
Spectrometer: QEP01345
Trigger mode: 4
Integration Time (sec): 7.000000E0
Scans to average: 10
Electric dark correction enabled: true
Nonlinearity correction enabled: false
Boxcar width: 0
XAxis mode: Raman Shifts
Number of Pixels in Spectrum: 1044
>>>>>Begin Spectral Data<<<<<
46.04893	1.3
50.45542	-0.8
54.85868	-0.6
59.25871	0.8
63.6555	93.9
68.04907	100.4
72.43941	108.6
76.82654	114
81.21044	117.5
85.59113	120.6
89.96862	129
94.34289	132.5
98.71396	137.6
103.08183	144.3
107.4465	148.2
111.80798	153.4
116.16626	156.8
120.52136	167.1
124.87327	177.5
129.222	189.1
133.56755	209.4
137.90993	222
142.24913	249.9
146.58517	274.6
150.91804	319.9
155.24774	389.8
159.57429	489.7
163.89768	632.5
168.21792	840.6
172.53501	1165.5
176.84895	1623.6
181.15975	2284.7
185.46741	3229.9
189.77193	4480.9
194.07331	6065.1
198.37157	7879.2
202.6667	9888.9
206.9587	12042.4
211.24758	14339.5
215.53334	16965.6
219.81599	20003.2
224.09553	23488.4
228.37195	27274
232.64527	31030
236.91549	34391.9
241.18261	36855.6
245.44663	38507.3
249.70755	39885.7
253.96539	41383.2
258.22014	42520.6
262.4718	42743.5
266.72039	41740.8
270.96589	39624.9
275.20832	36855.3
279.44768	34200.9
283.68397	32289.1
287.91719	31527.9
292.14735	32331.7
296.37445	35141.5
300.59849	39775
304.81948	45482.2
309.03742	50288.5
313.25231	51454
317.46415	47104.2
321.67296	39415.2
325.87872	33252.2
330.08145	30686.1
334.28114	30939.7
338.47781	32617.2
342.67145	35068.4
346.86207	38915.6
351.04966	44974
355.23424	51474.8
359.4158	55162.8
363.59435	55406.4
367.76989	53469.4
371.94243	50806.3
376.11196	48422.9
380.27849	46398.1
384.44203	44218.7
388.60257	42193.9
392.76012	41023
396.91468	41319.3
401.06626	42804.3
405.21485	43232.9
409.36047	40228.4
413.50311	34516.7
417.64277	29208.9
421.77947	26025.3
425.9132	24538.2
430.04396	23904.1
434.17176	23998
438.2966	24818.3
442.41849	26172.9
446.53742	27511
450.6534	28297.4
454.76644	28219.2
458.87653	27472.4
462.98368	26442.3
467.08789	25437.8
471.18916	24261.9
475.2875	22786.7
479.38291	21476.7
483.4754	20555.2
487.56496	19979.4
491.6516	19663.2
495.73531	19653.3
499.81612	20097.7
503.89401	21056
507.96899	22372.3
512.04106	23941.4
516.11023	25563.5
520.1765	26642.5
524.23987	26581.4
528.30034	25766.8
532.35792	24813.5
536.41261	23682.8
540.46441	22193.1
544.51333	21287
548.55936	21408.7
552.60252	22534.5
556.64279	24086.1
560.6802	25696.8
564.71473	29416.7
568.7464	34735.5
572.7752	34807.7
576.80114	28127.9
580.82422	22318.3
584.84444	19722.3
588.86181	18904.3
592.87633	19104.1
596.888	20433
600.89682	24699.4
604.9028	38559.4
608.90594	72664.2
612.90624	111589.5
616.90371	97164.3
620.89834	48097.7
624.89015	27533.1
628.87913	24628
632.86528	26982.1
636.84862	28668.2
640.82913	25908.2
644.80683	21163.8
648.78172	18614.1
652.75379	19352.7
656.72306	23290.5
660.68952	26761.9
664.65319	24216.3
668.61405	19440.9
672.57211	17762.4
676.52738	17955.8
680.47986	17762.7
684.42955	16893.7
688.37646	16469.2
692.32058	16670.6
696.26192	17294.9
700.20048	18145.1
704.13626	18361.2
708.06928	17812
711.99952	17280.1
715.927	17415.2
719.85171	18136.3
723.77365	18567.6
727.69284	18144.1
731.60928	17567
735.52295	17405.9
739.43388	17475.8
743.34206	17654.3
747.24749	17543.5
751.15017	17687.1
755.05012	19348.5
758.94733	25295.3
762.8418	38760.7
766.73354	56186.1
770.62254	68578.5
774.50882	74515.6
778.39237	70578.2
782.27321	53106.2
786.15132	34445.2
790.02671	24116.4
793.89938	19880.1
797.76935	18107.8
801.6366	17306.2
805.50115	16867.5
809.36299	16544.2
813.22213	16317.1
817.07857	16227
820.93231	16429.2
824.78336	16955.2
828.63172	17608
832.47738	17722.2
836.32036	17073.9
840.16066	16207.3
843.99827	15677.4
847.8332	15536.3
851.66546	15654.8
855.49504	15832.6
859.32195	15863
863.1462	15728.5
866.96777	15545
870.78668	15446
874.60293	15563.1
878.41652	15949.7
882.22745	16527.3
886.03573	16858.2
889.84136	16757.3
893.64433	16644.2
897.44466	16817.7
901.24235	16921
905.0374	16426.4
908.8298	15710.2
912.61957	15162.9
916.40671	14959.8
920.19121	15153.5
923.97308	16006.6
927.75233	17928
931.52895	19750.2
935.30295	18721.1
939.07433	16031.6
942.84309	14043.3
946.60924	13037.4
950.37278	12614.6
954.13371	12489.3
957.89203	12462.3
961.64774	12443.2
965.40086	12396.2
969.15137	12276.5
972.89929	12265.9
976.64461	12257.5
980.38733	12261.3
984.12747	12257.8
987.86502	12338.6
991.59999	12489.8
995.33237	12792.2
999.06217	13233.8
1002.78939	13965.5
1006.51404	14912.8
1010.23611	15606
1013.95561	15530.1
1017.67255	15072.9
1021.38692	14447.5
1025.09872	13800.7
1028.80796	13471.7
1032.51465	13588
1036.21877	13975.4
1039.92035	14372.9
1043.61937	14838.6
1047.31584	15144.6
1051.00976	15074.3
1054.70114	14659.5
1058.38998	14365.8
1062.07627	14310.4
1065.76003	14283.1
1069.44126	14424.2
1073.11995	15171.5
1076.79611	16881.6
1080.46974	19772.6
1084.14085	23159.8
1087.80943	25412.7
1091.47549	25149.4
1095.13903	22708.2
1098.80005	19756.8
1102.45857	18240.4
1106.11456	18409.8
1109.76805	19936.1
1113.41903	23028.1
1117.06751	27822.8
1120.71348	34834.6
1124.35696	42740.8
1127.99793	45150.7
1131.63641	38964.8
1135.2724	30598.4
1138.90589	24992.2
1142.5369	21775.7
1146.16542	19806.4
1149.79145	18671.3
1153.415	18416.2
1157.03607	18824.5
1160.65467	20131.7
1164.27079	22507.1
1167.88443	26204.9
1171.49561	32419
1175.10432	42910.3
1178.71056	56037.5
1182.31434	64510.6
1185.91565	63795.7
1189.51451	56747.6
1193.11091	48228.4
1196.70485	41321.4
1200.29634	37465.6
1203.88538	33363.7
1207.47197	27525.6
1211.05612	22416.2
1214.63782	19414.9
1218.21708	17909.5
1221.79391	17286.6
1225.36829	17145.4
1228.94024	16948.1
1232.50976	16848.2
1236.07685	17023
1239.6415	17523.9
1243.20374	18228.6
1246.76355	18916.3
1250.32093	19781.8
1253.8759	21089.6
1257.42845	23187.1
1260.97859	26065.2
1264.52631	29157.9
1268.07163	31534.6
1271.61453	32660
1275.15503	32406.1
1278.69312	31987.2
1282.22882	33044.8
1285.76211	36090.2
1289.29301	39300.4
1292.82151	42059.4
1296.34761	45936.8
1299.87133	53477.3
1303.39266	67712.9
1306.9116	88719.9
1310.42815	106185.5
1313.94233	105114.3
1317.45412	86909.1
1320.96354	65529.5
1324.47058	48342.4
1327.97525	37474.1
1331.47754	32390
1334.97747	31644.2
1338.47502	34780.5
1341.97022	42353.2
1345.46305	53994.9
1348.95352	67627.4
1352.44163	84188.4
1355.92738	110295.5
1359.41078	145618.4
1362.89183	161963.6
1366.37053	135088.3
1369.84688	93429.9
1373.32088	65696.7
1376.79254	51401.1
1380.26186	42506.8
1383.72883	35181.5
1387.19347	29119.6
1390.65578	24593.8
1394.11575	21822.2
1397.57339	20487.6
1401.0287	19832
1404.48168	19501.8
1407.93234	19575.4
1411.38068	20511.8
1414.82669	21859.6
1418.27039	22676.7
1421.71177	22705.9
1425.15083	22749.1
1428.58758	23975.8
1432.02203	25373.8
1435.45416	25247.2
1438.88399	24017.5
1442.31151	23255.2
1445.73673	23326.5
1449.15965	23411.2
1452.58027	22908.5
1455.9986	22132.2
1459.41463	22197
1462.82837	23403.4
1466.23982	24927
1469.64898	25684.1
1473.05586	25615.1
1476.46045	25697.8
1479.86276	26657.8
1483.26279	28801.7
1486.66054	32461.3
1490.05602	38187.9
1493.44922	47026.2
1496.84016	61226.3
1500.22882	83005.9
1503.61521	112700.1
1506.99934	144597.2
1510.38121	165712.1
1513.76081	163458.4
1517.13816	136920.6
1520.51324	101065.6
1523.88607	71546.4
1527.25665	53137.9
1530.62498	42752.9
1533.99105	36539.9
1537.35488	32859.2
1540.71647	31300.6
1544.07581	31479.4
1547.4329	32777.4
1550.78776	34462.8
1554.14038	35956.4
1557.49077	37560.6
1560.83892	40616.6
1564.18484	46237.8
1567.52853	52538
1570.86999	56564.6
1574.20922	57268.3
1577.54624	53219.1
1580.88103	43312.7
1584.2136	33128.3
1587.54395	27348.1
1590.87208	26397.1
1594.19801	29196.3
1597.52172	32690.1
1600.84321	32872.5
1604.16251	29770.9
1607.47959	26150.9
1610.79447	22864
1614.10715	20131.7
1617.41763	18232.9
1620.7259	17459.8
1624.03199	17618.8
1627.33587	18609.7
1630.63757	20546.6
1633.93707	24068.8
1637.23439	30511.2
1640.52951	41820.4
1643.82246	59617.8
1647.11321	79695.8
1650.40179	89627.2
1653.68819	80825.5
1656.97241	60261.9
1660.25446	40951.5
1663.53433	28395.8
1666.81203	21329.7
1670.08756	17547.6
1673.36092	15379.8
1676.63211	14059.7
1679.90115	13154
1683.16801	12596.2
1686.43272	12180.7
1689.69527	11865.8
1692.95567	11645.8
1696.2139	11479.5
1699.46999	11391.3
1702.72392	11308.8
1705.97571	11289.1
1709.22535	11298.5
1712.47284	11380.9
1715.71819	11357.2
1718.96139	11254.8
1722.20246	11052.9
1725.44139	10738.4
1728.67818	10422.2
1731.91284	10132.7
1735.14537	9901.1
1738.37576	9782.4
1741.60403	9677.4
1744.83017	9630.6
1748.05418	9520.1
1751.27607	9410.9
1754.49584	9304.3
1757.71349	9114.2
1760.92903	8935.8
1764.14244	8709.4
1767.35375	8493.5
1770.56294	8271.6
1773.77002	8066.2
1776.97499	7890.6
1780.17785	7698.5
1783.37861	7588.8
1786.57727	7478.9
1789.77382	7425.7
1792.96828	7372.3
1796.16064	7332.6
1799.3509	7320.3
1802.53907	7243.2
1805.72514	7181.4
1808.90913	7092.6
1812.09102	7000.6
1815.27083	6951.7
1818.44856	6894.8
1821.6242	6860
1824.79776	6807.8
1827.96924	6695.1
1831.13864	6632.4
1834.30597	6554.3
1837.47122	6507.8
1840.6344	6432.5
1843.7955	6346.2
1846.95454	6325.1
1850.11151	6296.9
1853.26642	6283.1
1856.41926	6298.6
1859.57004	6287.2
1862.71876	6298.8
1865.86542	6318.5
1869.01003	6371
1872.15258	6392.9
1875.29308	6417.2
1878.43152	6396
1881.56792	6391.2
1884.70227	6352.6
1887.83457	6328.5
1890.96482	6301.2
1894.09304	6257.2
1897.21921	6249.8
1900.34335	6269.4
1903.46544	6263.2
1906.58551	6229.2
1909.70353	6239
1912.81953	6227.7
1915.93349	6198.3
1919.04543	6184.7
1922.15534	6110.5
1925.26322	6073.4
1928.36908	5957.3
1931.47292	5871.9
1934.57473	5753.9
1937.67453	5660.8
1940.77232	5579
1943.86808	5514.5
1946.96184	5488
1950.05358	5470.9
1953.14331	5462.1
1956.23103	5461.7
1959.31675	5498.8
1962.40046	5539.1
1965.48217	5588.2
1968.56188	5629.8
1971.63959	5679.2
1974.7153	5652.9
1977.78901	5564.5
1980.86073	5465.8
1983.93046	5361
1986.99819	5249.9
1990.06394	5174.1
1993.1277	5126.2
1996.18947	5046.6
1999.24925	4996.9
2002.30706	4968.5
2005.36288	4931.1
2008.41672	4885.5
2011.46859	4865.2
2014.51848	4825.1
2017.56639	4811.1
2020.61233	4786.3
2023.6563	4738.9
2026.6983	4720.1
2029.73833	4681.5
2032.7764	4671.2
2035.8125	4647.7
2038.84664	4644.9
2041.87881	4657.8
2044.90903	4624.9
2047.93729	4595.1
2050.96359	4565.8
2053.98794	4529.4
2057.01034	4497.4
2060.03078	4466.8
2063.04927	4425.5
2066.06582	4395.6
2069.08042	4361.9
2072.09307	4353.8
2075.10378	4367.5
2078.11255	4364.9
2081.11938	4398.6
2084.12426	4390.9
2087.12722	4371.6
2090.12824	4384.3
2093.12732	4391.6
2096.12447	4420.6
2099.11969	4415.3
2102.11299	4450.7
2105.10435	4451.5
2108.09379	4479.2
2111.08131	4483.9
2114.0669	4516.3
2117.05057	4538.9
2120.03233	4576.6
2123.01216	4606.6
2125.99008	4641.7
2128.96609	4630.4
2131.94018	4575.5
2134.91236	4526.5
2137.88263	4483.7
2140.851	4414.7
2143.81746	4346.8
2146.78201	4287.8
2149.74466	4222.5
2152.7054	4166.7
2155.66425	4111.2
2158.6212	4091.6
2161.57625	4059.6
2164.52941	4056.6
2167.48067	4047.3
2170.43004	4042.9
2173.37752	4051.3
2176.32311	4090.8
2179.26681	4104.2
2182.20863	4121.2
2185.14856	4097.7
2188.08661	4065.8
2191.02278	4041.1
2193.95707	3984.8
2196.88948	3945.6
2199.82001	3917.7
2202.74867	3917.6
2205.67545	3914.4
2208.60037	3928.9
2211.52341	3927.1
2214.44458	3902.3
2217.36388	3859.8
2220.28132	3841.8
2223.1969	3800.9
2226.11061	3780.3
2229.02246	3749.4
2231.93245	3742.4
2234.84058	3730.8
2237.74686	3730.9
2240.65128	3732.6
2243.55385	3750.4
2246.45456	3787.5
2249.35343	3840.2
2252.25044	3903
2255.14561	3983.1
2258.03893	4093.6
2260.93041	4161
2263.82004	4172.4
2266.70783	4154.6
2269.59378	4132.5
2272.4779	4104.1
2275.36017	4091.6
2278.24061	4065.7
2281.11922	4043.7
2283.996	3998.1
2286.87094	3950.6
2289.74405	3886
2292.61534	3824.2
2295.4848	3776.3
2298.35243	3730.1
2301.21824	3693.5
2304.08223	3684.7
2306.94439	3692.7
2309.80474	3684.7
2312.66327	3686.8
2315.51999	3668
2318.37489	3667.1
2321.22797	3652
2324.07925	3631.2
2326.92871	3615.6
2329.77637	3631.6
2332.62222	3622.2
2335.46626	3631.5
2338.3085	3646.1
2341.14893	3663.6
2343.98756	3692.5
2346.8244	3739.6
2349.65943	3767.6
2352.49267	3826.5
2355.32411	3882.1
2358.15376	3966.3
2360.98161	4045.4
2363.80768	4130.8
2366.63195	4198.4
2369.45444	4246.8
2372.27514	4274.5
2375.09405	4269.8
2377.91118	4209.5
2380.72652	4167.8
2383.54009	4104.6
2386.35187	4010.1
2389.16188	3917.2
2391.97011	3843.8
2394.77657	3768.5
2397.58125	3718.1
2400.38416	3657.9
2403.18529	3625.6
2405.98466	3583.4
2408.78226	3558.4
2411.57809	3552.6
2414.37216	3535.8
2417.16446	3524.3
2419.955	3545.4
2422.74378	3551.7
2425.5308	3584.7
2428.31606	3617.3
2431.09956	3633.5
2433.88131	3662.2
2436.6613	3706.5
2439.43954	3741.7
2442.21603	3784.2
2444.99077	3800.8
2447.76377	3839.9
2450.53501	3879.2
2453.30451	3882.2
2456.07226	3876.9
2458.83827	3884.6
2461.60254	3881.9
2464.36507	3852.7
2467.12586	3878.6
2469.88492	3863.7
2472.64224	3915.6
2475.39782	3972.1
2478.15167	4054.3
2480.90379	4151.4
2483.65417	4227.8
2486.40283	4323.9
2489.14976	4402.4
2491.89497	4423.3
2494.63845	4415.3
2497.3802	4392.1
2500.12024	4332.1
2502.85855	4215.8
2505.59514	4115.2
2508.33002	3975.2
2511.06318	3845.2
2513.79462	3699.7
2516.52435	3583.4
2519.25237	3496.3
2521.97867	3416.6
2524.70327	3369
2527.42616	3351.3
2530.14734	3340.8
2532.86681	3346.1
2535.58458	3353.8
2538.30065	3388.5
2541.01501	3404.7
2543.72768	3452.3
2546.43864	3481.9
2549.14791	3495.9
2551.85548	3528.2
2554.56136	3551.5
2557.26554	3560.4
2559.96803	3551.8
2562.66883	3555.3
2565.36794	3547.3
2568.06536	3526.9
2570.7611	3511.5
2573.45514	3487.7
2576.14751	3459.3
2578.83819	3437.2
2581.52719	3403.8
2584.21451	3367.2
2586.90015	3335.7
2589.58411	3329.8
2592.2664	3318.9
2594.94701	3312.4
2597.62594	3322.1
2600.30321	3312.6
2602.9788	3342.7
2605.65273	3359.1
2608.32498	3370
2610.99557	3390
2613.66449	3421.4
2616.33175	3421.3
2618.99734	3418.6
2621.66128	3401
2624.32355	3374.7
2626.98416	3344.5
2629.64311	3304.7
2632.30041	3267.7
2634.95605	3239.6
2637.61004	3194.3
2640.26238	3181
2642.91306	3174.7
2645.56209	3169.3
2648.20948	3167
2650.85521	3184.7
2653.4993	3190.2
2656.14175	3230.5
2658.78255	3265.7
2661.42171	3281.3
2664.05923	3326.8
2666.6951	3366.5
2669.32934	3402.9
2671.96194	3423.6
2674.59291	3409.8
2677.22224	3404.6
2679.84993	3415.4
2682.476	3389.3
2685.10043	3370.9
2687.72324	3361.6
2690.34441	3339.6
2692.96396	3339.5
2695.58188	3324.3
2698.19818	3317.1
2700.81285	3323.2
2703.4259	3323.2
2706.03733	3325.8
2708.64714	3352.5
2711.25533	3362.1
2713.86191	3376.1
2716.46687	3416
2719.07021	3433.6
2721.67194	3461.6
2724.27206	3451.5
2726.87057	3425.6
2729.46747	3405.4
2732.06276	3378.5
2734.65644	3340.2
2737.24852	3266.9
2739.83899	3250.9
2742.42786	3207
2745.01513	3175
2747.60079	3145.1
2750.18486	3108.1
2752.76733	3089.8
2755.3482	3067.5
2757.92747	3053.7
2760.50515	3040.9
2763.08123	3040
2765.65573	3025.7
2768.22863	3024.7
2770.79994	3040.7
2773.36967	3057
2775.9378	3082.7
2778.50435	3092.9
2781.06932	3125.7
2783.6327	3151.9
2786.1945	3194.2
2788.75471	3234
2791.31335	3262.6
2793.87041	3315.5
2796.42589	3354.5
2798.97979	3440.6
2801.53212	3486.3
2804.08288	3553.6
2806.63206	3625.5
2809.17967	3715.2
2811.72571	3783.9
2814.27018	3885
2816.81308	3961.4
2819.35442	4052.5
2821.89419	4110.7
2824.43239	4156.9
2826.96904	4195.2
2829.50412	4216.5
2832.03763	4217
2834.56959	4204.9
2837.1	4226.5
2839.62884	4230.6
2842.15613	4267.9
2844.68186	4311.1
2847.20604	4375.1
2849.72867	4455.7
2852.24974	4514.1
2854.76927	4604.2
2857.28724	4680.7
2859.80367	4776.7
2862.31855	4867.2
2864.83189	4979.5
2867.34368	5060.2
2869.85393	5171.4
2872.36264	5222.8
2874.8698	5258.9
2877.37543	5250.6
2879.87952	5243
2882.38207	5238.9
2884.88308	5234.3
2887.38256	5228.7
2889.88051	5227.6
2892.37692	5248
2894.8718	5236.5
2897.36515	5243.8
2899.85698	5268.4
2902.34727	5234.9
2904.83604	5212.5
2907.32328	5170.9
2909.809	5143.2
2912.29319	5091.3
2914.77587	5041.4
2917.25702	4995.1
2919.73665	4930.3
2922.21476	4877.3
2924.69136	4792.3
2927.16644	4752.6
2929.64	4673.8
2932.11205	4615.2
2934.58258	4550.6
2937.05161	4480.4
2939.51912	4422.3
2941.98513	4377.9
2944.44962	4315.1
2946.91261	4251.5
2949.37409	4206.5
2951.83407	4163.6
2954.29254	4102.2
2956.74951	4066.2
2959.20498	4019.4
2961.65895	3948.2
2964.11142	3919.3
2966.56239	3845
2969.01186	3781.6
2971.45984	3724
2973.90632	3665.1
2976.35131	3603.2
2978.7948	3557.6
2981.23681	3538.6
2983.67732	3510.3
2986.11635	3484.9
2988.55388	3491.6
2990.98993	3487.9
2993.4245	3508.8
2995.85758	3524.5
2998.28917	3539.5
3000.71928	3561.8
3003.14791	3565.9
3005.57506	3586.2
3008.00073	3579.9
3010.42493	3623.3
3012.84764	3588.3
3015.26888	3579.2
3017.68865	3562.9
3020.10694	3534.5
3022.52376	3513.6
3024.9391	3474.8
3027.35298	3422.7
3029.76539	3364.8
3032.17632	3317.8
3034.5858	3234.2
3036.9938	3195.5
3039.40034	3147.6
3041.80542	3114.9
3044.20903	3068
3046.61118	3053.2
3049.01187	3020.7
3051.4111	2991.9
3053.80888	2969.9
3056.20519	2949.4
3058.60005	2936.4
3060.99345	2912.2
3063.3854	2883.4
3065.7759	2872.2
3068.16494	2822.8
3070.55254	2802.9
3072.93868	2780.7
3075.32338	2750.3
3077.70662	2738.3
3080.08842	2736.6
3082.46878	2717.5
3084.84769	2718.6
3087.22515	2700.3
3089.60118	2701.8
3091.97576	2685.5
3094.3489	2692.9
3096.72061	2693.9
3099.09087	2686.7
3101.4597	2696.9
3103.82709	2700.2
3106.19305	2698.9
3108.55757	2690
3110.92066	2690.8
3113.28232	2697.9
3115.64255	2695
3118.00134	2696.9
3120.35871	2684.2
3122.71466	2694.9
3125.06917	2699
3127.42226	2701.8
3129.77393	2722
3132.12417	2726.9
3134.47299	2739.9
3136.82039	2759.6
3139.16636	2780.4
3141.51092	2789.6
3143.85406	2819.1
3146.19579	2812.7
3148.53609	2832.4
3150.87499	2853.8
3153.21246	2889.5
3155.54853	2914
3157.88318	2931.7
3160.21642	2952.1
3162.54826	2957.1
3164.87868	2954
3167.2077	2961.8
3169.5353	2960.4
3171.86151	2953
3174.18631	2953.9
3176.5097	2961.7
3178.83169	2957.5
3181.15228	2972.2
3183.47147	2972.2
3185.78926	2985.5
3188.10565	3007.2
3190.42065	3028.3
3192.73424	3046.1
3195.04645	3079.3
3197.35725	3098.7
3199.66667	3139.5
3201.97469	3163.3
3204.28132	3200.9
3206.58656	3247.8
3208.8904	3288.4
3211.19287	3325.1
3213.49394	3369.9
3215.79363	3391.3
3218.09193	3435.5
3220.38884	3463.8
3222.68438	3468.6
3224.97853	3492.1
3227.2713	3508
3229.56269	3527.2
3231.8527	3537.8
3234.14133	3525.5
3236.42858	3524.2
3238.71446	3547.8
3240.99896	3553.7
3243.28209	3562
3245.56384	3547.8
3247.84423	3559.5
3250.12324	3561.2
3252.40088	3580.5
3254.67715	3589.3
3256.95205	3603.5
3259.22558	3592.5
3261.49775	3620.6
3263.76855	3618.7
3266.03799	3623.5
3268.30606	3625.5
3270.57277	3636.3
3272.83812	3651.6
3275.10211	3651.8
3277.36474	3638.2
3279.62601	3660.5
3281.88593	3676.1
3284.14448	3686.5
3286.40168	3688.4
3288.65753	3701
3290.91202	3724.1
3293.16516	3715.4
3295.41695	3718
3297.66738	3697.7
3299.91647	3661.7
3302.16421	3609.5
3304.4106	3577.7
3306.65564	3519.5
3308.89933	3441.8
3311.14169	3409.1
3313.38269	3349.5
3315.62236	3300.3
3317.86068	3252.7
3320.09766	3216.4
3322.3333	3163.7
3324.5676	3112.2
3326.80056	3050.6
3329.03219	3021.5
3331.26248	1.8
3333.49143	-0.8
3335.71905	-1.7
