Data from AgNPs_UA_5uM_CRN_500uM_AS_RamanShift__10__13-09-13-830.txt Node

Date: Wed Aug 17 13:09:13 BST 2022
User: TCL
Spectrometer: QEP01345
Trigger mode: 4
Integration Time (sec): 7.000000E0
Scans to average: 10
Electric dark correction enabled: true
Nonlinearity correction enabled: false
Boxcar width: 0
XAxis mode: Raman Shifts
Number of Pixels in Spectrum: 1044
>>>>>Begin Spectral Data<<<<<
46.04893	2.4625
50.45542	-0.4375
54.85868	-1.2375
59.25871	-0.6375
63.6555	42.2625
68.04907	45.5625
72.43941	49.8625
76.82654	54.2625
81.21044	60.4625
85.59113	60.9625
89.96862	66.6625
94.34289	68.2625
98.71396	71.7625
103.08183	72.0625
107.4465	74.5625
111.80798	73.6625
116.16626	72.8625
120.52136	73.3625
124.87327	72.8625
129.222	70.4625
133.56755	74.3625
137.90993	72.1625
142.24913	73.5625
146.58517	74.3625
150.91804	77.8625
155.24774	82.2625
159.57429	92.1625
163.89768	108.0625
168.21792	122.3625
172.53501	149.4625
176.84895	192.1625
181.15975	249.8625
185.46741	335.4625
189.77193	456.0625
194.07331	625.2625
198.37157	810.5625
202.6667	1024.7625
206.9587	1250.9625
211.24758	1491.4625
215.53334	1735.9625
219.81599	1976.2625
224.09553	2206.4625
228.37195	2415.7625
232.64527	2631.6625
236.91549	2823.0625
241.18261	3022.0625
245.44663	3190.2625
249.70755	3319.7625
253.96539	3432.2625
258.22014	3473.6625
262.4718	3448.7625
266.72039	3401.8625
270.96589	3296.7625
275.20832	3165.0625
279.44768	2991.9625
283.68397	2838.8625
287.91719	2677.5625
292.14735	2525.1625
296.37445	2386.2625
300.59849	2264.5625
304.81948	2186.6625
309.03742	2104.8625
313.25231	2033.9625
317.46415	1984.3625
321.67296	1927.7625
325.87872	1894.2625
330.08145	1869.5625
334.28114	1857.0625
338.47781	1863.3625
342.67145	1874.4625
346.86207	1896.3625
351.04966	1888.4625
355.23424	1885.5625
359.4158	1866.4625
363.59435	1844.9625
367.76989	1844.6625
371.94243	1828.4625
376.11196	1820.3625
380.27849	1804.0625
384.44203	1796.8625
388.60257	1799.0625
392.76012	1800.0625
396.91468	1806.0625
401.06626	1799.1625
405.21485	1814.1625
409.36047	1816.9625
413.50311	1826.1625
417.64277	1826.5625
421.77947	1832.9625
425.9132	1838.2625
430.04396	1838.7625
434.17176	1854.9625
438.2966	1867.6625
442.41849	1890.1625
446.53742	1906.5625
450.6534	1922.8625
454.76644	1931.0625
458.87653	1964.0625
462.98368	1957.5625
467.08789	1966.0625
471.18916	1964.5625
475.2875	1964.9625
479.38291	1964.6625
483.4754	1978.5625
487.56496	1969.0625
491.6516	1975.7625
495.73531	1996.0625
499.81612	2006.8625
503.89401	2010.7625
507.96899	2011.6625
512.04106	1991.6625
516.11023	1985.1625
520.1765	1971.8625
524.23987	1957.4625
528.30034	1950.6625
532.35792	1959.0625
536.41261	1952.9625
540.46441	1950.6625
544.51333	1951.5625
548.55936	1960.6625
552.60252	1964.4625
556.64279	1971.5625
560.6802	1974.0625
564.71473	1997.7625
568.7464	2037.4625
572.7752	2073.0625
576.80114	2092.9625
580.82422	2086.5625
584.84444	2063.4625
588.86181	2052.2625
592.87633	2043.5625
596.888	2069.1625
600.89682	2093.4625
604.9028	2136.2625
608.90594	2160.3625
612.90624	2199.9625
616.90371	2201.3625
620.89834	2175.6625
624.89015	2158.9625
628.87913	2158.1625
632.86528	2139.9625
636.84862	2142.3625
640.82913	2167.7625
644.80683	2217.1625
648.78172	2251.4625
652.75379	2276.5625
656.72306	2292.2625
660.68952	2295.8625
664.65319	2352.1625
668.61405	2508.0625
672.57211	2767.2625
676.52738	3147.0625
680.47986	3507.0625
684.42955	3656.8625
688.37646	3557.7625
692.32058	3301.9625
696.26192	3039.6625
700.20048	2866.7625
704.13626	2753.7625
708.06928	2653.6625
711.99952	2539.8625
715.927	2467.8625
719.85171	2408.6625
723.77365	2406.6625
727.69284	2421.5625
731.60928	2441.0625
735.52295	2414.5625
739.43388	2381.9625
743.34206	2344.1625
747.24749	2336.4625
751.15017	2363.5625
755.05012	2404.0625
758.94733	2419.8625
762.8418	2446.5625
766.73354	2431.1625
770.62254	2393.7625
774.50882	2334.6625
778.39237	2279.6625
782.27321	2248.1625
786.15132	2220.6625
790.02671	2229.8625
793.89938	2211.1625
797.76935	2209.4625
801.6366	2220.9625
805.50115	2221.3625
809.36299	2211.3625
813.22213	2201.4625
817.07857	2183.3625
820.93231	2173.5625
824.78336	2161.8625
828.63172	2165.3625
832.47738	2162.8625
836.32036	2160.7625
840.16066	2161.2625
843.99827	2162.2625
847.8332	2174.9625
851.66546	2170.7625
855.49504	2188.4625
859.32195	2193.6625
863.1462	2213.6625
866.96777	2230.5625
870.78668	2245.7625
874.60293	2259.8625
878.41652	2263.4625
882.22745	2276.1625
886.03573	2271.3625
889.84136	2270.5625
893.64433	2259.4625
897.44466	2263.8625
901.24235	2263.8625
905.0374	2278.2625
908.8298	2280.8625
912.61957	2282.4625
916.40671	2284.0625
920.19121	2304.0625
923.97308	2309.8625
927.75233	2319.4625
931.52895	2325.4625
935.30295	2329.1625
939.07433	2311.4625
942.84309	2289.0625
946.60924	2270.2625
950.37278	2247.7625
954.13371	2231.4625
957.89203	2230.6625
961.64774	2243.3625
965.40086	2229.7625
969.15137	2219.5625
972.89929	2210.8625
976.64461	2191.4625
980.38733	2173.8625
984.12747	2171.9625
987.86502	2168.6625
991.59999	2166.2625
995.33237	2160.2625
999.06217	2169.2625
1002.78939	2173.3625
1006.51404	2169.2625
1010.23611	2167.1625
1013.95561	2176.7625
1017.67255	2183.0625
1021.38692	2189.2625
1025.09872	2193.5625
1028.80796	2198.3625
1032.51465	2230.5625
1036.21877	2241.5625
1039.92035	2254.0625
1043.61937	2300.9625
1047.31584	2349.9625
1051.00976	2369.8625
1054.70114	2369.6625
1058.38998	2358.3625
1062.07627	2322.4625
1065.76003	2291.1625
1069.44126	2260.7625
1073.11995	2221.4625
1076.79611	2200.3625
1080.46974	2178.8625
1084.14085	2164.2625
1087.80943	2164.3625
1091.47549	2153.5625
1095.13903	2155.7625
1098.80005	2150.5625
1102.45857	2132.5625
1106.11456	2141.0625
1109.76805	2146.2625
1113.41903	2147.7625
1117.06751	2156.9625
1120.71348	2157.5625
1124.35696	2173.4625
1127.99793	2184.0625
1131.63641	2188.7625
1135.2724	2193.6625
1138.90589	2190.8625
1142.5369	2203.8625
1146.16542	2195.9625
1149.79145	2191.6625
1153.415	2196.4625
1157.03607	2198.6625
1160.65467	2196.4625
1164.27079	2199.4625
1167.88443	2203.8625
1171.49561	2204.0625
1175.10432	2210.6625
1178.71056	2213.2625
1182.31434	2223.2625
1185.91565	2232.1625
1189.51451	2228.7625
1193.11091	2210.7625
1196.70485	2212.2625
1200.29634	2205.8625
1203.88538	2187.1625
1207.47197	2184.7625
1211.05612	2180.9625
1214.63782	2188.7625
1218.21708	2187.8625
1221.79391	2198.3625
1225.36829	2212.3625
1228.94024	2214.7625
1232.50976	2251.5625
1236.07685	2271.6625
1239.6415	2317.3625
1243.20374	2348.9625
1246.76355	2384.7625
1250.32093	2408.4625
1253.8759	2425.3625
1257.42845	2447.2625
1260.97859	2419.0625
1264.52631	2406.2625
1268.07163	2375.5625
1271.61453	2367.4625
1275.15503	2332.7625
1278.69312	2325.3625
1282.22882	2325.8625
1285.76211	2323.5625
1289.29301	2328.7625
1292.82151	2328.5625
1296.34761	2335.3625
1299.87133	2340.6625
1303.39266	2350.1625
1306.9116	2351.4625
1310.42815	2368.9625
1313.94233	2378.2625
1317.45412	2377.2625
1320.96354	2379.5625
1324.47058	2379.2625
1327.97525	2382.4625
1331.47754	2394.9625
1334.97747	2399.1625
1338.47502	2414.2625
1341.97022	2449.3625
1345.46305	2469.4625
1348.95352	2512.3625
1352.44163	2543.3625
1355.92738	2562.4625
1359.41078	2612.3625
1362.89183	2642.0625
1366.37053	2642.3625
1369.84688	2623.6625
1373.32088	2575.3625
1376.79254	2545.5625
1380.26186	2506.0625
1383.72883	2482.5625
1387.19347	2460.5625
1390.65578	2443.5625
1394.11575	2421.8625
1397.57339	2426.8625
1401.0287	2442.0625
1404.48168	2461.4625
1407.93234	2501.8625
1411.38068	2533.1625
1414.82669	2563.3625
1418.27039	2582.7625
1421.71177	2582.5625
1425.15083	2535.4625
1428.58758	2459.4625
1432.02203	2413.8625
1435.45416	2373.8625
1438.88399	2355.6625
1442.31151	2344.8625
1445.73673	2366.3625
1449.15965	2366.2625
1452.58027	2399.0625
1455.9986	2399.2625
1459.41463	2421.6625
1462.82837	2424.0625
1466.23982	2417.4625
1469.64898	2414.4625
1473.05586	2384.6625
1476.46045	2344.3625
1479.86276	2311.3625
1483.26279	2263.5625
1486.66054	2243.3625
1490.05602	2233.6625
1493.44922	2226.5625
1496.84016	2224.4625
1500.22882	2229.7625
1503.61521	2254.7625
1506.99934	2266.4625
1510.38121	2275.8625
1513.76081	2277.6625
1517.13816	2255.6625
1520.51324	2259.7625
1523.88607	2254.0625
1527.25665	2250.2625
1530.62498	2237.6625
1533.99105	2249.7625
1537.35488	2258.9625
1540.71647	2266.4625
1544.07581	2274.9625
1547.4329	2296.4625
1550.78776	2296.4625
1554.14038	2309.7625
1557.49077	2320.0625
1560.83892	2331.1625
1564.18484	2334.3625
1567.52853	2328.1625
1570.86999	2334.9625
1574.20922	2339.6625
1577.54624	2321.8625
1580.88103	2324.7625
1584.2136	2317.7625
1587.54395	2312.8625
1590.87208	2309.3625
1594.19801	2308.0625
1597.52172	2317.2625
1600.84321	2311.7625
1604.16251	2317.8625
1607.47959	2293.4625
1610.79447	2279.7625
1614.10715	2259.2625
1617.41763	2237.3625
1620.7259	2216.5625
1624.03199	2208.1625
1627.33587	2197.7625
1630.63757	2183.1625
1633.93707	2176.2625
1637.23439	2178.3625
1640.52951	2183.7625
1643.82246	2194.8625
1647.11321	2198.7625
1650.40179	2228.6625
1653.68819	2233.7625
1656.97241	2229.4625
1660.25446	2216.4625
1663.53433	2219.3625
1666.81203	2222.1625
1670.08756	2230.0625
1673.36092	2239.5625
1676.63211	2258.5625
1679.90115	2257.2625
1683.16801	2271.9625
1686.43272	2265.7625
1689.69527	2268.4625
1692.95567	2263.6625
1696.2139	2269.9625
1699.46999	2265.8625
1702.72392	2245.5625
1705.97571	2232.7625
1709.22535	2231.8625
1712.47284	2214.4625
1715.71819	2204.3625
1718.96139	2183.5625
1722.20246	2178.1625
1725.44139	2193.0625
1728.67818	2199.5625
1731.91284	2198.0625
1735.14537	2209.4625
1738.37576	2230.5625
1741.60403	2277.6625
1744.83017	2339.5625
1748.05418	2441.9625
1751.27607	2577.0625
1754.49584	2717.4625
1757.71349	2854.3625
1760.92903	2920.3625
1764.14244	2935.0625
1767.35375	2870.0625
1770.56294	2746.0625
1773.77002	2627.6625
1776.97499	2537.0625
1780.17785	2475.5625
1783.37861	2414.7625
1786.57727	2354.4625
1789.77382	2298.0625
1792.96828	2231.7625
1796.16064	2181.6625
1799.3509	2120.1625
1802.53907	2075.4625
1805.72514	2035.2625
1808.90913	2002.5625
1812.09102	1964.9625
1815.27083	1940.7625
1818.44856	1917.1625
1821.6242	1899.5625
1824.79776	1873.3625
1827.96924	1856.8625
1831.13864	1823.9625
1834.30597	1814.0625
1837.47122	1800.0625
1840.6344	1790.0625
1843.7955	1780.1625
1846.95454	1753.7625
1850.11151	1759.4625
1853.26642	1752.6625
1856.41926	1748.8625
1859.57004	1739.7625
1862.71876	1728.6625
1865.86542	1742.5625
1869.01003	1737.5625
1872.15258	1735.0625
1875.29308	1741.7625
1878.43152	1748.3625
1881.56792	1746.1625
1884.70227	1736.1625
1887.83457	1747.3625
1890.96482	1746.3625
1894.09304	1733.6625
1897.21921	1748.3625
1900.34335	1748.9625
1903.46544	1762.1625
1906.58551	1745.3625
1909.70353	1743.9625
1912.81953	1765.7625
1915.93349	1760.1625
1919.04543	1771.9625
1922.15534	1774.2625
1925.26322	1774.4625
1928.36908	1777.8625
1931.47292	1779.4625
1934.57473	1787.4625
1937.67453	1773.0625
1940.77232	1768.9625
1943.86808	1769.0625
1946.96184	1770.5625
1950.05358	1762.9625
1953.14331	1755.1625
1956.23103	1744.4625
1959.31675	1742.8625
1962.40046	1736.4625
1965.48217	1729.1625
1968.56188	1722.4625
1971.63959	1713.3625
1974.7153	1697.0625
1977.78901	1692.6625
1980.86073	1677.7625
1983.93046	1669.2625
1986.99819	1668.4625
1990.06394	1649.0625
1993.1277	1655.5625
1996.18947	1632.0625
1999.24925	1637.6625
2002.30706	1620.2625
2005.36288	1614.8625
2008.41672	1604.5625
2011.46859	1598.0625
2014.51848	1600.5625
2017.56639	1593.5625
2020.61233	1591.9625
2023.6563	1589.4625
2026.6983	1573.2625
2029.73833	1569.1625
2032.7764	1561.4625
2035.8125	1546.5625
2038.84664	1553.9625
2041.87881	1549.5625
2044.90903	1544.4625
2047.93729	1540.6625
2050.96359	1537.6625
2053.98794	1538.1625
2057.01034	1544.7625
2060.03078	1543.5625
2063.04927	1546.2625
2066.06582	1540.3625
2069.08042	1536.0625
2072.09307	1538.3625
2075.10378	1545.3625
2078.11255	1553.1625
2081.11938	1551.0625
2084.12426	1549.9625
2087.12722	1556.6625
2090.12824	1567.0625
2093.12732	1569.9625
2096.12447	1557.5625
2099.11969	1568.0625
2102.11299	1571.9625
2105.10435	1575.4625
2108.09379	1568.7625
2111.08131	1567.7625
2114.0669	1572.6625
2117.05057	1585.9625
2120.03233	1578.8625
2123.01216	1583.3625
2125.99008	1591.9625
2128.96609	1585.1625
2131.94018	1592.1625
2134.91236	1589.4625
2137.88263	1588.0625
2140.851	1595.9625
2143.81746	1594.0625
2146.78201	1588.5625
2149.74466	1586.1625
2152.7054	1579.6625
2155.66425	1581.7625
2158.6212	1585.7625
2161.57625	1566.7625
2164.52941	1567.5625
2167.48067	1565.6625
2170.43004	1553.7625
2173.37752	1547.9625
2176.32311	1550.3625
2179.26681	1552.0625
2182.20863	1546.7625
2185.14856	1542.1625
2188.08661	1551.7625
2191.02278	1540.9625
2193.95707	1544.6625
2196.88948	1536.2625
2199.82001	1533.0625
2202.74867	1522.5625
2205.67545	1529.9625
2208.60037	1519.3625
2211.52341	1516.0625
2214.44458	1526.3625
2217.36388	1509.4625
2220.28132	1508.8625
2223.1969	1497.2625
2226.11061	1502.8625
2229.02246	1503.4625
2231.93245	1494.1625
2234.84058	1494.7625
2237.74686	1490.1625
2240.65128	1484.2625
2243.55385	1479.7625
2246.45456	1480.0625
2249.35343	1477.4625
2252.25044	1477.7625
2255.14561	1478.9625
2258.03893	1474.1625
2260.93041	1472.7625
2263.82004	1465.5625
2266.70783	1470.7625
2269.59378	1458.5625
2272.4779	1454.6625
2275.36017	1445.0625
2278.24061	1450.9625
2281.11922	1448.2625
2283.996	1439.8625
2286.87094	1439.0625
2289.74405	1433.8625
2292.61534	1440.5625
2295.4848	1428.4625
2298.35243	1437.4625
2301.21824	1426.0625
2304.08223	1432.1625
2306.94439	1424.3625
2309.80474	1430.0625
2312.66327	1429.9625
2315.51999	1422.4625
2318.37489	1427.0625
2321.22797	1425.0625
2324.07925	1414.6625
2326.92871	1412.1625
2329.77637	1412.4625
2332.62222	1416.5625
2335.46626	1401.5625
2338.3085	1403.6625
2341.14893	1403.8625
2343.98756	1402.8625
2346.8244	1405.0625
2349.65943	1397.3625
2352.49267	1393.3625
2355.32411	1399.6625
2358.15376	1394.9625
2360.98161	1392.7625
2363.80768	1396.0625
2366.63195	1397.0625
2369.45444	1394.7625
2372.27514	1401.9625
2375.09405	1386.3625
2377.91118	1392.6625
2380.72652	1381.3625
2383.54009	1391.7625
2386.35187	1382.3625
2389.16188	1391.3625
2391.97011	1376.3625
2394.77657	1374.7625
2397.58125	1378.3625
2400.38416	1377.5625
2403.18529	1371.0625
2405.98466	1367.3625
2408.78226	1382.2625
2411.57809	1366.1625
2414.37216	1364.6625
2417.16446	1357.4625
2419.955	1358.1625
2422.74378	1365.0625
2425.5308	1355.3625
2428.31606	1355.1625
2431.09956	1361.4625
2433.88131	1352.0625
2436.6613	1352.4625
2439.43954	1347.3625
2442.21603	1339.9625
2444.99077	1346.8625
2447.76377	1349.3625
2450.53501	1342.2625
2453.30451	1355.5625
2456.07226	1340.2625
2458.83827	1340.1625
2461.60254	1338.0625
2464.36507	1335.8625
2467.12586	1338.4625
2469.88492	1333.1625
2472.64224	1320.3625
2475.39782	1331.5625
2478.15167	1336.0625
2480.90379	1328.5625
2483.65417	1333.6625
2486.40283	1326.3625
2489.14976	1322.1625
2491.89497	1328.1625
2494.63845	1325.1625
2497.3802	1324.4625
2500.12024	1319.8625
2502.85855	1318.1625
2505.59514	1319.8625
2508.33002	1325.5625
2511.06318	1316.4625
2513.79462	1310.9625
2516.52435	1314.9625
2519.25237	1311.3625
2521.97867	1309.6625
2524.70327	1311.7625
2527.42616	1316.5625
2530.14734	1307.8625
2532.86681	1305.1625
2535.58458	1304.2625
2538.30065	1301.6625
2541.01501	1296.8625
2543.72768	1289.9625
2546.43864	1294.5625
2549.14791	1292.3625
2551.85548	1287.2625
2554.56136	1287.5625
2557.26554	1287.8625
2559.96803	1295.8625
2562.66883	1282.9625
2565.36794	1280.3625
2568.06536	1282.8625
2570.7611	1277.4625
2573.45514	1268.1625
2576.14751	1274.3625
2578.83819	1272.5625
2581.52719	1257.8625
2584.21451	1271.5625
2586.90015	1268.5625
2589.58411	1264.3625
2592.2664	1260.1625
2594.94701	1263.6625
2597.62594	1257.2625
2600.30321	1258.3625
2602.9788	1258.1625
2605.65273	1246.4625
2608.32498	1247.4625
2610.99557	1248.5625
2613.66449	1244.7625
2616.33175	1234.6625
2618.99734	1246.5625
2621.66128	1244.8625
2624.32355	1232.7625
2626.98416	1233.2625
2629.64311	1235.4625
2632.30041	1233.5625
2634.95605	1238.2625
2637.61004	1234.7625
2640.26238	1233.2625
2642.91306	1226.5625
2645.56209	1237.4625
2648.20948	1237.4625
2650.85521	1233.7625
2653.4993	1236.2625
2656.14175	1235.2625
2658.78255	1233.7625
2661.42171	1241.2625
2664.05923	1239.6625
2666.6951	1239.2625
2669.32934	1242.0625
2671.96194	1238.1625
2674.59291	1238.7625
2677.22224	1237.8625
2679.84993	1237.0625
2682.476	1234.5625
2685.10043	1239.3625
2687.72324	1235.2625
2690.34441	1239.6625
2692.96396	1232.7625
2695.58188	1243.2625
2698.19818	1244.7625
2700.81285	1244.6625
2703.4259	1237.3625
2706.03733	1235.6625
2708.64714	1244.1625
2711.25533	1242.5625
2713.86191	1236.3625
2716.46687	1246.1625
2719.07021	1241.1625
2721.67194	1245.2625
2724.27206	1249.6625
2726.87057	1247.8625
2729.46747	1240.6625
2732.06276	1247.4625
2734.65644	1248.3625
2737.24852	1239.2625
2739.83899	1239.0625
2742.42786	1244.9625
2745.01513	1227.4625
2747.60079	1233.7625
2750.18486	1238.1625
2752.76733	1231.5625
2755.3482	1228.8625
2757.92747	1229.7625
2760.50515	1233.1625
2763.08123	1225.9625
2765.65573	1224.5625
2768.22863	1229.5625
2770.79994	1221.7625
2773.36967	1217.7625
2775.9378	1213.3625
2778.50435	1219.0625
2781.06932	1224.8625
2783.6327	1227.3625
2786.1945	1224.2625
2788.75471	1226.0625
2791.31335	1226.8625
2793.87041	1222.1625
2796.42589	1223.1625
2798.97979	1221.0625
2801.53212	1221.4625
2804.08288	1226.9625
2806.63206	1224.0625
2809.17967	1231.3625
2811.72571	1220.3625
2814.27018	1230.4625
2816.81308	1217.0625
2819.35442	1230.4625
2821.89419	1222.8625
2824.43239	1224.9625
2826.96904	1222.5625
2829.50412	1227.8625
2832.03763	1224.9625
2834.56959	1225.3625
2837.1	1227.4625
2839.62884	1229.3625
2842.15613	1238.3625
2844.68186	1231.9625
2847.20604	1241.9625
2849.72867	1238.4625
2852.24974	1241.0625
2854.76927	1241.1625
2857.28724	1242.1625
2859.80367	1235.2625
2862.31855	1246.0625
2864.83189	1234.2625
2867.34368	1241.4625
2869.85393	1237.0625
2872.36264	1240.9625
2874.8698	1245.6625
2877.37543	1252.2625
2879.87952	1261.1625
2882.38207	1268.7625
2884.88308	1279.3625
2887.38256	1283.2625
2889.88051	1288.6625
2892.37692	1299.6625
2894.8718	1310.3625
2897.36515	1327.7625
2899.85698	1329.9625
2902.34727	1341.0625
2904.83604	1356.9625
2907.32328	1373.4625
2909.809	1378.4625
2912.29319	1387.1625
2914.77587	1404.0625
2917.25702	1418.0625
2919.73665	1427.5625
2922.21476	1436.2625
2924.69136	1444.6625
2927.16644	1476.2625
2929.64	1479.9625
2932.11205	1492.9625
2934.58258	1503.0625
2937.05161	1519.3625
2939.51912	1534.2625
2941.98513	1561.1625
2944.44962	1574.2625
2946.91261	1592.6625
2949.37409	1609.2625
2951.83407	1627.2625
2954.29254	1629.0625
2956.74951	1613.5625
2959.20498	1597.3625
2961.65895	1576.8625
2964.11142	1564.2625
2966.56239	1528.2625
2969.01186	1495.2625
2971.45984	1472.1625
2973.90632	1441.4625
2976.35131	1432.2625
2978.7948	1409.6625
2981.23681	1406.7625
2983.67732	1389.2625
2986.11635	1379.0625
2988.55388	1377.4625
2990.98993	1367.8625
2993.4245	1361.4625
2995.85758	1362.4625
2998.28917	1355.5625
3000.71928	1364.9625
3003.14791	1361.9625
3005.57506	1363.3625
3008.00073	1360.1625
3010.42493	1366.9625
3012.84764	1365.6625
3015.26888	1362.1625
3017.68865	1367.4625
3020.10694	1365.2625
3022.52376	1362.1625
3024.9391	1362.3625
3027.35298	1356.6625
3029.76539	1348.9625
3032.17632	1341.5625
3034.5858	1341.5625
3036.9938	1326.4625
3039.40034	1324.6625
3041.80542	1322.5625
3044.20903	1316.7625
3046.61118	1323.1625
3049.01187	1319.1625
3051.4111	1307.9625
3053.80888	1317.5625
3056.20519	1311.4625
3058.60005	1315.3625
3060.99345	1312.6625
3063.3854	1314.6625
3065.7759	1311.3625
3068.16494	1318.8625
3070.55254	1308.3625
3072.93868	1306.9625
3075.32338	1304.6625
3077.70662	1307.6625
3080.08842	1317.7625
3082.46878	1329.0625
3084.84769	1329.3625
3087.22515	1335.7625
3089.60118	1346.0625
3091.97576	1344.0625
3094.3489	1346.3625
3096.72061	1354.0625
3099.09087	1362.8625
3101.4597	1383.2625
3103.82709	1391.9625
3106.19305	1390.8625
3108.55757	1405.5625
3110.92066	1408.0625
3113.28232	1414.1625
3115.64255	1423.5625
3118.00134	1423.7625
3120.35871	1433.1625
3122.71466	1435.4625
3125.06917	1437.5625
3127.42226	1453.8625
3129.77393	1457.8625
3132.12417	1463.3625
3134.47299	1469.0625
3136.82039	1479.6625
3139.16636	1498.8625
3141.51092	1500.9625
3143.85406	1510.2625
3146.19579	1515.6625
3148.53609	1521.7625
3150.87499	1535.4625
3153.21246	1547.0625
3155.54853	1569.3625
3157.88318	1577.0625
3160.21642	1576.0625
3162.54826	1586.8625
3164.87868	1603.3625
3167.2077	1613.2625
3169.5353	1626.3625
3171.86151	1633.2625
3174.18631	1646.3625
3176.5097	1652.8625
3178.83169	1666.3625
3181.15228	1659.8625
3183.47147	1668.4625
3185.78926	1669.0625
3188.10565	1681.8625
3190.42065	1692.2625
3192.73424	1700.1625
3195.04645	1707.7625
3197.35725	1714.4625
3199.66667	1724.6625
3201.97469	1721.2625
3204.28132	1731.8625
3206.58656	1736.3625
3208.8904	1754.3625
3211.19287	1753.4625
3213.49394	1757.8625
3215.79363	1769.1625
3218.09193	1783.9625
3220.38884	1782.7625
3222.68438	1789.5625
3224.97853	1785.3625
3227.2713	1798.6625
3229.56269	1809.8625
3231.8527	1809.7625
3234.14133	1802.4625
3236.42858	1799.8625
3238.71446	1815.6625
3240.99896	1801.8625
3243.28209	1814.5625
3245.56384	1815.1625
3247.84423	1812.1625
3250.12324	1813.2625
3252.40088	1820.4625
3254.67715	1812.3625
3256.95205	1825.0625
3259.22558	1815.6625
3261.49775	1815.5625
3263.76855	1823.5625
3266.03799	1832.1625
3268.30606	1830.1625
3270.57277	1833.5625
3272.83812	1833.1625
3275.10211	1833.3625
3277.36474	1829.5625
3279.62601	1833.0625
3281.88593	1820.9625
3284.14448	1827.8625
3286.40168	1826.6625
3288.65753	1823.9625
3290.91202	1823.6625
3293.16516	1817.3625
3295.41695	1820.9625
3297.66738	1823.3625
3299.91647	1818.7625
3302.16421	1808.7625
3304.4106	1798.4625
3306.65564	1777.6625
3308.89933	1775.0625
3311.14169	1757.5625
3313.38269	1747.0625
3315.62236	1735.6625
3317.86068	1725.8625
3320.09766	1708.7625
3322.3333	1700.9625
3324.5676	1689.6625
3326.80056	1666.9625
3329.03219	1662.6625
3331.26248	1.0625
3333.49143	-0.8375
3335.71905	-0.7375
