Data from AgNPs_UA_50uM_CRN_500uM_AS_RamanShift__12__15-19-31-555.txt Node

Date: Wed Aug 17 15:19:31 BST 2022
User: TCL
Spectrometer: QEP01345
Trigger mode: 4
Integration Time (sec): 7.000000E0
Scans to average: 10
Electric dark correction enabled: true
Nonlinearity correction enabled: false
Boxcar width: 0
XAxis mode: Raman Shifts
Number of Pixels in Spectrum: 1044
>>>>>Begin Spectral Data<<<<<
46.04893	-1.2625
50.45542	-0.7625
54.85868	-1.2625
59.25871	-1.2625
63.6555	27.2375
68.04907	28.3375
72.43941	28.8375
76.82654	34.1375
81.21044	35.0375
85.59113	34.5375
89.96862	31.8375
94.34289	39.8375
98.71396	37.7375
103.08183	37.1375
107.4465	40.2375
111.80798	38.7375
116.16626	43.5375
120.52136	37.4375
124.87327	36.1375
129.222	36.5375
133.56755	39.7375
137.90993	38.7375
142.24913	42.4375
146.58517	42.7375
150.91804	44.7375
155.24774	47.2375
159.57429	49.8375
163.89768	59.9375
168.21792	70.5375
172.53501	87.0375
176.84895	111.7375
181.15975	154.1375
185.46741	200.9375
189.77193	282.3375
194.07331	373.9375
198.37157	472.1375
202.6667	582.4375
206.9587	688.9375
211.24758	793.0375
215.53334	902.3375
219.81599	1015.4375
224.09553	1130.0375
228.37195	1252.8375
232.64527	1390.1375
236.91549	1542.7375
241.18261	1701.8375
245.44663	1842.5375
249.70755	1970.5375
253.96539	2079.3375
258.22014	2160.2375
262.4718	2211.5375
266.72039	2260.3375
270.96589	2239.5375
275.20832	2214.9375
279.44768	2168.2375
283.68397	2105.9375
287.91719	2064.8375
292.14735	2025.8375
296.37445	1993.7375
300.59849	1965.8375
304.81948	1974.4375
309.03742	1950.7375
313.25231	1956.0375
317.46415	1941.5375
321.67296	1920.0375
325.87872	1914.3375
330.08145	1906.6375
334.28114	1915.3375
338.47781	1936.5375
342.67145	1953.0375
346.86207	1975.3375
351.04966	2011.8375
355.23424	2051.9375
359.4158	2087.6375
363.59435	2113.7375
367.76989	2131.6375
371.94243	2151.8375
376.11196	2166.6375
380.27849	2178.2375
384.44203	2193.2375
388.60257	2223.2375
392.76012	2229.6375
396.91468	2254.8375
401.06626	2289.0375
405.21485	2318.1375
409.36047	2321.3375
413.50311	2326.7375
417.64277	2307.9375
421.77947	2314.0375
425.9132	2329.6375
430.04396	2335.1375
434.17176	2367.6375
438.2966	2369.6375
442.41849	2398.1375
446.53742	2421.0375
450.6534	2444.7375
454.76644	2448.1375
458.87653	2478.8375
462.98368	2479.4375
467.08789	2466.8375
471.18916	2482.2375
475.2875	2478.3375
479.38291	2478.3375
483.4754	2481.9375
487.56496	2486.0375
491.6516	2480.9375
495.73531	2499.2375
499.81612	2484.4375
503.89401	2503.7375
507.96899	2515.6375
512.04106	2515.2375
516.11023	2530.8375
520.1765	2529.3375
524.23987	2530.1375
528.30034	2516.7375
532.35792	2538.2375
536.41261	2526.2375
540.46441	2529.9375
544.51333	2523.0375
548.55936	2530.3375
552.60252	2563.8375
556.64279	2571.8375
560.6802	2583.7375
564.71473	2584.5375
568.7464	2607.0375
572.7752	2606.9375
576.80114	2609.1375
580.82422	2607.7375
584.84444	2620.3375
588.86181	2624.1375
592.87633	2661.8375
596.888	2683.0375
600.89682	2705.5375
604.9028	2768.5375
608.90594	2916.5375
612.90624	3062.6375
616.90371	2983.8375
620.89834	2781.5375
624.89015	2685.7375
628.87913	2684.4375
632.86528	2703.0375
636.84862	2711.9375
640.82913	2720.0375
644.80683	2709.5375
648.78172	2716.5375
652.75379	2715.5375
656.72306	2729.7375
660.68952	2754.8375
664.65319	2758.9375
668.61405	2765.8375
672.57211	2784.5375
676.52738	2812.4375
680.47986	2842.7375
684.42955	2871.7375
688.37646	2866.5375
692.32058	2861.2375
696.26192	2858.1375
700.20048	2847.2375
704.13626	2841.9375
708.06928	2827.8375
711.99952	2808.0375
715.927	2791.9375
719.85171	2791.0375
723.77365	2802.7375
727.69284	2810.0375
731.60928	2802.9375
735.52295	2813.2375
739.43388	2805.1375
743.34206	2820.8375
747.24749	2815.2375
751.15017	2828.7375
755.05012	2848.2375
758.94733	2884.3375
762.8418	2932.3375
766.73354	3018.8375
770.62254	3105.0375
774.50882	3140.6375
778.39237	3095.2375
782.27321	3017.2375
786.15132	2941.7375
790.02671	2896.7375
793.89938	2863.9375
797.76935	2854.0375
801.6366	2856.9375
805.50115	2843.7375
809.36299	2847.4375
813.22213	2843.8375
817.07857	2851.4375
820.93231	2839.9375
824.78336	2850.5375
828.63172	2845.2375
832.47738	2847.9375
836.32036	2850.7375
840.16066	2863.1375
843.99827	2846.6375
847.8332	2854.0375
851.66546	2871.2375
855.49504	2874.7375
859.32195	2871.9375
863.1462	2875.3375
866.96777	2879.6375
870.78668	2888.1375
874.60293	2899.3375
878.41652	2913.2375
882.22745	2927.8375
886.03573	2922.1375
889.84136	2921.0375
893.64433	2921.3375
897.44466	2927.1375
901.24235	2925.5375
905.0374	2917.8375
908.8298	2924.9375
912.61957	2932.4375
916.40671	2930.8375
920.19121	2928.7375
923.97308	2942.5375
927.75233	2947.5375
931.52895	2948.8375
935.30295	2938.1375
939.07433	2925.7375
942.84309	2921.4375
946.60924	2923.4375
950.37278	2918.7375
954.13371	2902.2375
957.89203	2906.7375
961.64774	2915.9375
965.40086	2902.0375
969.15137	2907.1375
972.89929	2896.3375
976.64461	2878.2375
980.38733	2897.4375
984.12747	2916.1375
987.86502	2903.6375
991.59999	2911.4375
995.33237	2934.7375
999.06217	2934.0375
1002.78939	2950.6375
1006.51404	2961.4375
1010.23611	2966.7375
1013.95561	2981.7375
1017.67255	2985.8375
1021.38692	2979.8375
1025.09872	2999.6375
1028.80796	2977.9375
1032.51465	2987.4375
1036.21877	2998.0375
1039.92035	2991.5375
1043.61937	3013.9375
1047.31584	3020.5375
1051.00976	3033.6375
1054.70114	3041.5375
1058.38998	3053.4375
1062.07627	3061.3375
1065.76003	3056.9375
1069.44126	3069.2375
1073.11995	3076.8375
1076.79611	3093.3375
1080.46974	3108.3375
1084.14085	3114.7375
1087.80943	3124.5375
1091.47549	3132.3375
1095.13903	3118.0375
1098.80005	3111.7375
1102.45857	3108.3375
1106.11456	3091.4375
1109.76805	3108.3375
1113.41903	3129.7375
1117.06751	3140.0375
1120.71348	3143.7375
1124.35696	3170.0375
1127.99793	3200.1375
1131.63641	3208.3375
1135.2724	3195.4375
1138.90589	3184.6375
1142.5369	3164.1375
1146.16542	3151.3375
1149.79145	3143.9375
1153.415	3145.1375
1157.03607	3137.7375
1160.65467	3148.4375
1164.27079	3170.2375
1167.88443	3194.8375
1171.49561	3239.4375
1175.10432	3293.9375
1178.71056	3388.8375
1182.31434	3475.4375
1185.91565	3525.0375
1189.51451	3536.8375
1193.11091	3489.5375
1196.70485	3453.4375
1200.29634	3414.5375
1203.88538	3369.3375
1207.47197	3335.2375
1211.05612	3291.1375
1214.63782	3242.2375
1218.21708	3239.7375
1221.79391	3236.4375
1225.36829	3249.9375
1228.94024	3252.2375
1232.50976	3257.4375
1236.07685	3265.8375
1239.6415	3273.9375
1243.20374	3283.0375
1246.76355	3286.0375
1250.32093	3310.0375
1253.8759	3317.2375
1257.42845	3354.4375
1260.97859	3353.1375
1264.52631	3383.8375
1268.07163	3414.0375
1271.61453	3404.2375
1275.15503	3416.7375
1278.69312	3413.6375
1282.22882	3419.5375
1285.76211	3422.9375
1289.29301	3451.7375
1292.82151	3452.9375
1296.34761	3500.0375
1299.87133	3530.8375
1303.39266	3621.1375
1306.9116	3683.3375
1310.42815	3768.9375
1313.94233	3829.3375
1317.45412	3784.2375
1320.96354	3730.7375
1324.47058	3688.1375
1327.97525	3605.1375
1331.47754	3551.9375
1334.97747	3528.5375
1338.47502	3526.8375
1341.97022	3560.9375
1345.46305	3613.7375
1348.95352	3674.1375
1352.44163	3765.6375
1355.92738	3880.2375
1359.41078	4007.2375
1362.89183	4118.8375
1366.37053	4083.0375
1369.84688	3930.5375
1373.32088	3711.9375
1376.79254	3577.7375
1380.26186	3480.6375
1383.72883	3441.8375
1387.19347	3399.1375
1390.65578	3348.7375
1394.11575	3317.6375
1397.57339	3277.7375
1401.0287	3255.8375
1404.48168	3232.0375
1407.93234	3226.2375
1411.38068	3234.8375
1414.82669	3258.0375
1418.27039	3243.0375
1421.71177	3218.5375
1425.15083	3207.2375
1428.58758	3203.9375
1432.02203	3195.1375
1435.45416	3189.1375
1438.88399	3191.5375
1442.31151	3189.8375
1445.73673	3201.3375
1449.15965	3182.5375
1452.58027	3181.6375
1455.9986	3184.9375
1459.41463	3188.3375
1462.82837	3181.6375
1466.23982	3221.6375
1469.64898	3237.4375
1473.05586	3260.7375
1476.46045	3267.3375
1479.86276	3288.1375
1483.26279	3294.6375
1486.66054	3331.1375
1490.05602	3362.1375
1493.44922	3406.2375
1496.84016	3467.0375
1500.22882	3579.8375
1503.61521	3702.4375
1506.99934	3826.8375
1510.38121	3898.6375
1513.76081	3892.2375
1517.13816	3789.0375
1520.51324	3687.8375
1523.88607	3573.2375
1527.25665	3518.7375
1530.62498	3486.8375
1533.99105	3462.1375
1537.35488	3454.9375
1540.71647	3438.7375
1544.07581	3457.9375
1547.4329	3433.6375
1550.78776	3432.5375
1554.14038	3440.1375
1557.49077	3446.2375
1560.83892	3468.5375
1564.18484	3486.9375
1567.52853	3535.1375
1570.86999	3545.0375
1574.20922	3566.5375
1577.54624	3561.2375
1580.88103	3531.3375
1584.2136	3475.5375
1587.54395	3457.9375
1590.87208	3465.1375
1594.19801	3490.2375
1597.52172	3524.3375
1600.84321	3542.0375
1604.16251	3529.2375
1607.47959	3510.8375
1610.79447	3476.6375
1614.10715	3444.4375
1617.41763	3397.2375
1620.7259	3380.7375
1624.03199	3361.0375
1627.33587	3343.5375
1630.63757	3357.5375
1633.93707	3364.2375
1637.23439	3405.7375
1640.52951	3471.9375
1643.82246	3556.6375
1647.11321	3665.1375
1650.40179	3707.0375
1653.68819	3679.0375
1656.97241	3590.4375
1660.25446	3490.1375
1663.53433	3396.3375
1666.81203	3344.4375
1670.08756	3304.2375
1673.36092	3287.7375
1676.63211	3243.6375
1679.90115	3222.3375
1683.16801	3220.7375
1686.43272	3208.4375
1689.69527	3205.1375
1692.95567	3207.4375
1696.2139	3203.1375
1699.46999	3216.3375
1702.72392	3218.9375
1705.97571	3202.9375
1709.22535	3190.2375
1712.47284	3189.1375
1715.71819	3185.0375
1718.96139	3170.8375
1722.20246	3169.7375
1725.44139	3166.2375
1728.67818	3162.7375
1731.91284	3145.8375
1735.14537	3127.4375
1738.37576	3141.6375
1741.60403	3135.5375
1744.83017	3131.3375
1748.05418	3136.4375
1751.27607	3152.6375
1754.49584	3164.7375
1757.71349	3170.9375
1760.92903	3186.3375
1764.14244	3176.8375
1767.35375	3163.2375
1770.56294	3167.3375
1773.77002	3153.8375
1776.97499	3144.8375
1780.17785	3111.2375
1783.37861	3112.6375
1786.57727	3128.0375
1789.77382	3106.1375
1792.96828	3094.3375
1796.16064	3093.3375
1799.3509	3085.3375
1802.53907	3079.0375
1805.72514	3076.1375
1808.90913	3065.4375
1812.09102	3054.1375
1815.27083	3061.1375
1818.44856	3052.9375
1821.6242	3068.1375
1824.79776	3055.9375
1827.96924	3051.0375
1831.13864	3042.5375
1834.30597	3061.8375
1837.47122	3048.6375
1840.6344	3030.3375
1843.7955	3043.1375
1846.95454	3038.7375
1850.11151	3039.0375
1853.26642	3045.0375
1856.41926	3045.3375
1859.57004	3036.8375
1862.71876	3035.6375
1865.86542	3041.9375
1869.01003	3050.4375
1872.15258	3039.9375
1875.29308	3052.8375
1878.43152	3030.6375
1881.56792	3029.7375
1884.70227	3045.0375
1887.83457	3033.1375
1890.96482	3035.1375
1894.09304	3019.3375
1897.21921	3026.7375
1900.34335	3027.0375
1903.46544	3038.9375
1906.58551	3042.1375
1909.70353	3035.3375
1912.81953	3048.8375
1915.93349	3036.5375
1919.04543	3032.0375
1922.15534	3026.2375
1925.26322	3031.0375
1928.36908	3019.9375
1931.47292	3029.9375
1934.57473	3021.3375
1937.67453	3036.4375
1940.77232	3020.4375
1943.86808	3018.3375
1946.96184	3000.1375
1950.05358	3001.6375
1953.14331	2987.4375
1956.23103	2985.3375
1959.31675	2983.6375
1962.40046	2978.7375
1965.48217	2986.2375
1968.56188	2959.3375
1971.63959	2965.4375
1974.7153	2949.8375
1977.78901	2942.4375
1980.86073	2939.1375
1983.93046	2934.2375
1986.99819	2918.0375
1990.06394	2940.6375
1993.1277	2923.3375
1996.18947	2933.2375
1999.24925	2932.6375
2002.30706	2912.4375
2005.36288	2897.6375
2008.41672	2897.9375
2011.46859	2896.6375
2014.51848	2894.5375
2017.56639	2904.8375
2020.61233	2896.2375
2023.6563	2881.0375
2026.6983	2870.5375
2029.73833	2858.2375
2032.7764	2854.4375
2035.8125	2855.0375
2038.84664	2857.7375
2041.87881	2851.1375
2044.90903	2852.9375
2047.93729	2841.7375
2050.96359	2844.1375
2053.98794	2848.3375
2057.01034	2857.8375
2060.03078	2857.1375
2063.04927	2861.0375
2066.06582	2841.2375
2069.08042	2843.9375
2072.09307	2855.9375
2075.10378	2847.1375
2078.11255	2856.6375
2081.11938	2864.8375
2084.12426	2864.6375
2087.12722	2858.9375
2090.12824	2863.4375
2093.12732	2877.2375
2096.12447	2875.6375
2099.11969	2879.9375
2102.11299	2879.9375
2105.10435	2883.4375
2108.09379	2875.9375
2111.08131	2882.6375
2114.0669	2896.3375
2117.05057	2892.8375
2120.03233	2909.4375
2123.01216	2925.8375
2125.99008	2926.0375
2128.96609	2931.2375
2131.94018	2934.5375
2134.91236	2947.4375
2137.88263	2946.6375
2140.851	2954.5375
2143.81746	2965.2375
2146.78201	2970.8375
2149.74466	2970.1375
2152.7054	2962.0375
2155.66425	2961.5375
2158.6212	2957.6375
2161.57625	2960.4375
2164.52941	2970.1375
2167.48067	2968.8375
2170.43004	2968.8375
2173.37752	2970.9375
2176.32311	2986.9375
2179.26681	2986.2375
2182.20863	2998.8375
2185.14856	2993.8375
2188.08661	2985.8375
2191.02278	2982.6375
2193.95707	2987.7375
2196.88948	2983.4375
2199.82001	2998.3375
2202.74867	2993.6375
2205.67545	2989.8375
2208.60037	2992.8375
2211.52341	2991.0375
2214.44458	2998.2375
2217.36388	2987.3375
2220.28132	2977.2375
2223.1969	2970.5375
2226.11061	2976.5375
2229.02246	2955.9375
2231.93245	2962.9375
2234.84058	2974.2375
2237.74686	2958.0375
2240.65128	2967.3375
2243.55385	2975.8375
2246.45456	2978.1375
2249.35343	2973.6375
2252.25044	2974.6375
2255.14561	2972.4375
2258.03893	2989.0375
2260.93041	2971.5375
2263.82004	2954.3375
2266.70783	2964.3375
2269.59378	2947.0375
2272.4779	2949.8375
2275.36017	2947.3375
2278.24061	2937.2375
2281.11922	2938.0375
2283.996	2941.2375
2286.87094	2931.3375
2289.74405	2932.6375
2292.61534	2928.2375
2295.4848	2929.1375
2298.35243	2936.6375
2301.21824	2928.7375
2304.08223	2947.2375
2306.94439	2947.6375
2309.80474	2949.2375
2312.66327	2955.2375
2315.51999	2945.1375
2318.37489	2941.9375
2321.22797	2922.9375
2324.07925	2923.5375
2326.92871	2924.0375
2329.77637	2915.8375
2332.62222	2909.7375
2335.46626	2919.3375
2338.3085	2912.9375
2341.14893	2912.5375
2343.98756	2922.0375
2346.8244	2929.1375
2349.65943	2920.9375
2352.49267	2915.8375
2355.32411	2926.5375
2358.15376	2930.8375
2360.98161	2914.8375
2363.80768	2935.9375
2366.63195	2921.1375
2369.45444	2913.0375
2372.27514	2916.9375
2375.09405	2914.0375
2377.91118	2919.5375
2380.72652	2915.5375
2383.54009	2935.2375
2386.35187	2912.0375
2389.16188	2924.1375
2391.97011	2899.5375
2394.77657	2902.2375
2397.58125	2907.5375
2400.38416	2909.6375
2403.18529	2902.6375
2405.98466	2896.5375
2408.78226	2891.2375
2411.57809	2881.0375
2414.37216	2880.9375
2417.16446	2881.7375
2419.955	2884.4375
2422.74378	2898.8375
2425.5308	2899.7375
2428.31606	2906.6375
2431.09956	2905.3375
2433.88131	2896.3375
2436.6613	2909.9375
2439.43954	2913.5375
2442.21603	2885.0375
2444.99077	2887.7375
2447.76377	2889.9375
2450.53501	2880.6375
2453.30451	2880.7375
2456.07226	2893.9375
2458.83827	2887.6375
2461.60254	2891.1375
2464.36507	2883.8375
2467.12586	2889.5375
2469.88492	2876.4375
2472.64224	2869.8375
2475.39782	2887.3375
2478.15167	2896.6375
2480.90379	2876.1375
2483.65417	2883.9375
2486.40283	2896.0375
2489.14976	2888.6375
2491.89497	2889.3375
2494.63845	2903.1375
2497.3802	2900.6375
2500.12024	2892.8375
2502.85855	2904.1375
2505.59514	2890.4375
2508.33002	2883.1375
2511.06318	2899.4375
2513.79462	2903.3375
2516.52435	2883.6375
2519.25237	2876.2375
2521.97867	2883.0375
2524.70327	2873.2375
2527.42616	2873.8375
2530.14734	2877.3375
2532.86681	2875.3375
2535.58458	2884.2375
2538.30065	2882.1375
2541.01501	2896.6375
2543.72768	2884.9375
2546.43864	2881.3375
2549.14791	2871.9375
2551.85548	2883.5375
2554.56136	2861.4375
2557.26554	2873.2375
2559.96803	2869.7375
2562.66883	2868.1375
2565.36794	2861.9375
2568.06536	2858.4375
2570.7611	2851.5375
2573.45514	2836.7375
2576.14751	2821.6375
2578.83819	2830.1375
2581.52719	2826.2375
2584.21451	2838.2375
2586.90015	2832.2375
2589.58411	2831.7375
2592.2664	2829.9375
2594.94701	2830.2375
2597.62594	2838.3375
2600.30321	2840.4375
2602.9788	2842.3375
2605.65273	2832.8375
2608.32498	2835.3375
2610.99557	2834.3375
2613.66449	2835.9375
2616.33175	2824.5375
2618.99734	2814.6375
2621.66128	2813.8375
2624.32355	2804.0375
2626.98416	2811.8375
2629.64311	2807.9375
2632.30041	2811.9375
2634.95605	2803.0375
2637.61004	2802.3375
2640.26238	2794.9375
2642.91306	2790.0375
2645.56209	2786.8375
2648.20948	2771.1375
2650.85521	2775.8375
2653.4993	2800.6375
2656.14175	2802.8375
2658.78255	2818.2375
2661.42171	2811.0375
2664.05923	2808.5375
2666.6951	2818.5375
2669.32934	2818.0375
2671.96194	2812.0375
2674.59291	2824.0375
2677.22224	2829.7375
2679.84993	2832.7375
2682.476	2812.8375
2685.10043	2827.6375
2687.72324	2804.3375
2690.34441	2829.2375
2692.96396	2827.2375
2695.58188	2831.6375
2698.19818	2827.5375
2700.81285	2835.7375
2703.4259	2835.9375
2706.03733	2858.0375
2708.64714	2847.0375
2711.25533	2832.9375
2713.86191	2826.3375
2716.46687	2835.8375
2719.07021	2840.2375
2721.67194	2842.6375
2724.27206	2853.3375
2726.87057	2860.5375
2729.46747	2859.7375
2732.06276	2863.8375
2734.65644	2853.9375
2737.24852	2852.9375
2739.83899	2852.2375
2742.42786	2850.8375
2745.01513	2845.8375
2747.60079	2832.1375
2750.18486	2837.5375
2752.76733	2835.9375
2755.3482	2854.2375
2757.92747	2837.0375
2760.50515	2845.1375
2763.08123	2843.8375
2765.65573	2835.8375
2768.22863	2821.9375
2770.79994	2826.1375
2773.36967	2831.2375
2775.9378	2831.0375
2778.50435	2815.4375
2781.06932	2837.1375
2783.6327	2820.3375
2786.1945	2829.4375
2788.75471	2820.0375
2791.31335	2821.2375
2793.87041	2820.9375
2796.42589	2802.4375
2798.97979	2803.4375
2801.53212	2811.6375
2804.08288	2808.9375
2806.63206	2801.3375
2809.17967	2794.8375
2811.72571	2801.2375
2814.27018	2797.0375
2816.81308	2781.4375
2819.35442	2773.0375
2821.89419	2782.7375
2824.43239	2772.3375
2826.96904	2772.0375
2829.50412	2762.9375
2832.03763	2764.3375
2834.56959	2770.3375
2837.1	2763.0375
2839.62884	2770.1375
2842.15613	2760.4375
2844.68186	2759.5375
2847.20604	2776.7375
2849.72867	2771.1375
2852.24974	2769.6375
2854.76927	2760.7375
2857.28724	2773.8375
2859.80367	2759.8375
2862.31855	2759.3375
2864.83189	2755.9375
2867.34368	2771.1375
2869.85393	2763.3375
2872.36264	2769.5375
2874.8698	2770.1375
2877.37543	2773.3375
2879.87952	2773.1375
2882.38207	2773.2375
2884.88308	2776.2375
2887.38256	2797.0375
2889.88051	2790.4375
2892.37692	2793.6375
2894.8718	2804.6375
2897.36515	2800.9375
2899.85698	2800.7375
2902.34727	2810.8375
2904.83604	2823.6375
2907.32328	2832.5375
2909.809	2831.7375
2912.29319	2830.8375
2914.77587	2854.5375
2917.25702	2858.6375
2919.73665	2859.6375
2922.21476	2864.9375
2924.69136	2860.1375
2927.16644	2857.6375
2929.64	2851.5375
2932.11205	2846.2375
2934.58258	2863.2375
2937.05161	2865.8375
2939.51912	2881.3375
2941.98513	2898.0375
2944.44962	2877.5375
2946.91261	2883.4375
2949.37409	2871.9375
2951.83407	2880.4375
2954.29254	2876.0375
2956.74951	2879.9375
2959.20498	2875.1375
2961.65895	2863.5375
2964.11142	2862.5375
2966.56239	2859.0375
2969.01186	2860.0375
2971.45984	2855.9375
2973.90632	2850.2375
2976.35131	2862.7375
2978.7948	2848.7375
2981.23681	2850.8375
2983.67732	2860.9375
2986.11635	2857.5375
2988.55388	2838.5375
2990.98993	2843.3375
2993.4245	2825.4375
2995.85758	2836.7375
2998.28917	2826.7375
3000.71928	2820.3375
3003.14791	2829.7375
3005.57506	2823.9375
3008.00073	2815.8375
3010.42493	2773.3375
3012.84764	2823.9375
3015.26888	2802.6375
3017.68865	2804.1375
3020.10694	2820.1375
3022.52376	2808.0375
3024.9391	2815.7375
3027.35298	2821.0375
3029.76539	2806.2375
3032.17632	2825.6375
3034.5858	2814.9375
3036.9938	2818.6375
3039.40034	2817.5375
3041.80542	2814.8375
3044.20903	2824.8375
3046.61118	2834.0375
3049.01187	2820.0375
3051.4111	2817.4375
3053.80888	2831.9375
3056.20519	2823.2375
3058.60005	2838.5375
3060.99345	2835.9375
3063.3854	2825.4375
3065.7759	2815.9375
3068.16494	2811.3375
3070.55254	2802.7375
3072.93868	2808.2375
3075.32338	2792.4375
3077.70662	2795.7375
3080.08842	2781.1375
3082.46878	2804.9375
3084.84769	2810.9375
3087.22515	2823.4375
3089.60118	2810.4375
3091.97576	2834.2375
3094.3489	2820.6375
3096.72061	2828.7375
3099.09087	2843.4375
3101.4597	2865.2375
3103.82709	2886.4375
3106.19305	2875.2375
3108.55757	2884.5375
3110.92066	2870.1375
3113.28232	2897.7375
3115.64255	2893.9375
3118.00134	2912.7375
3120.35871	2903.6375
3122.71466	2896.2375
3125.06917	2886.3375
3127.42226	2892.7375
3129.77393	2896.0375
3132.12417	2892.7375
3134.47299	2912.2375
3136.82039	2921.1375
3139.16636	2917.9375
3141.51092	2920.2375
3143.85406	2925.2375
3146.19579	2933.6375
3148.53609	2952.6375
3150.87499	2953.3375
3153.21246	2972.1375
3155.54853	2976.4375
3157.88318	2984.3375
3160.21642	2994.5375
3162.54826	2997.2375
3164.87868	3005.4375
3167.2077	3021.1375
3169.5353	3034.3375
3171.86151	3039.3375
3174.18631	3038.0375
3176.5097	3057.6375
3178.83169	3053.3375
3181.15228	3043.8375
3183.47147	3052.6375
3185.78926	3056.9375
3188.10565	3060.9375
3190.42065	3066.7375
3192.73424	3063.4375
3195.04645	3066.3375
3197.35725	3054.4375
3199.66667	3059.1375
3201.97469	3078.8375
3204.28132	3084.0375
3206.58656	3102.0375
3208.8904	3105.8375
3211.19287	3092.4375
3213.49394	3107.2375
3215.79363	3106.6375
3218.09193	3113.1375
3220.38884	3145.1375
3222.68438	3154.0375
3224.97853	3140.2375
3227.2713	3159.9375
3229.56269	3148.1375
3231.8527	3142.1375
3234.14133	3135.1375
3236.42858	3139.4375
3238.71446	3143.1375
3240.99896	3132.2375
3243.28209	3134.5375
3245.56384	3139.7375
3247.84423	3119.9375
3250.12324	3132.0375
3252.40088	3118.4375
3254.67715	3107.9375
3256.95205	3112.3375
3259.22558	3124.7375
3261.49775	3137.6375
3263.76855	3123.7375
3266.03799	3118.7375
3268.30606	3125.7375
3270.57277	3127.1375
3272.83812	3114.5375
3275.10211	3109.0375
3277.36474	3120.0375
3279.62601	3114.7375
3281.88593	3105.2375
3284.14448	3109.9375
3286.40168	3109.3375
3288.65753	3098.5375
3290.91202	3088.3375
3293.16516	3079.4375
3295.41695	3079.3375
3297.66738	3065.9375
3299.91647	3060.7375
3302.16421	3046.0375
3304.4106	3040.4375
3306.65564	3033.3375
3308.89933	3013.5375
3311.14169	2977.3375
3313.38269	2960.3375
3315.62236	2964.7375
3317.86068	2926.8375
3320.09766	2918.6375
3322.3333	2883.3375
3324.5676	2882.3375
3326.80056	2828.0375
3329.03219	2820.0375
3331.26248	2.4375
3333.49143	1.3375
3335.71905	0.9375
