Data from AgNPs_UA_50uM_CRN_500uM_AS_RamanShift__22__15-31-11-568.txt Node

Date: Wed Aug 17 15:31:11 BST 2022
User: TCL
Spectrometer: QEP01345
Trigger mode: 4
Integration Time (sec): 7.000000E0
Scans to average: 10
Electric dark correction enabled: true
Nonlinearity correction enabled: false
Boxcar width: 0
XAxis mode: Raman Shifts
Number of Pixels in Spectrum: 1044
>>>>>Begin Spectral Data<<<<<
46.04893	-0.8375
50.45542	0.0625
54.85868	-1.8375
59.25871	0.4625
63.6555	29.3625
68.04907	26.0625
72.43941	30.4625
76.82654	33.2625
81.21044	32.1625
85.59113	34.6625
89.96862	34.5625
94.34289	39.2625
98.71396	40.0625
103.08183	40.0625
107.4465	39.7625
111.80798	39.1625
116.16626	40.7625
120.52136	40.1625
124.87327	41.3625
129.222	44.1625
133.56755	43.4625
137.90993	43.9625
142.24913	47.5625
146.58517	50.8625
150.91804	54.5625
155.24774	61.9625
159.57429	66.9625
163.89768	79.7625
168.21792	102.2625
172.53501	135.0625
176.84895	175.1625
181.15975	242.9625
185.46741	338.8625
189.77193	461.2625
194.07331	611.8625
198.37157	783.6625
202.6667	972.8625
206.9587	1159.3625
211.24758	1358.0625
215.53334	1576.1625
219.81599	1812.4625
224.09553	2071.5625
228.37195	2373.2625
232.64527	2682.4625
236.91549	2980.2625
241.18261	3211.0625
245.44663	3398.4625
249.70755	3515.3625
253.96539	3622.0625
258.22014	3728.1625
262.4718	3793.5625
266.72039	3857.2625
270.96589	3847.6625
275.20832	3776.3625
279.44768	3656.0625
283.68397	3541.3625
287.91719	3472.8625
292.14735	3493.7625
296.37445	3592.5625
300.59849	3792.0625
304.81948	4011.4625
309.03742	4185.3625
313.25231	4195.4625
317.46415	3968.5625
321.67296	3632.9625
325.87872	3370.0625
330.08145	3259.3625
334.28114	3248.3625
338.47781	3321.5625
342.67145	3435.8625
346.86207	3604.9625
351.04966	3858.5625
355.23424	4155.5625
359.4158	4395.5625
363.59435	4522.2625
367.76989	4555.6625
371.94243	4539.6625
376.11196	4501.4625
380.27849	4462.0625
384.44203	4382.7625
388.60257	4310.6625
392.76012	4250.7625
396.91468	4257.2625
401.06626	4330.5625
405.21485	4361.7625
409.36047	4222.2625
413.50311	3963.5625
417.64277	3715.0625
421.77947	3559.6625
425.9132	3502.3625
430.04396	3502.1625
434.17176	3518.2625
438.2966	3575.1625
442.41849	3638.6625
446.53742	3739.7625
450.6534	3806.0625
454.76644	3821.6625
458.87653	3833.6625
462.98368	3787.8625
467.08789	3761.8625
471.18916	3688.1625
475.2875	3643.0625
479.38291	3591.1625
483.4754	3546.0625
487.56496	3516.7625
491.6516	3514.1625
495.73531	3521.8625
499.81612	3554.4625
503.89401	3606.5625
507.96899	3653.3625
512.04106	3742.8625
516.11023	3833.7625
520.1765	3902.8625
524.23987	3897.2625
528.30034	3852.9625
532.35792	3797.4625
536.41261	3734.9625
540.46441	3688.7625
544.51333	3639.5625
548.55936	3660.8625
552.60252	3737.9625
556.64279	3829.4625
560.6802	3875.7625
564.71473	3998.6625
568.7464	4177.0625
572.7752	4214.0625
576.80114	3971.9625
580.82422	3774.5625
584.84444	3697.2625
588.86181	3673.1625
592.87633	3720.7625
596.888	3800.3625
600.89682	4000.2625
604.9028	4691.0625
608.90594	6368.4625
612.90624	8234.0625
616.90371	7496.7625
620.89834	5115.4625
624.89015	4124.6625
628.87913	3957.0625
632.86528	4066.9625
636.84862	4210.1625
640.82913	4140.9625
644.80683	3935.0625
648.78172	3797.4625
652.75379	3817.2625
656.72306	4011.2625
660.68952	4182.6625
664.65319	4065.6625
668.61405	3851.9625
672.57211	3788.8625
676.52738	3829.6625
680.47986	3854.8625
684.42955	3831.6625
688.37646	3780.4625
692.32058	3754.5625
696.26192	3750.9625
700.20048	3791.6625
704.13626	3819.6625
708.06928	3805.1625
711.99952	3752.3625
715.927	3754.4625
719.85171	3778.0625
723.77365	3818.0625
727.69284	3820.0625
731.60928	3807.0625
735.52295	3789.6625
739.43388	3807.0625
743.34206	3832.9625
747.24749	3835.7625
751.15017	3837.7625
755.05012	3903.4625
758.94733	4132.7625
762.8418	4689.5625
766.73354	5617.2625
770.62254	6503.1625
774.50882	6870.7625
778.39237	6490.1625
782.27321	5538.4625
786.15132	4684.7625
790.02671	4186.8625
793.89938	3985.0625
797.76935	3899.3625
801.6366	3867.3625
805.50115	3850.8625
809.36299	3846.8625
813.22213	3835.8625
817.07857	3825.4625
820.93231	3811.7625
824.78336	3821.5625
828.63172	3833.5625
832.47738	3835.7625
836.32036	3824.6625
840.16066	3797.8625
843.99827	3783.4625
847.8332	3787.6625
851.66546	3802.8625
855.49504	3816.1625
859.32195	3822.8625
863.1462	3840.6625
866.96777	3837.6625
870.78668	3853.4625
874.60293	3868.8625
878.41652	3876.6625
882.22745	3914.9625
886.03573	3927.4625
889.84136	3950.3625
893.64433	3922.5625
897.44466	3917.3625
901.24235	3921.6625
905.0374	3895.3625
908.8298	3874.4625
912.61957	3847.3625
916.40671	3864.4625
920.19121	3857.7625
923.97308	3905.3625
927.75233	3944.8625
931.52895	4031.3625
935.30295	4026.2625
939.07433	3919.6625
942.84309	3833.0625
946.60924	3797.2625
950.37278	3760.6625
954.13371	3734.0625
957.89203	3738.1625
961.64774	3742.8625
965.40086	3743.6625
969.15137	3721.4625
972.89929	3721.9625
976.64461	3707.9625
980.38733	3726.1625
984.12747	3732.6625
987.86502	3762.7625
991.59999	3761.1625
995.33237	3794.7625
999.06217	3837.2625
1002.78939	3889.6625
1006.51404	3968.4625
1010.23611	4019.9625
1013.95561	4034.2625
1017.67255	4026.7625
1021.38692	4004.9625
1025.09872	3958.2625
1028.80796	3940.9625
1032.51465	3946.2625
1036.21877	3964.2625
1039.92035	3990.8625
1043.61937	4033.3625
1047.31584	4062.7625
1051.00976	4076.7625
1054.70114	4060.7625
1058.38998	4065.6625
1062.07627	4084.3625
1065.76003	4072.7625
1069.44126	4088.2625
1073.11995	4135.2625
1076.79611	4192.9625
1080.46974	4281.9625
1084.14085	4430.6625
1087.80943	4559.5625
1091.47549	4615.1625
1095.13903	4547.7625
1098.80005	4405.2625
1102.45857	4343.8625
1106.11456	4343.7625
1109.76805	4407.4625
1113.41903	4558.2625
1117.06751	4764.0625
1120.71348	5018.0625
1124.35696	5261.7625
1127.99793	5463.8625
1131.63641	5391.1625
1135.2724	5081.2625
1138.90589	4821.3625
1142.5369	4648.1625
1146.16542	4523.7625
1149.79145	4451.5625
1153.415	4394.0625
1157.03607	4419.9625
1160.65467	4482.0625
1164.27079	4611.1625
1167.88443	4803.5625
1171.49561	5100.9625
1175.10432	5636.2625
1178.71056	6397.3625
1182.31434	7061.5625
1185.91565	7186.6625
1189.51451	6813.1625
1193.11091	6284.2625
1196.70485	5820.8625
1200.29634	5532.1625
1203.88538	5355.0625
1207.47197	5087.3625
1211.05612	4805.5625
1214.63782	4634.9625
1218.21708	4570.7625
1221.79391	4542.0625
1225.36829	4534.4625
1228.94024	4522.6625
1232.50976	4526.9625
1236.07685	4548.8625
1239.6415	4561.8625
1243.20374	4591.5625
1246.76355	4624.7625
1250.32093	4673.9625
1253.8759	4724.4625
1257.42845	4830.1625
1260.97859	4950.3625
1264.52631	5093.1625
1268.07163	5231.3625
1271.61453	5342.6625
1275.15503	5411.3625
1278.69312	5419.0625
1282.22882	5440.8625
1285.76211	5551.1625
1289.29301	5735.3625
1292.82151	5952.3625
1296.34761	6172.6625
1299.87133	6589.2625
1303.39266	7286.7625
1306.9116	8324.4625
1310.42815	9243.5625
1313.94233	9352.5625
1317.45412	8586.9625
1320.96354	7590.2625
1324.47058	6753.2625
1327.97525	6117.1625
1331.47754	5747.6625
1334.97747	5582.9625
1338.47502	5626.1625
1341.97022	5883.4625
1345.46305	6327.8625
1348.95352	7029.6625
1352.44163	7871.3625
1355.92738	9023.9625
1359.41078	10709.5625
1362.89183	12208.7625
1366.37053	11603.3625
1369.84688	9397.3625
1373.32088	7528.3625
1376.79254	6532.3625
1380.26186	5981.6625
1383.72883	5616.7625
1387.19347	5336.5625
1390.65578	5120.6625
1394.11575	4950.2625
1397.57339	4824.8625
1401.0287	4786.7625
1404.48168	4729.1625
1407.93234	4712.3625
1411.38068	4734.6625
1414.82669	4806.3625
1418.27039	4853.6625
1421.71177	4865.3625
1425.15083	4836.5625
1428.58758	4810.4625
1432.02203	4846.7625
1435.45416	4911.6625
1438.88399	4881.0625
1442.31151	4855.6625
1445.73673	4838.2625
1449.15965	4861.8625
1452.58027	4843.1625
1455.9986	4810.4625
1459.41463	4802.3625
1462.82837	4853.4625
1466.23982	4912.0625
1469.64898	5040.4625
1473.05586	5097.6625
1476.46045	5129.0625
1479.86276	5165.1625
1483.26279	5272.4625
1486.66054	5441.5625
1490.05602	5680.1625
1493.44922	6071.8625
1496.84016	6720.9625
1500.22882	7808.9625
1503.61521	9327.9625
1506.99934	10977.8625
1510.38121	12041.2625
1513.76081	11826.6625
1517.13816	10454.5625
1520.51324	8694.2625
1523.88607	7287.8625
1527.25665	6459.4625
1530.62498	6031.1625
1533.99105	5779.7625
1537.35488	5609.4625
1540.71647	5527.2625
1544.07581	5499.9625
1547.4329	5551.3625
1550.78776	5625.0625
1554.14038	5704.0625
1557.49077	5801.3625
1560.83892	5947.4625
1564.18484	6182.3625
1567.52853	6470.3625
1570.86999	6745.5625
1574.20922	6883.1625
1577.54624	6772.8625
1580.88103	6353.4625
1584.2136	5820.3625
1587.54395	5508.2625
1590.87208	5429.7625
1594.19801	5584.2625
1597.52172	5771.7625
1600.84321	5831.3625
1604.16251	5703.8625
1607.47959	5520.3625
1610.79447	5347.9625
1614.10715	5172.9625
1617.41763	5012.1625
1620.7259	4936.3625
1624.03199	4890.1625
1627.33587	4906.2625
1630.63757	4998.1625
1633.93707	5144.9625
1637.23439	5400.8625
1640.52951	5889.6625
1643.82246	6619.7625
1647.11321	7613.8625
1650.40179	8247.8625
1653.68819	8039.1625
1656.97241	7089.1625
1660.25446	6155.9625
1663.53433	5492.7625
1666.81203	5164.1625
1670.08756	4937.1625
1673.36092	4785.1625
1676.63211	4691.9625
1679.90115	4641.9625
1683.16801	4595.5625
1686.43272	4574.9625
1689.69527	4569.2625
1692.95567	4545.9625
1696.2139	4551.9625
1699.46999	4570.1625
1702.72392	4543.0625
1705.97571	4517.3625
1709.22535	4496.2625
1712.47284	4495.4625
1715.71819	4493.8625
1718.96139	4457.7625
1722.20246	4444.6625
1725.44139	4426.9625
1728.67818	4423.3625
1731.91284	4389.1625
1735.14537	4388.7625
1738.37576	4374.3625
1741.60403	4386.7625
1744.83017	4377.2625
1748.05418	4398.6625
1751.27607	4386.9625
1754.49584	4410.5625
1757.71349	4429.1625
1760.92903	4403.5625
1764.14244	4401.0625
1767.35375	4389.1625
1770.56294	4386.9625
1773.77002	4375.6625
1776.97499	4338.3625
1780.17785	4332.6625
1783.37861	4314.4625
1786.57727	4315.5625
1789.77382	4311.9625
1792.96828	4313.1625
1796.16064	4302.0625
1799.3509	4301.6625
1802.53907	4293.7625
1805.72514	4286.3625
1808.90913	4266.2625
1812.09102	4251.6625
1815.27083	4249.3625
1818.44856	4233.1625
1821.6242	4266.7625
1824.79776	4259.6625
1827.96924	4262.3625
1831.13864	4249.2625
1834.30597	4252.4625
1837.47122	4233.8625
1840.6344	4245.0625
1843.7955	4241.7625
1846.95454	4244.9625
1850.11151	4229.9625
1853.26642	4236.0625
1856.41926	4231.9625
1859.57004	4235.5625
1862.71876	4247.5625
1865.86542	4239.0625
1869.01003	4256.5625
1872.15258	4260.5625
1875.29308	4266.8625
1878.43152	4269.7625
1881.56792	4258.7625
1884.70227	4255.0625
1887.83457	4263.2625
1890.96482	4268.2625
1894.09304	4257.8625
1897.21921	4262.4625
1900.34335	4260.3625
1903.46544	4271.8625
1906.58551	4274.9625
1909.70353	4287.5625
1912.81953	4276.2625
1915.93349	4279.5625
1919.04543	4264.6625
1922.15534	4274.0625
1925.26322	4273.0625
1928.36908	4271.4625
1931.47292	4270.9625
1934.57473	4286.9625
1937.67453	4285.9625
1940.77232	4255.1625
1943.86808	4231.3625
1946.96184	4238.6625
1950.05358	4226.3625
1953.14331	4221.8625
1956.23103	4224.2625
1959.31675	4219.3625
1962.40046	4217.5625
1965.48217	4222.0625
1968.56188	4216.8625
1971.63959	4187.3625
1974.7153	4165.4625
1977.78901	4176.6625
1980.86073	4171.1625
1983.93046	4168.6625
1986.99819	4160.5625
1990.06394	4150.2625
1993.1277	4149.9625
1996.18947	4143.1625
1999.24925	4152.4625
2002.30706	4132.4625
2005.36288	4106.1625
2008.41672	4121.6625
2011.46859	4113.4625
2014.51848	4100.2625
2017.56639	4099.1625
2020.61233	4101.5625
2023.6563	4073.6625
2026.6983	4075.6625
2029.73833	4053.1625
2032.7764	4061.5625
2035.8125	4055.4625
2038.84664	4060.2625
2041.87881	4049.4625
2044.90903	4061.8625
2047.93729	4062.5625
2050.96359	4053.9625
2053.98794	4048.4625
2057.01034	4067.8625
2060.03078	4068.9625
2063.04927	4077.4625
2066.06582	4062.3625
2069.08042	4079.3625
2072.09307	4083.3625
2075.10378	4081.2625
2078.11255	4077.3625
2081.11938	4087.8625
2084.12426	4093.8625
2087.12722	4087.6625
2090.12824	4109.3625
2093.12732	4132.1625
2096.12447	4134.2625
2099.11969	4136.4625
2102.11299	4147.4625
2105.10435	4142.3625
2108.09379	4129.1625
2111.08131	4158.7625
2114.0669	4155.4625
2117.05057	4158.9625
2120.03233	4170.1625
2123.01216	4203.6625
2125.99008	4200.7625
2128.96609	4234.0625
2131.94018	4230.4625
2134.91236	4228.4625
2137.88263	4254.0625
2140.851	4245.4625
2143.81746	4260.2625
2146.78201	4269.7625
2149.74466	4255.8625
2152.7054	4264.0625
2155.66425	4258.8625
2158.6212	4270.9625
2161.57625	4268.0625
2164.52941	4290.7625
2167.48067	4287.3625
2170.43004	4283.3625
2173.37752	4303.4625
2176.32311	4309.4625
2179.26681	4306.5625
2182.20863	4322.1625
2185.14856	4333.0625
2188.08661	4336.6625
2191.02278	4337.5625
2193.95707	4331.9625
2196.88948	4320.5625
2199.82001	4323.2625
2202.74867	4319.3625
2205.67545	4344.8625
2208.60037	4357.9625
2211.52341	4362.6625
2214.44458	4345.4625
2217.36388	4342.1625
2220.28132	4337.8625
2223.1969	4320.0625
2226.11061	4312.4625
2229.02246	4321.4625
2231.93245	4303.4625
2234.84058	4321.5625
2237.74686	4306.9625
2240.65128	4322.3625
2243.55385	4346.1625
2246.45456	4348.9625
2249.35343	4345.8625
2252.25044	4346.8625
2255.14561	4339.4625
2258.03893	4361.8625
2260.93041	4354.9625
2263.82004	4332.9625
2266.70783	4338.6625
2269.59378	4347.0625
2272.4779	4344.7625
2275.36017	4321.0625
2278.24061	4318.3625
2281.11922	4330.1625
2283.996	4329.9625
2286.87094	4332.2625
2289.74405	4306.6625
2292.61534	4300.5625
2295.4848	4302.0625
2298.35243	4319.5625
2301.21824	4313.5625
2304.08223	4320.0625
2306.94439	4326.7625
2309.80474	4323.3625
2312.66327	4338.7625
2315.51999	4332.6625
2318.37489	4335.6625
2321.22797	4325.7625
2324.07925	4334.3625
2326.92871	4324.5625
2329.77637	4305.1625
2332.62222	4323.4625
2335.46626	4338.3625
2338.3085	4325.6625
2341.14893	4323.6625
2343.98756	4325.0625
2346.8244	4343.2625
2349.65943	4332.3625
2352.49267	4342.8625
2355.32411	4344.0625
2358.15376	4347.8625
2360.98161	4342.0625
2363.80768	4362.3625
2366.63195	4367.7625
2369.45444	4376.0625
2372.27514	4389.4625
2375.09405	4377.1625
2377.91118	4370.8625
2380.72652	4373.0625
2383.54009	4370.8625
2386.35187	4370.5625
2389.16188	4351.3625
2391.97011	4325.0625
2394.77657	4341.2625
2397.58125	4350.1625
2400.38416	4341.6625
2403.18529	4332.5625
2405.98466	4330.2625
2408.78226	4314.0625
2411.57809	4310.3625
2414.37216	4316.3625
2417.16446	4329.5625
2419.955	4344.5625
2422.74378	4352.0625
2425.5308	4348.4625
2428.31606	4357.3625
2431.09956	4339.0625
2433.88131	4349.9625
2436.6613	4366.0625
2439.43954	4370.8625
2442.21603	4369.5625
2444.99077	4354.0625
2447.76377	4349.6625
2450.53501	4342.4625
2453.30451	4338.2625
2456.07226	4354.4625
2458.83827	4354.6625
2461.60254	4366.6625
2464.36507	4355.1625
2467.12586	4350.6625
2469.88492	4347.3625
2472.64224	4365.3625
2475.39782	4372.2625
2478.15167	4389.5625
2480.90379	4365.4625
2483.65417	4382.5625
2486.40283	4406.6625
2489.14976	4404.4625
2491.89497	4419.8625
2494.63845	4419.1625
2497.3802	4413.0625
2500.12024	4403.4625
2502.85855	4418.2625
2505.59514	4398.3625
2508.33002	4395.4625
2511.06318	4395.9625
2513.79462	4385.6625
2516.52435	4365.3625
2519.25237	4365.0625
2521.97867	4374.9625
2524.70327	4374.6625
2527.42616	4362.9625
2530.14734	4360.8625
2532.86681	4366.6625
2535.58458	4351.4625
2538.30065	4384.8625
2541.01501	4405.2625
2543.72768	4392.1625
2546.43864	4386.6625
2549.14791	4375.0625
2551.85548	4359.8625
2554.56136	4354.1625
2557.26554	4364.8625
2559.96803	4376.5625
2562.66883	4376.6625
2565.36794	4373.6625
2568.06536	4346.9625
2570.7611	4334.2625
2573.45514	4341.1625
2576.14751	4324.3625
2578.83819	4315.2625
2581.52719	4319.0625
2584.21451	4320.4625
2586.90015	4338.5625
2589.58411	4347.2625
2592.2664	4343.6625
2594.94701	4332.5625
2597.62594	4358.3625
2600.30321	4341.8625
2602.9788	4328.6625
2605.65273	4312.6625
2608.32498	4335.0625
2610.99557	4338.6625
2613.66449	4356.5625
2616.33175	4346.1625
2618.99734	4330.5625
2621.66128	4316.5625
2624.32355	4309.0625
2626.98416	4324.8625
2629.64311	4307.8625
2632.30041	4308.2625
2634.95605	4310.0625
2637.61004	4286.3625
2640.26238	4283.0625
2642.91306	4294.6625
2645.56209	4287.7625
2648.20948	4282.8625
2650.85521	4296.2625
2653.4993	4302.9625
2656.14175	4302.5625
2658.78255	4329.4625
2661.42171	4342.3625
2664.05923	4339.8625
2666.6951	4354.0625
2669.32934	4351.7625
2671.96194	4343.2625
2674.59291	4343.3625
2677.22224	4352.1625
2679.84993	4383.6625
2682.476	4377.0625
2685.10043	4365.6625
2687.72324	4353.8625
2690.34441	4382.0625
2692.96396	4352.4625
2695.58188	4373.5625
2698.19818	4385.5625
2700.81285	4391.9625
2703.4259	4399.5625
2706.03733	4418.4625
2708.64714	4389.5625
2711.25533	4381.3625
2713.86191	4382.6625
2716.46687	4400.8625
2719.07021	4419.2625
2721.67194	4426.3625
2724.27206	4417.2625
2726.87057	4428.6625
2729.46747	4433.3625
2732.06276	4446.6625
2734.65644	4435.5625
2737.24852	4416.7625
2739.83899	4424.9625
2742.42786	4414.7625
2745.01513	4413.4625
2747.60079	4411.6625
2750.18486	4406.0625
2752.76733	4414.7625
2755.3482	4408.4625
2757.92747	4400.2625
2760.50515	4408.4625
2763.08123	4406.4625
2765.65573	4398.4625
2768.22863	4397.2625
2770.79994	4400.3625
2773.36967	4393.8625
2775.9378	4392.9625
2778.50435	4374.9625
2781.06932	4383.3625
2783.6327	4394.1625
2786.1945	4390.4625
2788.75471	4384.7625
2791.31335	4383.9625
2793.87041	4373.8625
2796.42589	4401.3625
2798.97979	4393.8625
2801.53212	4380.9625
2804.08288	4389.1625
2806.63206	4370.9625
2809.17967	4365.3625
2811.72571	4371.4625
2814.27018	4357.0625
2816.81308	4354.2625
2819.35442	4344.4625
2821.89419	4373.0625
2824.43239	4347.1625
2826.96904	4366.6625
2829.50412	4357.4625
2832.03763	4363.5625
2834.56959	4348.3625
2837.1	4336.3625
2839.62884	4337.7625
2842.15613	4338.0625
2844.68186	4344.6625
2847.20604	4361.8625
2849.72867	4348.4625
2852.24974	4347.3625
2854.76927	4381.9625
2857.28724	4370.2625
2859.80367	4379.3625
2862.31855	4377.6625
2864.83189	4391.8625
2867.34368	4393.9625
2869.85393	4373.4625
2872.36264	4393.7625
2874.8698	4392.8625
2877.37543	4382.8625
2879.87952	4406.7625
2882.38207	4394.1625
2884.88308	4403.3625
2887.38256	4408.4625
2889.88051	4408.8625
2892.37692	4421.1625
2894.8718	4422.3625
2897.36515	4442.9625
2899.85698	4445.1625
2902.34727	4483.3625
2904.83604	4485.4625
2907.32328	4497.2625
2909.809	4470.2625
2912.29319	4510.9625
2914.77587	4516.8625
2917.25702	4527.2625
2919.73665	4526.3625
2922.21476	4525.7625
2924.69136	4516.4625
2927.16644	4521.5625
2929.64	4501.8625
2932.11205	4505.2625
2934.58258	4522.6625
2937.05161	4527.2625
2939.51912	4556.3625
2941.98513	4570.5625
2944.44962	4549.8625
2946.91261	4536.1625
2949.37409	4532.8625
2951.83407	4547.7625
2954.29254	4548.1625
2956.74951	4531.3625
2959.20498	4521.8625
2961.65895	4521.5625
2964.11142	4520.6625
2966.56239	4500.6625
2969.01186	4523.9625
2971.45984	4515.1625
2973.90632	4523.7625
2976.35131	4512.8625
2978.7948	4517.7625
2981.23681	4504.8625
2983.67732	4506.3625
2986.11635	4494.1625
2988.55388	4483.5625
2990.98993	4495.7625
2993.4245	4476.9625
2995.85758	4471.4625
2998.28917	4464.5625
3000.71928	4471.2625
3003.14791	4473.8625
3005.57506	4472.4625
3008.00073	4461.2625
3010.42493	4432.8625
3012.84764	4449.6625
3015.26888	4457.2625
3017.68865	4422.4625
3020.10694	4433.7625
3022.52376	4441.8625
3024.9391	4435.1625
3027.35298	4443.6625
3029.76539	4429.0625
3032.17632	4427.4625
3034.5858	4423.8625
3036.9938	4413.5625
3039.40034	4436.6625
3041.80542	4446.3625
3044.20903	4451.9625
3046.61118	4452.3625
3049.01187	4434.2625
3051.4111	4444.4625
3053.80888	4430.6625
3056.20519	4446.7625
3058.60005	4446.5625
3060.99345	4467.1625
3063.3854	4477.7625
3065.7759	4416.4625
3068.16494	4409.2625
3070.55254	4377.0625
3072.93868	4378.5625
3075.32338	4381.6625
3077.70662	4373.1625
3080.08842	4380.6625
3082.46878	4387.1625
3084.84769	4398.2625
3087.22515	4413.6625
3089.60118	4398.6625
3091.97576	4409.8625
3094.3489	4413.2625
3096.72061	4419.8625
3099.09087	4431.6625
3101.4597	4440.9625
3103.82709	4477.5625
3106.19305	4463.4625
3108.55757	4463.3625
3110.92066	4482.8625
3113.28232	4490.6625
3115.64255	4477.9625
3118.00134	4488.7625
3120.35871	4478.2625
3122.71466	4466.5625
3125.06917	4478.4625
3127.42226	4464.5625
3129.77393	4498.2625
3132.12417	4492.3625
3134.47299	4496.2625
3136.82039	4499.4625
3139.16636	4501.8625
3141.51092	4501.1625
3143.85406	4516.2625
3146.19579	4516.4625
3148.53609	4543.2625
3150.87499	4538.9625
3153.21246	4554.3625
3155.54853	4581.8625
3157.88318	4582.9625
3160.21642	4591.7625
3162.54826	4584.4625
3164.87868	4614.7625
3167.2077	4626.8625
3169.5353	4651.0625
3171.86151	4647.4625
3174.18631	4657.8625
3176.5097	4663.2625
3178.83169	4657.7625
3181.15228	4647.3625
3183.47147	4637.7625
3185.78926	4637.5625
3188.10565	4643.1625
3190.42065	4667.8625
3192.73424	4664.9625
3195.04645	4651.5625
3197.35725	4651.9625
3199.66667	4637.5625
3201.97469	4657.3625
3204.28132	4669.7625
3206.58656	4720.2625
3208.8904	4715.4625
3211.19287	4718.8625
3213.49394	4707.4625
3215.79363	4697.7625
3218.09193	4724.5625
3220.38884	4738.5625
3222.68438	4764.7625
3224.97853	4765.3625
3227.2713	4777.6625
3229.56269	4767.5625
3231.8527	4775.1625
3234.14133	4760.0625
3236.42858	4748.8625
3238.71446	4767.3625
3240.99896	4756.7625
3243.28209	4752.0625
3245.56384	4748.9625
3247.84423	4726.2625
3250.12324	4735.9625
3252.40088	4717.1625
3254.67715	4717.2625
3256.95205	4730.3625
3259.22558	4737.5625
3261.49775	4759.6625
3263.76855	4746.0625
3266.03799	4754.5625
3268.30606	4737.9625
3270.57277	4763.9625
3272.83812	4752.1625
3275.10211	4728.8625
3277.36474	4737.0625
3279.62601	4739.2625
3281.88593	4733.4625
3284.14448	4740.1625
3286.40168	4729.0625
3288.65753	4717.2625
3290.91202	4715.4625
3293.16516	4696.3625
3295.41695	4695.0625
3297.66738	4672.7625
3299.91647	4670.2625
3302.16421	4668.0625
3304.4106	4646.5625
3306.65564	4616.9625
3308.89933	4575.6625
3311.14169	4545.9625
3313.38269	4517.5625
3315.62236	4507.6625
3317.86068	4474.6625
3320.09766	4455.9625
3322.3333	4401.1625
3324.5676	4383.6625
3326.80056	4306.0625
3329.03219	4293.1625
3331.26248	2.4625
3333.49143	0.6625
3335.71905	0.2625
