Data from AgNPs_UA_50uM_CRN_500uM_AS_RamanShift__7__15-13-41-549.txt Node

Date: Wed Aug 17 15:13:41 BST 2022
User: TCL
Spectrometer: QEP01345
Trigger mode: 4
Integration Time (sec): 7.000000E0
Scans to average: 10
Electric dark correction enabled: true
Nonlinearity correction enabled: false
Boxcar width: 0
XAxis mode: Raman Shifts
Number of Pixels in Spectrum: 1044
>>>>>Begin Spectral Data<<<<<
46.04893	-1.1375
50.45542	-1.1375
54.85868	-1.4375
59.25871	0.4625
63.6555	35.5625
68.04907	39.8625
72.43941	40.3625
76.82654	45.4625
81.21044	46.9625
85.59113	48.3625
89.96862	51.0625
94.34289	58.4625
98.71396	56.5625
103.08183	56.7625
107.4465	63.4625
111.80798	59.1625
116.16626	60.7625
120.52136	58.9625
124.87327	61.1625
129.222	63.7625
133.56755	60.9625
137.90993	61.0625
142.24913	68.7625
146.58517	73.3625
150.91804	73.7625
155.24774	85.0625
159.57429	93.8625
163.89768	114.8625
168.21792	142.4625
172.53501	183.6625
176.84895	247.6625
181.15975	338.9625
185.46741	465.1625
189.77193	640.2625
194.07331	853.0625
198.37157	1093.3625
202.6667	1361.5625
206.9587	1622.6625
211.24758	1885.4625
215.53334	2175.9625
219.81599	2479.6625
224.09553	2819.2625
228.37195	3205.1625
232.64527	3591.4625
236.91549	3983.2625
241.18261	4330.4625
245.44663	4568.7625
249.70755	4735.5625
253.96539	4854.3625
258.22014	4941.6625
262.4718	5010.4625
266.72039	5041.5625
270.96589	5014.3625
275.20832	4934.1625
279.44768	4815.0625
283.68397	4683.7625
287.91719	4585.0625
292.14735	4573.5625
296.37445	4652.0625
300.59849	4839.5625
304.81948	5066.6625
309.03742	5251.1625
313.25231	5377.3625
317.46415	5273.0625
321.67296	4980.8625
325.87872	4691.6625
330.08145	4550.4625
334.28114	4522.9625
338.47781	4554.5625
342.67145	4649.1625
346.86207	4824.0625
351.04966	5058.6625
355.23424	5303.9625
359.4158	5493.6625
363.59435	5554.3625
367.76989	5541.9625
371.94243	5489.3625
376.11196	5427.4625
380.27849	5393.5625
384.44203	5343.4625
388.60257	5302.9625
392.76012	5327.4625
396.91468	5369.6625
401.06626	5462.0625
405.21485	5479.6625
409.36047	5310.0625
413.50311	5020.3625
417.64277	4755.8625
421.77947	4626.1625
425.9132	4571.8625
430.04396	4584.7625
434.17176	4634.4625
438.2966	4716.2625
442.41849	4879.2625
446.53742	5049.9625
450.6534	5183.5625
454.76644	5244.3625
458.87653	5207.3625
462.98368	5134.0625
467.08789	4983.6625
471.18916	4893.0625
475.2875	4749.8625
479.38291	4602.3625
483.4754	4507.1625
487.56496	4444.1625
491.6516	4410.1625
495.73531	4409.6625
499.81612	4427.6625
503.89401	4461.3625
507.96899	4515.5625
512.04106	4582.6625
516.11023	4662.0625
520.1765	4709.6625
524.23987	4756.5625
528.30034	4737.3625
532.35792	4702.4625
536.41261	4616.8625
540.46441	4507.8625
544.51333	4450.9625
548.55936	4472.6625
552.60252	4573.0625
556.64279	4699.1625
560.6802	4780.1625
564.71473	4814.1625
568.7464	4958.2625
572.7752	4986.2625
576.80114	4862.3625
580.82422	4772.5625
584.84444	4811.2625
588.86181	4976.1625
592.87633	5285.7625
596.888	5550.5625
600.89682	5686.5625
604.9028	6180.0625
608.90594	7871.7625
612.90624	9767.3625
616.90371	8815.3625
620.89834	6089.4625
624.89015	4880.4625
628.87913	4710.3625
632.86528	4875.6625
636.84862	5023.6625
640.82913	4899.4625
644.80683	4628.4625
648.78172	4454.4625
652.75379	4465.2625
656.72306	4662.0625
660.68952	4855.3625
664.65319	4686.6625
668.61405	4408.3625
672.57211	4303.0625
676.52738	4368.6625
680.47986	4396.1625
684.42955	4354.0625
688.37646	4282.9625
692.32058	4254.3625
696.26192	4297.2625
700.20048	4344.3625
704.13626	4370.2625
708.06928	4359.8625
711.99952	4322.6625
715.927	4312.3625
719.85171	4365.9625
723.77365	4391.2625
727.69284	4395.5625
731.60928	4359.3625
735.52295	4359.7625
739.43388	4392.4625
743.34206	4409.9625
747.24749	4403.6625
751.15017	4417.6625
755.05012	4493.3625
758.94733	4816.4625
762.8418	5576.7625
766.73354	6771.3625
770.62254	7763.5625
774.50882	7988.7625
778.39237	7425.4625
782.27321	6366.1625
786.15132	5363.7625
790.02671	4767.2625
793.89938	4475.5625
797.76935	4326.0625
801.6366	4262.8625
805.50115	4224.2625
809.36299	4199.5625
813.22213	4166.4625
817.07857	4132.1625
820.93231	4127.4625
824.78336	4132.3625
828.63172	4139.1625
832.47738	4142.3625
836.32036	4121.6625
840.16066	4091.6625
843.99827	4073.8625
847.8332	4070.4625
851.66546	4084.5625
855.49504	4095.8625
859.32195	4095.7625
863.1462	4086.1625
866.96777	4086.8625
870.78668	4097.2625
874.60293	4114.3625
878.41652	4126.0625
882.22745	4168.4625
886.03573	4202.1625
889.84136	4213.4625
893.64433	4196.8625
897.44466	4183.9625
901.24235	4179.8625
905.0374	4135.8625
908.8298	4099.0625
912.61957	4063.8625
916.40671	4059.9625
920.19121	4100.7625
923.97308	4171.4625
927.75233	4228.0625
931.52895	4250.0625
935.30295	4185.4625
939.07433	4020.0625
942.84309	3915.7625
946.60924	3857.5625
950.37278	3831.1625
954.13371	3824.7625
957.89203	3803.0625
961.64774	3796.4625
965.40086	3789.9625
969.15137	3786.7625
972.89929	3777.8625
976.64461	3735.2625
980.38733	3756.3625
984.12747	3755.3625
987.86502	3768.7625
991.59999	3796.8625
995.33237	3840.4625
999.06217	3906.8625
1002.78939	4017.4625
1006.51404	4120.4625
1010.23611	4206.0625
1013.95561	4239.2625
1017.67255	4238.0625
1021.38692	4171.2625
1025.09872	4064.2625
1028.80796	3976.3625
1032.51465	3943.6625
1036.21877	3965.3625
1039.92035	3991.2625
1043.61937	4011.5625
1047.31584	4050.4625
1051.00976	4058.1625
1054.70114	4049.3625
1058.38998	4050.0625
1062.07627	4038.3625
1065.76003	4054.4625
1069.44126	4094.9625
1073.11995	4138.6625
1076.79611	4232.3625
1080.46974	4373.3625
1084.14085	4525.3625
1087.80943	4677.7625
1091.47549	4703.4625
1095.13903	4595.1625
1098.80005	4424.3625
1102.45857	4303.9625
1106.11456	4286.6625
1109.76805	4353.9625
1113.41903	4490.2625
1117.06751	4702.5625
1120.71348	4967.4625
1124.35696	5299.2625
1127.99793	5526.9625
1131.63641	5439.3625
1135.2724	5127.8625
1138.90589	4852.0625
1142.5369	4667.8625
1146.16542	4553.5625
1149.79145	4493.7625
1153.415	4472.6625
1157.03607	4511.3625
1160.65467	4611.1625
1164.27079	4813.0625
1167.88443	5123.7625
1171.49561	5615.3625
1175.10432	6425.4625
1178.71056	7491.7625
1182.31434	8367.6625
1185.91565	8668.6625
1189.51451	8377.8625
1193.11091	7869.4625
1196.70485	7337.6625
1200.29634	6842.6625
1203.88538	6360.7625
1207.47197	5818.5625
1211.05612	5349.4625
1214.63782	5063.7625
1218.21708	4960.0625
1221.79391	4942.8625
1225.36829	5003.3625
1228.94024	4973.5625
1232.50976	4917.8625
1236.07685	4845.6625
1239.6415	4800.3625
1243.20374	4786.8625
1246.76355	4808.5625
1250.32093	4850.3625
1253.8759	4920.8625
1257.42845	5078.6625
1260.97859	5294.8625
1264.52631	5544.0625
1268.07163	5782.0625
1271.61453	5945.9625
1275.15503	6056.6625
1278.69312	6123.4625
1282.22882	6238.2625
1285.76211	6482.3625
1289.29301	6864.0625
1292.82151	7218.0625
1296.34761	7663.7625
1299.87133	8243.5625
1303.39266	9149.4625
1306.9116	10392.9625
1310.42815	11530.9625
1313.94233	11840.9625
1317.45412	11079.5625
1320.96354	9926.4625
1324.47058	8801.1625
1327.97525	7818.3625
1331.47754	7232.0625
1334.97747	6990.0625
1338.47502	7035.8625
1341.97022	7321.4625
1345.46305	7937.3625
1348.95352	8800.8625
1352.44163	9882.5625
1355.92738	11265.2625
1359.41078	13170.1625
1362.89183	14801.6625
1366.37053	14209.4625
1369.84688	11615.8625
1373.32088	9110.2625
1376.79254	7661.7625
1380.26186	6977.6625
1383.72883	6557.2625
1387.19347	6163.1625
1390.65578	5810.9625
1394.11575	5560.9625
1397.57339	5429.0625
1401.0287	5351.8625
1404.48168	5295.7625
1407.93234	5239.6625
1411.38068	5231.3625
1414.82669	5280.5625
1418.27039	5292.6625
1421.71177	5248.7625
1425.15083	5110.8625
1428.58758	5054.7625
1432.02203	5091.5625
1435.45416	5174.8625
1438.88399	5211.6625
1442.31151	5188.1625
1445.73673	5207.7625
1449.15965	5229.3625
1452.58027	5179.9625
1455.9986	5119.5625
1459.41463	5117.8625
1462.82837	5196.9625
1466.23982	5377.1625
1469.64898	5545.5625
1473.05586	5692.6625
1476.46045	5790.7625
1479.86276	5888.6625
1483.26279	6064.1625
1486.66054	6289.7625
1490.05602	6685.9625
1493.44922	7302.6625
1496.84016	8160.1625
1500.22882	9417.2625
1503.61521	11080.2625
1506.99934	12710.0625
1510.38121	13658.4625
1513.76081	13332.8625
1517.13816	11785.6625
1520.51324	9862.4625
1523.88607	8333.8625
1527.25665	7443.4625
1530.62498	7013.6625
1533.99105	6752.2625
1537.35488	6501.8625
1540.71647	6251.6625
1544.07581	6036.0625
1547.4329	5892.7625
1550.78776	5807.7625
1554.14038	5750.5625
1557.49077	5774.2625
1560.83892	5913.0625
1564.18484	6242.2625
1567.52853	6662.1625
1570.86999	7046.6625
1574.20922	7255.7625
1577.54624	7110.3625
1580.88103	6583.7625
1584.2136	5969.3625
1587.54395	5598.2625
1590.87208	5644.5625
1594.19801	6009.9625
1597.52172	6444.3625
1600.84321	6580.2625
1604.16251	6301.5625
1607.47959	5891.5625
1610.79447	5471.3625
1614.10715	5034.9625
1617.41763	4706.3625
1620.7259	4477.1625
1624.03199	4356.8625
1627.33587	4369.7625
1630.63757	4497.6625
1633.93707	4820.7625
1637.23439	5376.1625
1640.52951	6316.1625
1643.82246	7586.0625
1647.11321	8871.0625
1650.40179	9469.9625
1653.68819	8841.3625
1656.97241	7384.4625
1660.25446	5939.1625
1663.53433	4936.5625
1666.81203	4356.4625
1670.08756	4021.2625
1673.36092	3807.1625
1676.63211	3682.7625
1679.90115	3587.0625
1683.16801	3512.3625
1686.43272	3452.4625
1689.69527	3398.3625
1692.95567	3363.2625
1696.2139	3343.4625
1699.46999	3314.4625
1702.72392	3285.4625
1705.97571	3250.7625
1709.22535	3240.9625
1712.47284	3235.1625
1715.71819	3212.0625
1718.96139	3174.9625
1722.20246	3165.5625
1725.44139	3144.5625
1728.67818	3099.3625
1731.91284	3072.7625
1735.14537	3056.1625
1738.37576	3025.9625
1741.60403	3019.2625
1744.83017	2990.8625
1748.05418	2987.6625
1751.27607	2990.3625
1754.49584	3010.5625
1757.71349	3001.7625
1760.92903	2980.3625
1764.14244	2972.6625
1767.35375	2955.0625
1770.56294	2942.8625
1773.77002	2905.1625
1776.97499	2861.1625
1780.17785	2846.5625
1783.37861	2833.5625
1786.57727	2827.8625
1789.77382	2811.7625
1792.96828	2797.8625
1796.16064	2783.0625
1799.3509	2772.7625
1802.53907	2768.4625
1805.72514	2751.3625
1808.90913	2726.8625
1812.09102	2723.2625
1815.27083	2704.7625
1818.44856	2698.7625
1821.6242	2701.2625
1824.79776	2688.0625
1827.96924	2676.9625
1831.13864	2661.5625
1834.30597	2661.1625
1837.47122	2644.9625
1840.6344	2636.6625
1843.7955	2639.3625
1846.95454	2643.1625
1850.11151	2625.8625
1853.26642	2627.9625
1856.41926	2619.8625
1859.57004	2619.1625
1862.71876	2614.5625
1865.86542	2607.5625
1869.01003	2620.0625
1872.15258	2606.8625
1875.29308	2616.5625
1878.43152	2606.8625
1881.56792	2594.2625
1884.70227	2589.4625
1887.83457	2598.4625
1890.96482	2586.1625
1894.09304	2574.6625
1897.21921	2585.8625
1900.34335	2568.1625
1903.46544	2573.2625
1906.58551	2574.8625
1909.70353	2560.3625
1912.81953	2555.9625
1915.93349	2545.7625
1919.04543	2561.7625
1922.15534	2548.6625
1925.26322	2542.0625
1928.36908	2526.5625
1931.47292	2521.4625
1934.57473	2501.8625
1937.67453	2504.3625
1940.77232	2477.8625
1943.86808	2467.8625
1946.96184	2462.2625
1950.05358	2459.7625
1953.14331	2442.2625
1956.23103	2439.9625
1959.31675	2439.3625
1962.40046	2429.6625
1965.48217	2422.3625
1968.56188	2416.7625
1971.63959	2411.9625
1974.7153	2398.4625
1977.78901	2402.4625
1980.86073	2392.1625
1983.93046	2376.8625
1986.99819	2356.1625
1990.06394	2361.1625
1993.1277	2343.5625
1996.18947	2330.6625
1999.24925	2323.3625
2002.30706	2319.4625
2005.36288	2296.2625
2008.41672	2306.2625
2011.46859	2286.0625
2014.51848	2280.1625
2017.56639	2261.0625
2020.61233	2267.5625
2023.6563	2277.8625
2026.6983	2243.7625
2029.73833	2242.5625
2032.7764	2237.5625
2035.8125	2237.5625
2038.84664	2231.4625
2041.87881	2221.9625
2044.90903	2217.0625
2047.93729	2216.4625
2050.96359	2212.4625
2053.98794	2209.9625
2057.01034	2207.9625
2060.03078	2205.1625
2063.04927	2192.0625
2066.06582	2193.2625
2069.08042	2191.8625
2072.09307	2184.2625
2075.10378	2195.3625
2078.11255	2180.7625
2081.11938	2182.3625
2084.12426	2190.7625
2087.12722	2189.1625
2090.12824	2188.7625
2093.12732	2194.6625
2096.12447	2188.9625
2099.11969	2191.0625
2102.11299	2191.9625
2105.10435	2193.6625
2108.09379	2180.5625
2111.08131	2186.7625
2114.0669	2191.7625
2117.05057	2188.1625
2120.03233	2203.9625
2123.01216	2206.1625
2125.99008	2201.3625
2128.96609	2206.2625
2131.94018	2213.2625
2134.91236	2204.8625
2137.88263	2206.2625
2140.851	2205.5625
2143.81746	2197.6625
2146.78201	2199.7625
2149.74466	2198.4625
2152.7054	2184.7625
2155.66425	2179.7625
2158.6212	2174.8625
2161.57625	2165.7625
2164.52941	2153.7625
2167.48067	2162.5625
2170.43004	2155.3625
2173.37752	2141.5625
2176.32311	2152.8625
2179.26681	2155.6625
2182.20863	2157.6625
2185.14856	2155.6625
2188.08661	2141.2625
2191.02278	2144.3625
2193.95707	2143.1625
2196.88948	2139.8625
2199.82001	2138.0625
2202.74867	2139.4625
2205.67545	2123.7625
2208.60037	2139.3625
2211.52341	2118.7625
2214.44458	2127.9625
2217.36388	2103.1625
2220.28132	2106.4625
2223.1969	2093.3625
2226.11061	2090.8625
2229.02246	2093.6625
2231.93245	2076.4625
2234.84058	2070.8625
2237.74686	2069.1625
2240.65128	2078.9625
2243.55385	2079.0625
2246.45456	2070.5625
2249.35343	2077.2625
2252.25044	2064.5625
2255.14561	2073.5625
2258.03893	2078.5625
2260.93041	2076.7625
2263.82004	2067.5625
2266.70783	2049.4625
2269.59378	2060.9625
2272.4779	2047.7625
2275.36017	2046.4625
2278.24061	2039.6625
2281.11922	2031.2625
2283.996	2021.1625
2286.87094	2024.9625
2289.74405	2012.3625
2292.61534	2009.3625
2295.4848	1996.4625
2298.35243	1992.4625
2301.21824	1992.0625
2304.08223	1986.4625
2306.94439	1989.4625
2309.80474	1987.3625
2312.66327	1990.0625
2315.51999	1977.7625
2318.37489	1983.7625
2321.22797	1971.2625
2324.07925	1979.9625
2326.92871	1960.6625
2329.77637	1970.4625
2332.62222	1961.8625
2335.46626	1965.4625
2338.3085	1963.7625
2341.14893	1962.9625
2343.98756	1961.8625
2346.8244	1958.4625
2349.65943	1955.1625
2352.49267	1959.3625
2355.32411	1956.1625
2358.15376	1967.2625
2360.98161	1966.9625
2363.80768	1975.7625
2366.63195	1980.7625
2369.45444	1986.1625
2372.27514	1978.8625
2375.09405	1975.8625
2377.91118	1981.8625
2380.72652	1964.1625
2383.54009	1961.1625
2386.35187	1953.2625
2389.16188	1927.5625
2391.97011	1926.6625
2394.77657	1922.9625
2397.58125	1918.5625
2400.38416	1912.1625
2403.18529	1914.7625
2405.98466	1900.7625
2408.78226	1889.2625
2411.57809	1884.2625
2414.37216	1882.9625
2417.16446	1882.4625
2419.955	1880.7625
2422.74378	1883.5625
2425.5308	1881.6625
2428.31606	1875.9625
2431.09956	1881.6625
2433.88131	1882.2625
2436.6613	1891.8625
2439.43954	1880.1625
2442.21603	1877.2625
2444.99077	1883.1625
2447.76377	1867.4625
2450.53501	1875.0625
2453.30451	1867.6625
2456.07226	1875.7625
2458.83827	1874.1625
2461.60254	1880.2625
2464.36507	1874.4625
2467.12586	1864.8625
2469.88492	1870.2625
2472.64224	1868.9625
2475.39782	1882.0625
2478.15167	1880.1625
2480.90379	1887.2625
2483.65417	1893.9625
2486.40283	1894.7625
2489.14976	1894.9625
2491.89497	1891.4625
2494.63845	1897.8625
2497.3802	1900.2625
2500.12024	1895.8625
2502.85855	1891.5625
2505.59514	1893.9625
2508.33002	1864.4625
2511.06318	1862.6625
2513.79462	1846.1625
2516.52435	1842.6625
2519.25237	1834.4625
2521.97867	1832.7625
2524.70327	1821.8625
2527.42616	1812.4625
2530.14734	1815.6625
2532.86681	1802.4625
2535.58458	1816.2625
2538.30065	1804.7625
2541.01501	1810.2625
2543.72768	1814.6625
2546.43864	1819.1625
2549.14791	1810.7625
2551.85548	1807.5625
2554.56136	1801.5625
2557.26554	1801.7625
2559.96803	1800.5625
2562.66883	1792.3625
2565.36794	1791.7625
2568.06536	1779.8625
2570.7611	1779.6625
2573.45514	1770.7625
2576.14751	1774.1625
2578.83819	1768.7625
2581.52719	1768.9625
2584.21451	1765.8625
2586.90015	1764.1625
2589.58411	1768.3625
2592.2664	1763.0625
2594.94701	1753.6625
2597.62594	1763.1625
2600.30321	1762.3625
2602.9788	1746.1625
2605.65273	1744.3625
2608.32498	1749.7625
2610.99557	1745.2625
2613.66449	1746.7625
2616.33175	1741.9625
2618.99734	1744.9625
2621.66128	1736.2625
2624.32355	1734.8625
2626.98416	1724.4625
2629.64311	1731.7625
2632.30041	1727.1625
2634.95605	1724.9625
2637.61004	1718.3625
2640.26238	1709.9625
2642.91306	1710.4625
2645.56209	1704.4625
2648.20948	1717.7625
2650.85521	1705.4625
2653.4993	1702.9625
2656.14175	1711.4625
2658.78255	1720.0625
2661.42171	1716.6625
2664.05923	1713.1625
2666.6951	1720.4625
2669.32934	1721.0625
2671.96194	1721.3625
2674.59291	1718.9625
2677.22224	1720.1625
2679.84993	1723.2625
2682.476	1726.2625
2685.10043	1722.4625
2687.72324	1715.1625
2690.34441	1716.9625
2692.96396	1709.3625
2695.58188	1708.7625
2698.19818	1713.2625
2700.81285	1708.2625
2703.4259	1709.9625
2706.03733	1732.5625
2708.64714	1711.8625
2711.25533	1701.8625
2713.86191	1706.0625
2716.46687	1720.0625
2719.07021	1719.6625
2721.67194	1724.5625
2724.27206	1718.8625
2726.87057	1722.7625
2729.46747	1716.6625
2732.06276	1717.6625
2734.65644	1712.8625
2737.24852	1695.4625
2739.83899	1715.3625
2742.42786	1710.1625
2745.01513	1694.6625
2747.60079	1698.5625
2750.18486	1696.7625
2752.76733	1694.9625
2755.3482	1679.7625
2757.92747	1679.9625
2760.50515	1685.7625
2763.08123	1677.7625
2765.65573	1669.0625
2768.22863	1676.9625
2770.79994	1666.3625
2773.36967	1672.7625
2775.9378	1662.9625
2778.50435	1665.7625
2781.06932	1662.0625
2783.6327	1672.0625
2786.1945	1666.3625
2788.75471	1668.6625
2791.31335	1662.8625
2793.87041	1669.5625
2796.42589	1667.0625
2798.97979	1666.1625
2801.53212	1667.3625
2804.08288	1667.3625
2806.63206	1650.2625
2809.17967	1668.6625
2811.72571	1670.5625
2814.27018	1672.1625
2816.81308	1659.6625
2819.35442	1674.4625
2821.89419	1668.2625
2824.43239	1670.4625
2826.96904	1668.0625
2829.50412	1672.7625
2832.03763	1672.0625
2834.56959	1668.6625
2837.1	1668.0625
2839.62884	1670.6625
2842.15613	1663.4625
2844.68186	1679.5625
2847.20604	1686.5625
2849.72867	1684.8625
2852.24974	1698.8625
2854.76927	1705.2625
2857.28724	1699.7625
2859.80367	1711.8625
2862.31855	1721.7625
2864.83189	1720.9625
2867.34368	1740.1625
2869.85393	1744.6625
2872.36264	1749.6625
2874.8698	1755.6625
2877.37543	1761.1625
2879.87952	1764.8625
2882.38207	1751.5625
2884.88308	1762.5625
2887.38256	1776.8625
2889.88051	1767.5625
2892.37692	1772.5625
2894.8718	1780.8625
2897.36515	1787.1625
2899.85698	1802.7625
2902.34727	1812.1625
2904.83604	1817.3625
2907.32328	1831.6625
2909.809	1830.0625
2912.29319	1843.5625
2914.77587	1840.8625
2917.25702	1854.1625
2919.73665	1852.3625
2922.21476	1854.2625
2924.69136	1858.9625
2927.16644	1862.3625
2929.64	1851.8625
2932.11205	1848.1625
2934.58258	1843.7625
2937.05161	1844.4625
2939.51912	1844.0625
2941.98513	1851.7625
2944.44962	1836.1625
2946.91261	1834.8625
2949.37409	1823.7625
2951.83407	1807.3625
2954.29254	1809.2625
2956.74951	1796.2625
2959.20498	1783.6625
2961.65895	1777.4625
2964.11142	1759.9625
2966.56239	1754.3625
2969.01186	1734.6625
2971.45984	1728.2625
2973.90632	1717.0625
2976.35131	1717.7625
2978.7948	1706.1625
2981.23681	1694.9625
2983.67732	1696.3625
2986.11635	1688.0625
2988.55388	1678.3625
2990.98993	1668.3625
2993.4245	1664.6625
2995.85758	1669.4625
2998.28917	1655.7625
3000.71928	1650.1625
3003.14791	1656.0625
3005.57506	1649.3625
3008.00073	1637.6625
3010.42493	1600.7625
3012.84764	1633.2625
3015.26888	1629.7625
3017.68865	1620.3625
3020.10694	1626.3625
3022.52376	1612.0625
3024.9391	1619.1625
3027.35298	1613.0625
3029.76539	1610.1625
3032.17632	1606.9625
3034.5858	1599.1625
3036.9938	1601.7625
3039.40034	1596.0625
3041.80542	1600.0625
3044.20903	1605.9625
3046.61118	1598.8625
3049.01187	1600.7625
3051.4111	1600.1625
3053.80888	1610.5625
3056.20519	1599.9625
3058.60005	1605.1625
3060.99345	1608.4625
3063.3854	1599.1625
3065.7759	1604.6625
3068.16494	1595.4625
3070.55254	1591.3625
3072.93868	1591.9625
3075.32338	1594.1625
3077.70662	1591.1625
3080.08842	1582.4625
3082.46878	1589.1625
3084.84769	1580.4625
3087.22515	1592.5625
3089.60118	1600.0625
3091.97576	1595.3625
3094.3489	1594.3625
3096.72061	1603.5625
3099.09087	1607.8625
3101.4597	1622.8625
3103.82709	1622.5625
3106.19305	1624.4625
3108.55757	1637.2625
3110.92066	1626.8625
3113.28232	1634.5625
3115.64255	1637.5625
3118.00134	1647.0625
3120.35871	1645.3625
3122.71466	1631.5625
3125.06917	1641.7625
3127.42226	1650.8625
3129.77393	1651.0625
3132.12417	1667.7625
3134.47299	1672.8625
3136.82039	1683.0625
3139.16636	1677.5625
3141.51092	1684.2625
3143.85406	1684.6625
3146.19579	1691.8625
3148.53609	1705.7625
3150.87499	1697.0625
3153.21246	1718.8625
3155.54853	1726.1625
3157.88318	1725.6625
3160.21642	1736.8625
3162.54826	1740.0625
3164.87868	1741.2625
3167.2077	1754.3625
3169.5353	1761.2625
3171.86151	1769.3625
3174.18631	1780.0625
3176.5097	1775.3625
3178.83169	1781.6625
3181.15228	1785.6625
3183.47147	1782.1625
3185.78926	1784.7625
3188.10565	1795.9625
3190.42065	1796.0625
3192.73424	1800.5625
3195.04645	1806.1625
3197.35725	1811.1625
3199.66667	1812.6625
3201.97469	1818.1625
3204.28132	1822.3625
3206.58656	1836.4625
3208.8904	1827.3625
3211.19287	1838.3625
3213.49394	1848.3625
3215.79363	1848.7625
3218.09193	1854.2625
3220.38884	1865.6625
3222.68438	1868.8625
3224.97853	1861.0625
3227.2713	1868.6625
3229.56269	1870.4625
3231.8527	1869.4625
3234.14133	1876.0625
3236.42858	1863.9625
3238.71446	1872.3625
3240.99896	1862.7625
3243.28209	1862.1625
3245.56384	1853.7625
3247.84423	1856.1625
3250.12324	1858.8625
3252.40088	1859.2625
3254.67715	1844.4625
3256.95205	1846.3625
3259.22558	1862.5625
3261.49775	1867.6625
3263.76855	1861.1625
3266.03799	1869.5625
3268.30606	1855.5625
3270.57277	1859.2625
3272.83812	1853.2625
3275.10211	1856.1625
3277.36474	1865.6625
3279.62601	1861.9625
3281.88593	1863.0625
3284.14448	1854.7625
3286.40168	1862.1625
3288.65753	1865.8625
3290.91202	1859.7625
3293.16516	1866.5625
3295.41695	1868.2625
3297.66738	1861.9625
3299.91647	1848.0625
3302.16421	1846.1625
3304.4106	1836.9625
3306.65564	1822.9625
3308.89933	1813.9625
3311.14169	1797.2625
3313.38269	1790.5625
3315.62236	1793.4625
3317.86068	1772.3625
3320.09766	1759.6625
3322.3333	1745.7625
3324.5676	1753.8625
3326.80056	1723.6625
3329.03219	1710.2625
3331.26248	1.2625
3333.49143	1.3625
3335.71905	0.4625
