EXPLAIN
TAG	CHRONOA
TITLE	LABEL	Chronoamperometry Scan	Test Identifier
DATE	LABEL	27/1/2022	Date
TIME	LABEL	16:35:26	Time
NOTES	NOTES	1	Notes...
	
PSTAT	PSTAT	IFC1010-21051	Potentiostat
VPRESTEP	POTEN	1.00000E-001	F	Pre-step Voltage (V)
TPRESTEP	QUANT	5.00000E-001	Pre-step Delay Time (s)
VSTEP1	POTEN	0.00000E+000	F	Step 1 Voltage (V)
TSTEP1	QUANT	6.00000E+001	Step 1 Time (s)
VSTEP2	POTEN	1.00000E-001	F	Step 2 Voltage (V)
TSTEP2	QUANT	1.00000E+000	Step 2 Time (s)
SAMPLETIME	QUANT	1.00000E-002	Sample Period (s)
DECIMATE	TOGGLE	T	Decimate
ILIMIT	QUANT	1.00000E+000	Limit I (mA/cm^2)
IMODE	SELECTOR	1	I/E Range Mode
IRANGE	QUANT	3.00000E-001	Max Current (mA)
EQDELAY	QUANT	5.00000E+000	Equil. Time (s)
SAMPLINGMODE	SELECTOR	1	Sampling Mode
AREA	QUANT	1.00000E+000	Sample Area (cm^2)
IRCOMP	SELECTOR	0	IRComp
PFCOR	QUANT	5.00000E+001	PF Corr. (ohm)
SEQUENCER	TOGGLE	TRUE	Run as Sequence
PSTATMODEL	IQUANT	64	Pstat Model
PSTATSECTION	LABEL	IFC1010-21051	Pstat Section
PSTATSERIALNO	LABEL	21051	Pstat Serial Number
CTRLMODE	IQUANT	1	Control Mode
ELECTROMETER	IQUANT	0	RE=0 or CS=1
IESTAB	IQUANT	0	I/E Stability
CASPEED	IQUANT	4	Control Amp Speed
CONVENTION	IQUANT	1	Current Convention
ICHRANGE	IQUANT	2	Ich Range
ICHRANGEMODE	TOGGLE	T	Ich Auto Range
ICHOFFSETENABLE	TOGGLE	F	Ich Offset Enable
ICHOFFSET	QUANT	0	Ich Offset (V)
ICHFILTER	IQUANT	3	Ich Filter
VCHRANGE	IQUANT	3	Vch Range
VCHRANGEMODE	TOGGLE	T	Vch Auto Range
VCHOFFSETENABLE	TOGGLE	F	Vch Offset Enable
VCHOFFSET	QUANT	0	Vch Offset (V)
VCHFILTER	IQUANT	3	Vch Filter
IERANGELOWERLIMIT	IQUANT	4	I/E Range Lower Limit
IERANGEMODE	TOGGLE	F	I/E AutoRange
IERANGE	IQUANT	9	I/E Range
ACHSELECT	IQUANT	0	Ach Select
ACHRANGE	IQUANT	2	Ach Range
ACHOFFSETENABLE	TOGGLE	F	Ach Offset Enable
ACHOFFSET	QUANT	0	Ach Offset (V)
ACHFILTER	IQUANT	1	Ach Filter
SENSECABLEID	IQUANT	14	Sense Cable ID
PWRCABLEID	IQUANT	14	Power Cable ID
DCCALDATE	LABEL	1/24/2022	DC Calibration Date
ACCALDATE	LABEL	4/2/2018	AC Calibration Date
FRAMEWORKVERSION	QUANT	7.06	Framework Version
INSTRUMENTVERSION	LABEL	4.30	Instrument Version
CURVE	TABLE	201
	Pt	T	Vf	Im	Vu	Sig	Ach	IERange	Over	Temp
	#	s	V vs. Ref.	A	V	V	V	#	bits	deg C
	0	-0.49	9.90407E-002	-9.73014E-005	0.00000E+000	9.99387E-002	0.00000E+000	9	...........	1426.04
	1	-0.48	9.97752E-002	-9.83018E-005	0.00000E+000	9.99387E-002	0.00000E+000	9	...........	1426.04
	2	-0.47	9.99496E-002	-9.69593E-005	0.00000E+000	9.99387E-002	0.00000E+000	9	...........	1426.04
	3	-0.46	9.99490E-002	-9.79237E-005	0.00000E+000	9.99387E-002	0.00000E+000	9	...........	1426.04
	4	-0.45	9.99460E-002	-9.66393E-005	0.00000E+000	9.99387E-002	0.00000E+000	9	...........	1426.04
	5	-0.44	9.99519E-002	-9.75694E-005	0.00000E+000	9.99387E-002	0.00000E+000	9	...........	1426.04
	6	-0.43	9.99484E-002	-9.62970E-005	0.00000E+000	9.99387E-002	0.00000E+000	9	...........	1426.04
	7	-0.42	9.99467E-002	-9.72243E-005	0.00000E+000	9.99387E-002	0.00000E+000	9	...........	1426.04
	8	-0.41	9.99473E-002	-9.59669E-005	0.00000E+000	9.99387E-002	0.00000E+000	9	...........	1426.04
	9	-0.4	9.99481E-002	-9.68690E-005	0.00000E+000	9.99387E-002	0.00000E+000	9	...........	1426.04
	10	-0.39	9.99449E-002	-9.56282E-005	0.00000E+000	9.99387E-002	0.00000E+000	9	...........	1426.04
	11	-0.38	9.99520E-002	-9.64986E-005	0.00000E+000	9.99387E-002	0.00000E+000	9	...........	1426.04
	12	-0.37	9.99496E-002	-9.52887E-005	0.00000E+000	9.99387E-002	0.00000E+000	9	...........	1426.04
	13	-0.36	9.99503E-002	-9.61616E-005	0.00000E+000	9.99387E-002	0.00000E+000	9	...........	1426.04
	14	-0.35	9.99487E-002	-9.49915E-005	0.00000E+000	9.99387E-002	0.00000E+000	9	...........	1426.04
	15	-0.34	9.99481E-002	-9.58129E-005	0.00000E+000	9.99387E-002	0.00000E+000	9	...........	1426.04
	16	-0.33	9.99498E-002	-9.46389E-005	0.00000E+000	9.99387E-002	0.00000E+000	9	...........	1426.04
	17	-0.32	9.99475E-002	-9.54667E-005	0.00000E+000	9.99387E-002	0.00000E+000	9	...........	1426.04
	18	-0.31	9.99471E-002	-9.43241E-005	0.00000E+000	9.99387E-002	0.00000E+000	9	...........	1426.04
	19	-0.3	9.99468E-002	-9.51088E-005	0.00000E+000	9.99387E-002	0.00000E+000	9	...........	1426.04
	20	-0.29	9.99493E-002	-9.39929E-005	0.00000E+000	9.99387E-002	0.00000E+000	9	...........	1426.04
	21	-0.28	9.99458E-002	-9.47743E-005	0.00000E+000	9.99387E-002	0.00000E+000	9	...........	1426.04
	22	-0.27	9.99455E-002	-9.36590E-005	0.00000E+000	9.99387E-002	0.00000E+000	9	...........	1426.04
	23	-0.26	9.99459E-002	-9.44237E-005	0.00000E+000	9.99387E-002	0.00000E+000	9	...........	1426.04
	24	-0.25	9.99487E-002	-9.33392E-005	0.00000E+000	9.99387E-002	0.00000E+000	9	...........	1426.04
	25	-0.24	9.99475E-002	-9.40505E-005	0.00000E+000	9.99387E-002	0.00000E+000	9	...........	1426.04
	26	-0.23	9.99474E-002	-9.30058E-005	0.00000E+000	9.99387E-002	0.00000E+000	9	...........	1426.04
	27	-0.22	9.99490E-002	-9.37107E-005	0.00000E+000	9.99387E-002	0.00000E+000	9	...........	1426.04
	28	-0.21	9.99459E-002	-9.26880E-005	0.00000E+000	9.99387E-002	0.00000E+000	9	...........	1426.04
	29	-0.2	9.99500E-002	-9.33751E-005	0.00000E+000	9.99387E-002	0.00000E+000	9	...........	1426.04
	30	-0.19	9.99471E-002	-9.23574E-005	0.00000E+000	9.99387E-002	0.00000E+000	9	...........	1426.04
	31	-0.18	9.99486E-002	-9.30331E-005	0.00000E+000	9.99387E-002	0.00000E+000	9	...........	1426.04
	32	-0.17	9.99474E-002	-9.20445E-005	0.00000E+000	9.99387E-002	0.00000E+000	9	...........	1426.04
	33	-0.16	9.99517E-002	-9.26869E-005	0.00000E+000	9.99387E-002	0.00000E+000	9	...........	1426.04
	34	-0.15	9.99491E-002	-9.16928E-005	0.00000E+000	9.99387E-002	0.00000E+000	9	...........	1426.04
	35	-0.14	9.99483E-002	-9.23668E-005	0.00000E+000	9.99387E-002	0.00000E+000	9	...........	1426.04
	36	-0.13	9.99436E-002	-9.13727E-005	0.00000E+000	9.99387E-002	0.00000E+000	9	...........	1426.04
	37	-0.12	9.99490E-002	-9.20331E-005	0.00000E+000	9.99387E-002	0.00000E+000	9	...........	1426.04
	38	-0.11	9.99492E-002	-9.10363E-005	0.00000E+000	9.99387E-002	0.00000E+000	9	...........	1426.04
	39	-0.1	9.99497E-002	-9.17061E-005	0.00000E+000	9.99387E-002	0.00000E+000	9	...........	1426.04
	40	-0.09	9.99521E-002	-9.07176E-005	0.00000E+000	9.99387E-002	0.00000E+000	9	...........	1426.04
	41	-0.08	9.99515E-002	-9.13819E-005	0.00000E+000	9.99387E-002	0.00000E+000	9	...........	1426.04
	42	-0.07	9.99485E-002	-9.04126E-005	0.00000E+000	9.99387E-002	0.00000E+000	9	...........	1426.04
	43	-0.06	9.99506E-002	-9.10755E-005	0.00000E+000	9.99387E-002	0.00000E+000	9	...........	1426.04
	44	-0.05	9.99504E-002	-9.00864E-005	0.00000E+000	9.99387E-002	0.00000E+000	9	...........	1426.04
	45	-0.04	9.99502E-002	-9.07271E-005	0.00000E+000	9.99387E-002	0.00000E+000	9	...........	1426.04
	46	-0.03	9.99488E-002	-8.97438E-005	0.00000E+000	9.99387E-002	0.00000E+000	9	...........	1426.04
	47	-0.02	9.99471E-002	-9.03998E-005	0.00000E+000	9.99387E-002	0.00000E+000	9	...........	1426.04
	48	-0.01	9.99465E-002	-8.94346E-005	0.00000E+000	9.99387E-002	0.00000E+000	9	...........	1426.04
	49	0	9.99496E-002	-9.00820E-005	0.00000E+000	9.99387E-002	0.00000E+000	9	...........	1426.04
	50	0.01	-6.95390E-005	-6.73263E-004	0.00000E+000	-6.08154E-005	0.00000E+000	9	...........	1426.04
	51	0.02	-5.83238E-005	-6.20091E-004	0.00000E+000	-6.08154E-005	0.00000E+000	9	...........	1426.04
	52	0.03	-5.47277E-005	-5.83815E-004	0.00000E+000	-6.08154E-005	0.00000E+000	9	...........	1426.04
	53	0.04	-5.69972E-005	-5.55189E-004	0.00000E+000	-6.08154E-005	0.00000E+000	9	...........	1426.04
	54	0.05	-5.80234E-005	-5.28460E-004	0.00000E+000	-6.08154E-005	0.00000E+000	9	...........	1426.04
	55	0.06	-5.86659E-005	-5.05987E-004	0.00000E+000	-6.08154E-005	0.00000E+000	9	...........	1426.04
	56	0.07	-5.57874E-005	-4.84117E-004	0.00000E+000	-6.08154E-005	0.00000E+000	9	...........	1426.04
	57	0.08	-5.58958E-005	-4.65714E-004	0.00000E+000	-6.08154E-005	0.00000E+000	9	...........	1426.04
	58	0.09	-5.90831E-005	-4.47360E-004	0.00000E+000	-6.08154E-005	0.00000E+000	9	...........	1426.04
	59	0.1	-5.39935E-005	-4.32023E-004	0.00000E+000	-6.08154E-005	0.00000E+000	9	...........	1426.04
	60	0.11	-5.69137E-005	-4.16461E-004	0.00000E+000	-6.08154E-005	0.00000E+000	9	...........	1426.04
	61	0.12	-5.81653E-005	-4.03612E-004	0.00000E+000	-6.08154E-005	0.00000E+000	9	...........	1426.04
	62	0.13	-5.79901E-005	-3.90212E-004	0.00000E+000	-6.08154E-005	0.00000E+000	9	...........	1426.04
	63	0.14	-5.72558E-005	-3.79335E-004	0.00000E+000	-6.08154E-005	0.00000E+000	9	...........	1426.04
	64	0.15	-5.88578E-005	-3.67739E-004	0.00000E+000	-6.08154E-005	0.00000E+000	9	...........	1426.04
	65	0.16	-5.64715E-005	-3.58442E-004	0.00000E+000	-6.08154E-005	0.00000E+000	9	...........	1426.04
	66	0.17	-5.60961E-005	-3.48340E-004	0.00000E+000	-6.08154E-005	0.00000E+000	9	...........	1426.04
	67	0.18	-5.58875E-005	-3.40366E-004	0.00000E+000	-6.08154E-005	0.00000E+000	9	...........	1426.04
	68	0.19	-5.53368E-005	-3.31426E-004	0.00000E+000	-6.08154E-005	0.00000E+000	9	...........	1426.04
	69	0.2	-5.88995E-005	-3.24571E-004	0.00000E+000	-6.08154E-005	0.00000E+000	9	...........	1426.04
	70	0.21	-5.99091E-005	-3.16619E-004	0.00000E+000	-6.08154E-005	0.00000E+000	9	...........	1426.04
	71	0.22	-5.63547E-005	-3.10615E-004	0.00000E+000	-6.08154E-005	0.00000E+000	9	...........	1426.04
	72	0.23	-5.74728E-005	-3.03489E-004	0.00000E+000	-6.08154E-005	0.00000E+000	9	...........	1426.04
	73	0.24	-5.48612E-005	-2.98245E-004	0.00000E+000	-6.08154E-005	0.00000E+000	9	...........	1426.04
	74	0.25	-5.54453E-005	-2.91836E-004	0.00000E+000	-6.08154E-005	0.00000E+000	9	...........	1426.04
	75	0.26	-5.84490E-005	-2.87245E-004	0.00000E+000	-6.08154E-005	0.00000E+000	9	...........	1426.04
	76	0.27	-5.90497E-005	-2.81424E-004	0.00000E+000	-6.08154E-005	0.00000E+000	9	...........	1426.04
	77	0.28	-5.71057E-005	-2.77325E-004	0.00000E+000	-6.08154E-005	0.00000E+000	9	...........	1426.04
	78	0.29	-5.50031E-005	-2.71987E-004	0.00000E+000	-6.08154E-005	0.00000E+000	9	...........	1426.04
	79	0.3	-5.68220E-005	-2.68370E-004	0.00000E+000	-6.08154E-005	0.00000E+000	9	...........	1426.04
	80	0.31	-5.49280E-005	-2.63459E-004	0.00000E+000	-6.08154E-005	0.00000E+000	9	...........	1426.04
	81	0.32	-5.66718E-005	-2.60233E-004	0.00000E+000	-6.08154E-005	0.00000E+000	9	...........	1426.04
	82	0.33	-5.79233E-005	-2.55686E-004	0.00000E+000	-6.08154E-005	0.00000E+000	9	...........	1426.04
	83	0.34	-5.48195E-005	-2.52775E-004	0.00000E+000	-6.08154E-005	0.00000E+000	9	...........	1426.04
	84	0.35	-5.57623E-005	-2.48542E-004	0.00000E+000	-6.08154E-005	0.00000E+000	9	...........	1426.04
	85	0.36	-5.70306E-005	-2.45922E-004	0.00000E+000	-6.08154E-005	0.00000E+000	9	...........	1426.04
	86	0.37	-6.01511E-005	-2.41960E-004	0.00000E+000	-6.08154E-005	0.00000E+000	9	...........	1426.04
	87	0.38	-5.70973E-005	-2.39561E-004	0.00000E+000	-6.08154E-005	0.00000E+000	9	...........	1426.04
	88	0.39	-6.03096E-005	-2.35867E-004	0.00000E+000	-6.08154E-005	0.00000E+000	9	...........	1426.04
	89	0.4	-5.73560E-005	-2.33685E-004	0.00000E+000	-6.08154E-005	0.00000E+000	9	...........	1426.04
	90	0.41	-5.62963E-005	-2.30183E-004	0.00000E+000	-6.08154E-005	0.00000E+000	9	...........	1426.04
	91	0.42	-5.54870E-005	-2.28191E-004	0.00000E+000	-6.08154E-005	0.00000E+000	9	...........	1426.04
	92	0.43	-5.63464E-005	-2.24845E-004	0.00000E+000	-6.08154E-005	0.00000E+000	9	...........	1426.04
	93	0.44	-5.40936E-005	-2.23020E-004	0.00000E+000	-6.08154E-005	0.00000E+000	9	...........	1426.04
	94	0.45	-5.67385E-005	-2.19866E-004	0.00000E+000	-6.08154E-005	0.00000E+000	9	...........	1426.04
	95	0.46	-5.23248E-005	-2.18200E-004	0.00000E+000	-6.08154E-005	0.00000E+000	9	...........	1426.04
	96	0.47	-5.69722E-005	-2.15177E-004	0.00000E+000	-6.08154E-005	0.00000E+000	9	...........	1426.04
	97	0.48	-5.34011E-005	-2.13631E-004	0.00000E+000	-6.08154E-005	0.00000E+000	9	...........	1426.04
	98	0.49	-5.98590E-005	-2.10770E-004	0.00000E+000	-6.08154E-005	0.00000E+000	9	...........	1426.04
	99	0.5	-5.52534E-005	-2.09330E-004	0.00000E+000	-6.08154E-005	0.00000E+000	9	...........	1426.04
	100	0.51	-5.72141E-005	-2.06562E-004	0.00000E+000	-6.08154E-005	0.00000E+000	9	...........	1426.04
	101	0.52	-5.49113E-005	-2.05256E-004	0.00000E+000	-6.08154E-005	0.00000E+000	9	...........	1426.04
	102	0.53	-5.81820E-005	-2.02611E-004	0.00000E+000	-6.08154E-005	0.00000E+000	9	...........	1426.04
	103	0.54	-5.70973E-005	-2.01430E-004	0.00000E+000	-6.08154E-005	0.00000E+000	9	...........	1426.04
	104	0.55	-5.32759E-005	-1.98874E-004	0.00000E+000	-6.08154E-005	0.00000E+000	9	...........	1426.04
	105	0.56	-5.46944E-005	-1.97779E-004	0.00000E+000	-6.08154E-005	0.00000E+000	9	...........	1426.04
	106	0.57	-5.44774E-005	-1.95339E-004	0.00000E+000	-6.08154E-005	0.00000E+000	9	...........	1426.04
	107	0.58	-5.90831E-005	-1.94351E-004	0.00000E+000	-6.08154E-005	0.00000E+000	9	...........	1426.04
	108	0.59	-5.76480E-005	-1.92022E-004	0.00000E+000	-6.08154E-005	0.00000E+000	9	...........	1426.04
	109	0.6	-5.44524E-005	-1.91088E-004	0.00000E+000	-6.08154E-005	0.00000E+000	9	...........	1426.04
	110	0.61	-5.56372E-005	-1.88851E-004	0.00000E+000	-6.08154E-005	0.00000E+000	9	...........	1426.04
	111	0.71	-5.54286E-005	-1.75298E-004	0.00000E+000	-6.08154E-005	0.00000E+000	9	...........	1426.04
	112	0.81	-5.36347E-005	-1.64496E-004	0.00000E+000	-6.08154E-005	0.00000E+000	9	...........	1426.04
	113	0.91	-5.80735E-005	-1.55676E-004	0.00000E+000	-6.08154E-005	0.00000E+000	9	...........	1426.04
	114	1.01	-5.61879E-005	-1.48160E-004	0.00000E+000	-6.08154E-005	0.00000E+000	9	...........	1426.04
	115	1.11	-5.75896E-005	-1.41722E-004	0.00000E+000	-6.08154E-005	0.00000E+000	9	...........	1426.04
	116	1.21	-5.70973E-005	-1.36072E-004	0.00000E+000	-6.08154E-005	0.00000E+000	9	...........	1426.04
	117	1.31	-5.72809E-005	-1.31050E-004	0.00000E+000	-6.08154E-005	0.00000E+000	9	...........	1426.04
	118	1.41	-5.75145E-005	-1.26513E-004	0.00000E+000	-6.08154E-005	0.00000E+000	9	...........	1426.04
	119	1.51	-5.82738E-005	-1.22394E-004	0.00000E+000	-6.08154E-005	0.00000E+000	9	...........	1426.04
	120	1.61	-5.87577E-005	-1.18659E-004	0.00000E+000	-6.08154E-005	0.00000E+000	9	...........	1426.04
	121	2.61	-5.84573E-005	-9.33576E-005	0.00000E+000	-6.08154E-005	0.00000E+000	9	...........	1426.40
	122	3.61	-5.99675E-005	-7.93484E-005	0.00000E+000	-6.08154E-005	0.00000E+000	9	...........	1426.40
	123	4.61	-5.98424E-005	-7.06174E-005	0.00000E+000	-6.08154E-005	0.00000E+000	9	...........	1426.40
	124	5.61	-5.66301E-005	-6.43184E-005	0.00000E+000	-6.08154E-005	0.00000E+000	9	...........	1426.40
	125	6.61	-5.95253E-005	-5.91122E-005	0.00000E+000	-6.08154E-005	0.00000E+000	9	...........	1426.40
	126	7.61	-6.02762E-005	-5.50733E-005	0.00000E+000	-6.08154E-005	0.00000E+000	9	...........	1426.40
	127	8.61	-5.74144E-005	-5.11651E-005	0.00000E+000	-6.08154E-005	0.00000E+000	9	...........	1426.40
	128	9.61	-5.93000E-005	-4.76799E-005	0.00000E+000	-6.08154E-005	0.00000E+000	9	...........	1426.40
	129	10.61	-6.01678E-005	-4.48942E-005	0.00000E+000	-6.08154E-005	0.00000E+000	9	...........	1426.40
	130	11.61	-6.07601E-005	-4.28746E-005	0.00000E+000	-6.08154E-005	0.00000E+000	9	...........	1426.40
	131	21.61	-6.22703E-005	-2.75683E-005	0.00000E+000	-6.08154E-005	0.00000E+000	9	...........	1426.40
	132	31.61	-6.19199E-005	-2.20721E-005	0.00000E+000	-6.08154E-005	0.00000E+000	9	...........	1426.40
	133	41.61	-5.73810E-005	-1.98011E-005	0.00000E+000	-6.08154E-005	0.00000E+000	9	...........	1426.40
	134	51.61	-6.17614E-005	-1.71025E-005	0.00000E+000	-6.08154E-005	0.00000E+000	9	...........	1426.40
	135	60	-6.10939E-005	-1.43736E-005	0.00000E+000	-6.08154E-005	0.00000E+000	9	...........	1426.40
	136	60.01	3.26887E-002	5.59209E-004	0.00000E+000	9.99387E-002	0.00000E+000	9	.........v.	1426.40
	137	60.02	9.87624E-002	5.01941E-004	0.00000E+000	9.99387E-002	0.00000E+000	9	...........	1426.40
	138	60.03	9.97209E-002	4.62605E-004	0.00000E+000	9.99387E-002	0.00000E+000	9	...........	1426.40
	139	60.04	9.98865E-002	4.33554E-004	0.00000E+000	9.99387E-002	0.00000E+000	9	...........	1426.40
	140	60.05	9.99203E-002	4.03611E-004	0.00000E+000	9.99387E-002	0.00000E+000	9	...........	1426.40
	141	60.06	9.99265E-002	3.80553E-004	0.00000E+000	9.99387E-002	0.00000E+000	9	...........	1426.40
	142	60.07	9.99332E-002	3.55327E-004	0.00000E+000	9.99387E-002	0.00000E+000	9	...........	1426.40
	143	60.08	9.99389E-002	3.36319E-004	0.00000E+000	9.99387E-002	0.00000E+000	9	...........	1426.40
	144	60.09	9.99392E-002	3.14622E-004	0.00000E+000	9.99387E-002	0.00000E+000	9	...........	1426.40
	145	60.1	9.99399E-002	2.98705E-004	0.00000E+000	9.99387E-002	0.00000E+000	9	...........	1426.40
	146	60.11	9.99446E-002	2.79840E-004	0.00000E+000	9.99387E-002	0.00000E+000	9	...........	1426.40
	147	60.12	9.99424E-002	2.66478E-004	0.00000E+000	9.99387E-002	0.00000E+000	9	...........	1426.40
	148	60.13	9.99444E-002	2.49927E-004	0.00000E+000	9.99387E-002	0.00000E+000	9	...........	1426.40
	149	60.14	9.99437E-002	2.38698E-004	0.00000E+000	9.99387E-002	0.00000E+000	9	...........	1426.40
	150	60.15	9.99470E-002	2.24053E-004	0.00000E+000	9.99387E-002	0.00000E+000	9	...........	1426.40
	151	60.16	9.99475E-002	2.14616E-004	0.00000E+000	9.99387E-002	0.00000E+000	9	...........	1426.40
	152	60.17	9.99468E-002	2.01588E-004	0.00000E+000	9.99387E-002	0.00000E+000	9	...........	1426.40
	153	60.18	9.99455E-002	1.93659E-004	0.00000E+000	9.99387E-002	0.00000E+000	9	...........	1426.40
	154	60.19	9.99484E-002	1.82060E-004	0.00000E+000	9.99387E-002	0.00000E+000	9	...........	1426.40
	155	60.2	9.99469E-002	1.75376E-004	0.00000E+000	9.99387E-002	0.00000E+000	9	...........	1426.40
	156	60.21	9.99482E-002	1.64941E-004	0.00000E+000	9.99387E-002	0.00000E+000	9	...........	1426.40
	157	60.22	9.99452E-002	1.59360E-004	0.00000E+000	9.99387E-002	0.00000E+000	9	...........	1426.40
	158	60.23	9.99495E-002	1.49965E-004	0.00000E+000	9.99387E-002	0.00000E+000	9	...........	1426.40
	159	60.24	9.99457E-002	1.45333E-004	0.00000E+000	9.99387E-002	0.00000E+000	9	...........	1426.40
	160	60.25	9.99484E-002	1.36784E-004	0.00000E+000	9.99387E-002	0.00000E+000	9	...........	1426.40
	161	60.26	9.99475E-002	1.32963E-004	0.00000E+000	9.99387E-002	0.00000E+000	9	...........	1426.40
	162	60.27	9.99514E-002	1.25138E-004	0.00000E+000	9.99387E-002	0.00000E+000	9	...........	1426.40
	163	60.28	9.99507E-002	1.22011E-004	0.00000E+000	9.99387E-002	0.00000E+000	9	...........	1426.40
	164	60.29	9.99477E-002	1.14850E-004	0.00000E+000	9.99387E-002	0.00000E+000	9	...........	1426.40
	165	60.3	9.99459E-002	1.12331E-004	0.00000E+000	9.99387E-002	0.00000E+000	9	...........	1426.40
	166	60.31	9.99484E-002	1.05741E-004	0.00000E+000	9.99387E-002	0.00000E+000	9	...........	1426.40
	167	60.32	9.99456E-002	1.03729E-004	0.00000E+000	9.99387E-002	0.00000E+000	9	...........	1426.40
	168	60.33	9.99492E-002	9.76150E-005	0.00000E+000	9.99387E-002	0.00000E+000	9	...........	1426.40
	169	60.34	9.99489E-002	9.60696E-005	0.00000E+000	9.99387E-002	0.00000E+000	9	...........	1426.40
	170	60.35	9.99477E-002	9.03895E-005	0.00000E+000	9.99387E-002	0.00000E+000	9	...........	1426.40
	171	60.36	9.99456E-002	8.92392E-005	0.00000E+000	9.99387E-002	0.00000E+000	9	...........	1426.40
	172	60.37	9.99473E-002	8.39034E-005	0.00000E+000	9.99387E-002	0.00000E+000	9	...........	1426.40
	173	60.38	9.99456E-002	8.31181E-005	0.00000E+000	9.99387E-002	0.00000E+000	9	...........	1426.40
	174	60.39	9.99489E-002	7.81383E-005	0.00000E+000	9.99387E-002	0.00000E+000	9	...........	1426.40
	175	60.4	9.99519E-002	7.76653E-005	0.00000E+000	9.99387E-002	0.00000E+000	9	...........	1426.40
	176	60.41	9.99470E-002	7.29160E-005	0.00000E+000	9.99387E-002	0.00000E+000	9	...........	1426.40
	177	60.42	9.99459E-002	7.27194E-005	0.00000E+000	9.99387E-002	0.00000E+000	9	...........	1426.40
	178	60.43	9.99500E-002	6.82447E-005	0.00000E+000	9.99387E-002	0.00000E+000	9	...........	1426.40
	179	60.44	9.99465E-002	6.82450E-005	0.00000E+000	9.99387E-002	0.00000E+000	9	...........	1426.40
	180	60.45	9.99469E-002	6.40201E-005	0.00000E+000	9.99387E-002	0.00000E+000	9	...........	1426.40
	181	60.46	9.99457E-002	6.42631E-005	0.00000E+000	9.99387E-002	0.00000E+000	9	...........	1426.40
	182	60.47	9.99444E-002	6.01784E-005	0.00000E+000	9.99387E-002	0.00000E+000	9	...........	1426.40
	183	60.48	9.99475E-002	6.06227E-005	0.00000E+000	9.99387E-002	0.00000E+000	9	...........	1426.40
	184	60.49	9.99469E-002	5.67376E-005	0.00000E+000	9.99387E-002	0.00000E+000	9	...........	1426.40
	185	60.5	9.99461E-002	5.73029E-005	0.00000E+000	9.99387E-002	0.00000E+000	9	...........	1426.40
	186	60.51	9.99497E-002	5.35871E-005	0.00000E+000	9.99387E-002	0.00000E+000	9	...........	1426.40
	187	60.52	9.99446E-002	5.42853E-005	0.00000E+000	9.99387E-002	0.00000E+000	9	...........	1426.40
	188	60.53	9.99490E-002	5.07133E-005	0.00000E+000	9.99387E-002	0.00000E+000	9	...........	1426.40
	189	60.54	9.99420E-002	5.15356E-005	0.00000E+000	9.99387E-002	0.00000E+000	9	...........	1426.40
	190	60.55	9.99451E-002	4.80709E-005	0.00000E+000	9.99387E-002	0.00000E+000	9	...........	1426.40
	191	60.56	9.99458E-002	4.90391E-005	0.00000E+000	9.99387E-002	0.00000E+000	9	...........	1426.40
	192	60.57	9.99473E-002	4.56792E-005	0.00000E+000	9.99387E-002	0.00000E+000	9	...........	1426.40
	193	60.58	9.99485E-002	4.67654E-005	0.00000E+000	9.99387E-002	0.00000E+000	9	...........	1426.40
	194	60.59	9.99424E-002	4.34711E-005	0.00000E+000	9.99387E-002	0.00000E+000	9	...........	1426.40
	195	60.6	9.99445E-002	4.46418E-005	0.00000E+000	9.99387E-002	0.00000E+000	9	...........	1426.40
	196	60.61	9.99464E-002	4.14627E-005	0.00000E+000	9.99387E-002	0.00000E+000	9	...........	1426.40
	197	60.71	9.99454E-002	3.34483E-005	0.00000E+000	9.99387E-002	0.00000E+000	9	...........	1426.40
	198	60.81	9.99444E-002	2.78442E-005	0.00000E+000	9.99387E-002	0.00000E+000	9	...........	1426.40
	199	60.91	9.99453E-002	2.37652E-005	0.00000E+000	9.99387E-002	0.00000E+000	9	...........	1426.40
	200	61	9.99442E-002	2.31048E-005	0.00000E+000	9.99387E-002	0.00000E+000	9	...........	1426.40
