EXPLAIN
TAG	CHRONOA
TITLE	LABEL	Chronoamperometry Scan	Test Identifier
DATE	LABEL	27/1/2022	Date
TIME	LABEL	15:23:13	Time
NOTES	NOTES	1	Notes...
	
PSTAT	PSTAT	IFC1010-21051	Potentiostat
VPRESTEP	POTEN	-5.00000E-001	F	Pre-step Voltage (V)
TPRESTEP	QUANT	5.00000E-001	Pre-step Delay Time (s)
VSTEP1	POTEN	-6.00000E-001	F	Step 1 Voltage (V)
TSTEP1	QUANT	3.00000E+002	Step 1 Time (s)
VSTEP2	POTEN	-7.00000E-001	F	Step 2 Voltage (V)
TSTEP2	QUANT	1.00000E+000	Step 2 Time (s)
SAMPLETIME	QUANT	1.00000E-001	Sample Period (s)
DECIMATE	TOGGLE	T	Decimate
ILIMIT	QUANT	1.00000E+000	Limit I (mA/cm^2)
IMODE	SELECTOR	1	I/E Range Mode
IRANGE	QUANT	3.00000E-001	Max Current (mA)
EQDELAY	QUANT	5.00000E+000	Equil. Time (s)
SAMPLINGMODE	SELECTOR	1	Sampling Mode
AREA	QUANT	1.00000E+000	Sample Area (cm^2)
IRCOMP	SELECTOR	0	IRComp
PFCOR	QUANT	5.00000E+001	PF Corr. (ohm)
SEQUENCER	TOGGLE	TRUE	Run as Sequence
PSTATMODEL	IQUANT	64	Pstat Model
PSTATSECTION	LABEL	IFC1010-21051	Pstat Section
PSTATSERIALNO	LABEL	21051	Pstat Serial Number
CTRLMODE	IQUANT	1	Control Mode
ELECTROMETER	IQUANT	0	RE=0 or CS=1
IESTAB	IQUANT	0	I/E Stability
CASPEED	IQUANT	4	Control Amp Speed
CONVENTION	IQUANT	1	Current Convention
ICHRANGE	IQUANT	2	Ich Range
ICHRANGEMODE	TOGGLE	T	Ich Auto Range
ICHOFFSETENABLE	TOGGLE	F	Ich Offset Enable
ICHOFFSET	QUANT	0	Ich Offset (V)
ICHFILTER	IQUANT	3	Ich Filter
VCHRANGE	IQUANT	3	Vch Range
VCHRANGEMODE	TOGGLE	T	Vch Auto Range
VCHOFFSETENABLE	TOGGLE	F	Vch Offset Enable
VCHOFFSET	QUANT	0	Vch Offset (V)
VCHFILTER	IQUANT	3	Vch Filter
IERANGELOWERLIMIT	IQUANT	4	I/E Range Lower Limit
IERANGEMODE	TOGGLE	F	I/E AutoRange
IERANGE	IQUANT	9	I/E Range
ACHSELECT	IQUANT	0	Ach Select
ACHRANGE	IQUANT	2	Ach Range
ACHOFFSETENABLE	TOGGLE	F	Ach Offset Enable
ACHOFFSET	QUANT	0	Ach Offset (V)
ACHFILTER	IQUANT	1	Ach Filter
SENSECABLEID	IQUANT	14	Sense Cable ID
PWRCABLEID	IQUANT	14	Power Cable ID
DCCALDATE	LABEL	1/24/2022	DC Calibration Date
ACCALDATE	LABEL	4/2/2018	AC Calibration Date
FRAMEWORKVERSION	QUANT	7.06	Framework Version
INSTRUMENTVERSION	LABEL	4.30	Instrument Version
CURVE	TABLE	98
	Pt	T	Vf	Im	Vu	Sig	Ach	IERange	Over	Temp
	#	s	V vs. Ref.	A	V	V	V	#	bits	deg C
	0	-0.4	-5.01564E-001	-1.21542E-004	0.00000E+000	-5.00017E-001	0.00000E+000	9	...........	1426.13
	1	-0.3	-5.00971E-001	-1.21135E-004	0.00000E+000	-5.00017E-001	0.00000E+000	9	...........	1426.13
	2	-0.2	-5.00980E-001	-1.20830E-004	0.00000E+000	-5.00017E-001	0.00000E+000	9	...........	1426.13
	3	-0.1	-5.00978E-001	-1.20461E-004	0.00000E+000	-5.00017E-001	0.00000E+000	9	...........	1426.13
	4	0	-5.00982E-001	-1.20088E-004	0.00000E+000	-5.00017E-001	0.00000E+000	9	...........	1426.13
	5	0.1	-6.00993E-001	-6.12000E-004	0.00000E+000	-6.00016E-001	0.00000E+000	9	...........	1426.13
	6	0.2	-6.01002E-001	-5.17193E-004	0.00000E+000	-6.00016E-001	0.00000E+000	9	...........	1426.13
	7	0.3	-6.00997E-001	-4.55490E-004	0.00000E+000	-6.00016E-001	0.00000E+000	9	...........	1426.13
	8	0.4	-6.00995E-001	-4.11057E-004	0.00000E+000	-6.00016E-001	0.00000E+000	9	...........	1426.13
	9	0.5	-6.00996E-001	-3.77177E-004	0.00000E+000	-6.00016E-001	0.00000E+000	9	...........	1426.13
	10	0.6	-6.00975E-001	-3.50431E-004	0.00000E+000	-6.00016E-001	0.00000E+000	9	...........	1426.13
	11	0.7	-6.00986E-001	-3.28807E-004	0.00000E+000	-6.00016E-001	0.00000E+000	9	...........	1426.13
	12	0.8	-6.00986E-001	-3.10772E-004	0.00000E+000	-6.00016E-001	0.00000E+000	9	...........	1426.13
	13	0.9	-6.00995E-001	-2.95745E-004	0.00000E+000	-6.00016E-001	0.00000E+000	9	...........	1426.04
	14	1	-6.00991E-001	-2.82787E-004	0.00000E+000	-6.00016E-001	0.00000E+000	9	...........	1426.04
	15	1.1	-6.00980E-001	-2.71575E-004	0.00000E+000	-6.00016E-001	0.00000E+000	9	...........	1426.04
	16	1.2	-6.00997E-001	-2.61820E-004	0.00000E+000	-6.00016E-001	0.00000E+000	9	...........	1426.04
	17	1.3	-6.00992E-001	-2.53223E-004	0.00000E+000	-6.00016E-001	0.00000E+000	9	...........	1426.04
	18	1.4	-6.00977E-001	-2.45481E-004	0.00000E+000	-6.00016E-001	0.00000E+000	9	...........	1426.04
	19	1.5	-6.00991E-001	-2.38677E-004	0.00000E+000	-6.00016E-001	0.00000E+000	9	...........	1426.04
	20	1.6	-6.00990E-001	-2.32483E-004	0.00000E+000	-6.00016E-001	0.00000E+000	9	...........	1426.04
	21	1.7	-6.00985E-001	-2.26878E-004	0.00000E+000	-6.00016E-001	0.00000E+000	9	...........	1426.04
	22	1.8	-6.00995E-001	-2.21783E-004	0.00000E+000	-6.00016E-001	0.00000E+000	9	...........	1426.04
	23	1.9	-6.01001E-001	-2.17096E-004	0.00000E+000	-6.00016E-001	0.00000E+000	9	...........	1426.04
	24	2	-6.00998E-001	-2.12831E-004	0.00000E+000	-6.00016E-001	0.00000E+000	9	...........	1426.04
	25	2.1	-6.00996E-001	-2.08914E-004	0.00000E+000	-6.00016E-001	0.00000E+000	9	...........	1426.04
	26	2.2	-6.00988E-001	-2.05244E-004	0.00000E+000	-6.00016E-001	0.00000E+000	9	...........	1426.04
	27	2.3	-6.01000E-001	-2.01886E-004	0.00000E+000	-6.00016E-001	0.00000E+000	9	...........	1426.04
	28	2.4	-6.00994E-001	-1.98721E-004	0.00000E+000	-6.00016E-001	0.00000E+000	9	...........	1426.04
	29	2.5	-6.00991E-001	-1.95860E-004	0.00000E+000	-6.00016E-001	0.00000E+000	9	...........	1426.04
	30	2.6	-6.00977E-001	-1.93053E-004	0.00000E+000	-6.00016E-001	0.00000E+000	9	...........	1426.04
	31	2.7	-6.00992E-001	-1.90540E-004	0.00000E+000	-6.00016E-001	0.00000E+000	9	...........	1426.04
	32	2.8	-6.00991E-001	-1.88210E-004	0.00000E+000	-6.00016E-001	0.00000E+000	9	...........	1426.04
	33	2.9	-6.00988E-001	-1.85965E-004	0.00000E+000	-6.00016E-001	0.00000E+000	9	...........	1425.95
	34	3	-6.00975E-001	-1.83800E-004	0.00000E+000	-6.00016E-001	0.00000E+000	9	...........	1425.95
	35	3.1	-6.00992E-001	-1.81800E-004	0.00000E+000	-6.00016E-001	0.00000E+000	9	...........	1425.95
	36	3.2	-6.00995E-001	-1.79914E-004	0.00000E+000	-6.00016E-001	0.00000E+000	9	...........	1425.95
	37	3.3	-6.00991E-001	-1.78126E-004	0.00000E+000	-6.00016E-001	0.00000E+000	9	...........	1425.95
	38	3.4	-6.00996E-001	-1.76328E-004	0.00000E+000	-6.00016E-001	0.00000E+000	9	...........	1425.95
	39	3.5	-6.00998E-001	-1.74769E-004	0.00000E+000	-6.00016E-001	0.00000E+000	9	...........	1425.95
	40	3.6	-6.00991E-001	-1.73267E-004	0.00000E+000	-6.00016E-001	0.00000E+000	9	...........	1425.95
	41	3.7	-6.00985E-001	-1.71755E-004	0.00000E+000	-6.00016E-001	0.00000E+000	9	...........	1425.95
	42	3.8	-6.00981E-001	-1.70355E-004	0.00000E+000	-6.00016E-001	0.00000E+000	9	...........	1425.95
	43	3.9	-6.00985E-001	-1.69027E-004	0.00000E+000	-6.00016E-001	0.00000E+000	9	...........	1426.04
	44	4	-6.00987E-001	-1.67711E-004	0.00000E+000	-6.00016E-001	0.00000E+000	9	...........	1426.04
	45	4.1	-6.00991E-001	-1.66504E-004	0.00000E+000	-6.00016E-001	0.00000E+000	9	...........	1426.04
	46	4.2	-6.00991E-001	-1.65328E-004	0.00000E+000	-6.00016E-001	0.00000E+000	9	...........	1426.04
	47	4.3	-6.00988E-001	-1.64213E-004	0.00000E+000	-6.00016E-001	0.00000E+000	9	...........	1426.04
	48	4.4	-6.01004E-001	-1.63160E-004	0.00000E+000	-6.00016E-001	0.00000E+000	9	...........	1426.04
	49	4.5	-6.00994E-001	-1.62148E-004	0.00000E+000	-6.00016E-001	0.00000E+000	9	...........	1426.04
	50	4.6	-6.00996E-001	-1.61136E-004	0.00000E+000	-6.00016E-001	0.00000E+000	9	...........	1426.04
	51	4.7	-6.00994E-001	-1.60193E-004	0.00000E+000	-6.00016E-001	0.00000E+000	9	...........	1426.04
	52	4.8	-6.00998E-001	-1.59292E-004	0.00000E+000	-6.00016E-001	0.00000E+000	9	...........	1426.04
	53	4.9	-6.00982E-001	-1.58325E-004	0.00000E+000	-6.00016E-001	0.00000E+000	9	...........	1425.60
	54	5	-6.00992E-001	-1.57568E-004	0.00000E+000	-6.00016E-001	0.00000E+000	9	...........	1425.60
	55	5.1	-6.01003E-001	-1.56708E-004	0.00000E+000	-6.00016E-001	0.00000E+000	9	...........	1425.60
	56	5.2	-6.00985E-001	-1.55938E-004	0.00000E+000	-6.00016E-001	0.00000E+000	9	...........	1425.60
	57	5.3	-6.00982E-001	-1.55212E-004	0.00000E+000	-6.00016E-001	0.00000E+000	9	...........	1425.60
	58	5.4	-6.00986E-001	-1.54462E-004	0.00000E+000	-6.00016E-001	0.00000E+000	9	...........	1425.60
	59	5.5	-6.00978E-001	-1.53686E-004	0.00000E+000	-6.00016E-001	0.00000E+000	9	...........	1425.60
	60	5.6	-6.00998E-001	-1.53118E-004	0.00000E+000	-6.00016E-001	0.00000E+000	9	...........	1425.60
	61	5.7	-6.01002E-001	-1.52410E-004	0.00000E+000	-6.00016E-001	0.00000E+000	9	...........	1425.60
	62	5.8	-6.00998E-001	-1.51831E-004	0.00000E+000	-6.00016E-001	0.00000E+000	9	...........	1425.60
	63	5.9	-6.00986E-001	-1.51173E-004	0.00000E+000	-6.00016E-001	0.00000E+000	9	...........	1425.60
	64	6	-6.01005E-001	-1.50590E-004	0.00000E+000	-6.00016E-001	0.00000E+000	9	...........	1425.60
	65	6.1	-6.01002E-001	-1.50023E-004	0.00000E+000	-6.00016E-001	0.00000E+000	9	...........	1425.60
	66	7.1	-6.00998E-001	-1.45092E-004	0.00000E+000	-6.00016E-001	0.00000E+000	9	...........	1426.04
	67	8.1	-6.00993E-001	-1.41213E-004	0.00000E+000	-6.00016E-001	0.00000E+000	9	...........	1426.04
	68	9.1	-6.00989E-001	-1.37949E-004	0.00000E+000	-6.00016E-001	0.00000E+000	9	...........	1426.13
	69	10.1	-6.00979E-001	-1.35263E-004	0.00000E+000	-6.00016E-001	0.00000E+000	9	...........	1426.13
	70	11.1	-6.00997E-001	-1.33094E-004	0.00000E+000	-6.00016E-001	0.00000E+000	9	...........	1426.13
	71	12.1	-6.00994E-001	-1.31110E-004	0.00000E+000	-6.00016E-001	0.00000E+000	9	...........	1426.13
	72	13.1	-6.00985E-001	-1.29292E-004	0.00000E+000	-6.00016E-001	0.00000E+000	9	...........	1426.13
	73	14.1	-6.00991E-001	-1.27647E-004	0.00000E+000	-6.00016E-001	0.00000E+000	9	...........	1426.04
	74	15.1	-6.00999E-001	-1.26461E-004	0.00000E+000	-6.00016E-001	0.00000E+000	9	...........	1426.13
	75	16.1	-6.00999E-001	-1.25388E-004	0.00000E+000	-6.00016E-001	0.00000E+000	9	...........	1426.04
	76	26.1	-6.00995E-001	-1.18066E-004	0.00000E+000	-6.00016E-001	0.00000E+000	9	...........	1426.13
	77	36.1	-6.00994E-001	-1.14643E-004	0.00000E+000	-6.00016E-001	0.00000E+000	9	...........	1426.13
	78	46.1	-6.01003E-001	-1.12244E-004	0.00000E+000	-6.00016E-001	0.00000E+000	9	...........	1426.13
	79	56.1	-6.00996E-001	-1.10152E-004	0.00000E+000	-6.00016E-001	0.00000E+000	9	...........	1426.13
	80	66.1	-6.00978E-001	-1.08713E-004	0.00000E+000	-6.00016E-001	0.00000E+000	9	...........	1426.13
	81	76.1	-6.00988E-001	-1.07593E-004	0.00000E+000	-6.00016E-001	0.00000E+000	9	...........	1426.13
	82	86.1	-6.00985E-001	-1.06719E-004	0.00000E+000	-6.00016E-001	0.00000E+000	9	...........	1426.13
	83	96.1	-6.00984E-001	-1.06379E-004	0.00000E+000	-6.00016E-001	0.00000E+000	9	...........	1426.13
	84	106.1	-6.00991E-001	-1.05730E-004	0.00000E+000	-6.00016E-001	0.00000E+000	9	...........	1426.13
	85	116.1	-6.00994E-001	-1.04788E-004	0.00000E+000	-6.00016E-001	0.00000E+000	9	...........	1426.13
	86	216.1	-6.00988E-001	-1.01712E-004	0.00000E+000	-6.00016E-001	0.00000E+000	9	...........	1426.13
	87	300	-6.00993E-001	-1.01380E-004	0.00000E+000	-6.00016E-001	0.00000E+000	9	...........	1426.13
	88	300.1	-7.00990E-001	-5.81887E-004	0.00000E+000	-7.00016E-001	0.00000E+000	9	...........	1426.13
	89	300.2	-7.01000E-001	-4.82532E-004	0.00000E+000	-7.00016E-001	0.00000E+000	9	...........	1426.13
	90	300.3	-7.01004E-001	-4.21463E-004	0.00000E+000	-7.00016E-001	0.00000E+000	9	...........	1426.13
	91	300.4	-7.00997E-001	-3.78722E-004	0.00000E+000	-7.00016E-001	0.00000E+000	9	...........	1426.13
	92	300.5	-7.01007E-001	-3.46672E-004	0.00000E+000	-7.00016E-001	0.00000E+000	9	...........	1426.13
	93	300.6	-7.00986E-001	-3.21478E-004	0.00000E+000	-7.00016E-001	0.00000E+000	9	...........	1426.13
	94	300.7	-7.00988E-001	-3.01273E-004	0.00000E+000	-7.00016E-001	0.00000E+000	9	...........	1426.13
	95	300.8	-7.00992E-001	-2.84460E-004	0.00000E+000	-7.00016E-001	0.00000E+000	9	...........	1426.13
	96	300.9	-7.00981E-001	-2.70297E-004	0.00000E+000	-7.00016E-001	0.00000E+000	9	...........	1426.13
	97	301	-7.00976E-001	-2.58186E-004	0.00000E+000	-7.00016E-001	0.00000E+000	9	...........	1426.13
