EXPLAIN
TAG	CHRONOA
TITLE	LABEL	Chronoamperometry Scan	Test Identifier
DATE	LABEL	27/1/2022	Date
TIME	LABEL	15:28:20	Time
NOTES	NOTES	1	Notes...
	
PSTAT	PSTAT	IFC1010-21051	Potentiostat
VPRESTEP	POTEN	-7.00000E-001	F	Pre-step Voltage (V)
TPRESTEP	QUANT	5.00000E-001	Pre-step Delay Time (s)
VSTEP1	POTEN	-8.00000E-001	F	Step 1 Voltage (V)
TSTEP1	QUANT	3.00000E+002	Step 1 Time (s)
VSTEP2	POTEN	-7.00000E-001	F	Step 2 Voltage (V)
TSTEP2	QUANT	1.00000E+000	Step 2 Time (s)
SAMPLETIME	QUANT	1.00000E-001	Sample Period (s)
DECIMATE	TOGGLE	T	Decimate
ILIMIT	QUANT	1.00000E+000	Limit I (mA/cm^2)
IMODE	SELECTOR	1	I/E Range Mode
IRANGE	QUANT	3.00000E-001	Max Current (mA)
EQDELAY	QUANT	5.00000E+000	Equil. Time (s)
SAMPLINGMODE	SELECTOR	1	Sampling Mode
AREA	QUANT	1.00000E+000	Sample Area (cm^2)
IRCOMP	SELECTOR	0	IRComp
PFCOR	QUANT	5.00000E+001	PF Corr. (ohm)
SEQUENCER	TOGGLE	TRUE	Run as Sequence
PSTATMODEL	IQUANT	64	Pstat Model
PSTATSECTION	LABEL	IFC1010-21051	Pstat Section
PSTATSERIALNO	LABEL	21051	Pstat Serial Number
CTRLMODE	IQUANT	1	Control Mode
ELECTROMETER	IQUANT	0	RE=0 or CS=1
IESTAB	IQUANT	0	I/E Stability
CASPEED	IQUANT	4	Control Amp Speed
CONVENTION	IQUANT	1	Current Convention
ICHRANGE	IQUANT	2	Ich Range
ICHRANGEMODE	TOGGLE	T	Ich Auto Range
ICHOFFSETENABLE	TOGGLE	F	Ich Offset Enable
ICHOFFSET	QUANT	0	Ich Offset (V)
ICHFILTER	IQUANT	3	Ich Filter
VCHRANGE	IQUANT	3	Vch Range
VCHRANGEMODE	TOGGLE	T	Vch Auto Range
VCHOFFSETENABLE	TOGGLE	F	Vch Offset Enable
VCHOFFSET	QUANT	0	Vch Offset (V)
VCHFILTER	IQUANT	3	Vch Filter
IERANGELOWERLIMIT	IQUANT	4	I/E Range Lower Limit
IERANGEMODE	TOGGLE	F	I/E AutoRange
IERANGE	IQUANT	9	I/E Range
ACHSELECT	IQUANT	0	Ach Select
ACHRANGE	IQUANT	2	Ach Range
ACHOFFSETENABLE	TOGGLE	F	Ach Offset Enable
ACHOFFSET	QUANT	0	Ach Offset (V)
ACHFILTER	IQUANT	1	Ach Filter
SENSECABLEID	IQUANT	14	Sense Cable ID
PWRCABLEID	IQUANT	14	Power Cable ID
DCCALDATE	LABEL	1/24/2022	DC Calibration Date
ACCALDATE	LABEL	4/2/2018	AC Calibration Date
FRAMEWORKVERSION	QUANT	7.06	Framework Version
INSTRUMENTVERSION	LABEL	4.30	Instrument Version
CURVE	TABLE	98
	Pt	T	Vf	Im	Vu	Sig	Ach	IERange	Over	Temp
	#	s	V vs. Ref.	A	V	V	V	#	bits	deg C
	0	-0.4	-7.01707E-001	-1.43056E-004	0.00000E+000	-7.00083E-001	0.00000E+000	9	...........	1426.13
	1	-0.3	-7.01236E-001	-1.42745E-004	0.00000E+000	-7.00083E-001	0.00000E+000	9	...........	1426.13
	2	-0.2	-7.01231E-001	-1.42404E-004	0.00000E+000	-7.00083E-001	0.00000E+000	9	...........	1426.13
	3	-0.1	-7.01244E-001	-1.42005E-004	0.00000E+000	-7.00083E-001	0.00000E+000	9	...........	1426.13
	4	0	-7.01245E-001	-1.41752E-004	0.00000E+000	-7.00083E-001	0.00000E+000	9	...........	1426.13
	5	0.1	-8.01261E-001	-6.71926E-004	0.00000E+000	-8.00083E-001	0.00000E+000	9	...........	1426.13
	6	0.2	-8.01265E-001	-5.83303E-004	0.00000E+000	-8.00083E-001	0.00000E+000	9	...........	1426.13
	7	0.3	-8.01256E-001	-5.31272E-004	0.00000E+000	-8.00083E-001	0.00000E+000	9	...........	1426.13
	8	0.4	-8.01262E-001	-4.94020E-004	0.00000E+000	-8.00083E-001	0.00000E+000	9	...........	1426.13
	9	0.5	-8.01259E-001	-4.64516E-004	0.00000E+000	-8.00083E-001	0.00000E+000	9	...........	1426.13
	10	0.6	-8.01273E-001	-4.40099E-004	0.00000E+000	-8.00083E-001	0.00000E+000	9	...........	1426.13
	11	0.7	-8.01261E-001	-4.19346E-004	0.00000E+000	-8.00083E-001	0.00000E+000	9	...........	1426.13
	12	0.8	-8.01250E-001	-4.01023E-004	0.00000E+000	-8.00083E-001	0.00000E+000	9	...........	1426.13
	13	0.9	-8.01269E-001	-3.85125E-004	0.00000E+000	-8.00083E-001	0.00000E+000	9	...........	1426.13
	14	1	-8.01249E-001	-3.70593E-004	0.00000E+000	-8.00083E-001	0.00000E+000	9	...........	1426.13
	15	1.1	-8.01272E-001	-3.57527E-004	0.00000E+000	-8.00083E-001	0.00000E+000	9	...........	1426.13
	16	1.2	-8.01265E-001	-3.45824E-004	0.00000E+000	-8.00083E-001	0.00000E+000	9	...........	1426.12
	17	1.3	-8.01272E-001	-3.35026E-004	0.00000E+000	-8.00083E-001	0.00000E+000	9	...........	1426.04
	18	1.4	-8.01265E-001	-3.24994E-004	0.00000E+000	-8.00083E-001	0.00000E+000	9	...........	1426.04
	19	1.5	-8.01268E-001	-3.15796E-004	0.00000E+000	-8.00083E-001	0.00000E+000	9	...........	1426.04
	20	1.6	-8.01260E-001	-3.07151E-004	0.00000E+000	-8.00083E-001	0.00000E+000	9	...........	1426.04
	21	1.7	-8.01266E-001	-2.99248E-004	0.00000E+000	-8.00083E-001	0.00000E+000	9	...........	1426.04
	22	1.8	-8.01272E-001	-2.91779E-004	0.00000E+000	-8.00083E-001	0.00000E+000	9	...........	1426.04
	23	1.9	-8.01263E-001	-2.84823E-004	0.00000E+000	-8.00083E-001	0.00000E+000	9	...........	1426.04
	24	2	-8.01269E-001	-2.78338E-004	0.00000E+000	-8.00083E-001	0.00000E+000	9	...........	1426.04
	25	2.1	-8.01261E-001	-2.72238E-004	0.00000E+000	-8.00083E-001	0.00000E+000	9	...........	1426.04
	26	2.2	-8.01269E-001	-2.66447E-004	0.00000E+000	-8.00083E-001	0.00000E+000	9	...........	1426.00
	27	2.3	-8.01263E-001	-2.61105E-004	0.00000E+000	-8.00083E-001	0.00000E+000	9	...........	1425.78
	28	2.4	-8.01263E-001	-2.56005E-004	0.00000E+000	-8.00083E-001	0.00000E+000	9	...........	1425.78
	29	2.5	-8.01268E-001	-2.51261E-004	0.00000E+000	-8.00083E-001	0.00000E+000	9	...........	1425.78
	30	2.6	-8.01261E-001	-2.46565E-004	0.00000E+000	-8.00083E-001	0.00000E+000	9	...........	1425.78
	31	2.7	-8.01264E-001	-2.42529E-004	0.00000E+000	-8.00083E-001	0.00000E+000	9	...........	1425.78
	32	2.8	-8.01267E-001	-2.38463E-004	0.00000E+000	-8.00083E-001	0.00000E+000	9	...........	1425.78
	33	2.9	-8.01273E-001	-2.34713E-004	0.00000E+000	-8.00083E-001	0.00000E+000	9	...........	1425.78
	34	3	-8.01262E-001	-2.31103E-004	0.00000E+000	-8.00083E-001	0.00000E+000	9	...........	1425.78
	35	3.1	-8.01262E-001	-2.27683E-004	0.00000E+000	-8.00083E-001	0.00000E+000	9	...........	1425.78
	36	3.2	-8.01270E-001	-2.24501E-004	0.00000E+000	-8.00083E-001	0.00000E+000	9	...........	1425.80
	37	3.3	-8.01268E-001	-2.21634E-004	0.00000E+000	-8.00083E-001	0.00000E+000	9	...........	1425.95
	38	3.4	-8.01268E-001	-2.18816E-004	0.00000E+000	-8.00083E-001	0.00000E+000	9	...........	1425.95
	39	3.5	-8.01273E-001	-2.16150E-004	0.00000E+000	-8.00083E-001	0.00000E+000	9	...........	1425.95
	40	3.6	-8.01263E-001	-2.13622E-004	0.00000E+000	-8.00083E-001	0.00000E+000	9	...........	1425.95
	41	3.7	-8.01263E-001	-2.11174E-004	0.00000E+000	-8.00083E-001	0.00000E+000	9	...........	1425.95
	42	3.8	-8.01260E-001	-2.08916E-004	0.00000E+000	-8.00083E-001	0.00000E+000	9	...........	1425.95
	43	3.9	-8.01279E-001	-2.06783E-004	0.00000E+000	-8.00083E-001	0.00000E+000	9	...........	1425.95
	44	4	-8.01267E-001	-2.04683E-004	0.00000E+000	-8.00083E-001	0.00000E+000	9	...........	1425.95
	45	4.1	-8.01267E-001	-2.02886E-004	0.00000E+000	-8.00083E-001	0.00000E+000	9	...........	1425.95
	46	4.2	-8.01267E-001	-2.01060E-004	0.00000E+000	-8.00083E-001	0.00000E+000	9	...........	1425.92
	47	4.3	-8.01259E-001	-1.99402E-004	0.00000E+000	-8.00083E-001	0.00000E+000	9	...........	1425.69
	48	4.4	-8.01271E-001	-1.97770E-004	0.00000E+000	-8.00083E-001	0.00000E+000	9	...........	1425.69
	49	4.5	-8.01266E-001	-1.96291E-004	0.00000E+000	-8.00083E-001	0.00000E+000	9	...........	1425.69
	50	4.6	-8.01263E-001	-1.94744E-004	0.00000E+000	-8.00083E-001	0.00000E+000	9	...........	1425.69
	51	4.7	-8.01266E-001	-1.93400E-004	0.00000E+000	-8.00083E-001	0.00000E+000	9	...........	1425.69
	52	4.8	-8.01269E-001	-1.92039E-004	0.00000E+000	-8.00083E-001	0.00000E+000	9	...........	1425.69
	53	4.9	-8.01255E-001	-1.90835E-004	0.00000E+000	-8.00083E-001	0.00000E+000	9	...........	1425.69
	54	5	-8.01263E-001	-1.89687E-004	0.00000E+000	-8.00083E-001	0.00000E+000	9	...........	1425.69
	55	5.1	-8.01259E-001	-1.88510E-004	0.00000E+000	-8.00083E-001	0.00000E+000	9	...........	1425.69
	56	5.2	-8.01261E-001	-1.87431E-004	0.00000E+000	-8.00083E-001	0.00000E+000	9	...........	1425.70
	57	5.3	-8.01268E-001	-1.86412E-004	0.00000E+000	-8.00083E-001	0.00000E+000	9	...........	1425.78
	58	5.4	-8.01270E-001	-1.85430E-004	0.00000E+000	-8.00083E-001	0.00000E+000	9	...........	1425.78
	59	5.5	-8.01264E-001	-1.84525E-004	0.00000E+000	-8.00083E-001	0.00000E+000	9	...........	1425.78
	60	5.6	-8.01258E-001	-1.83513E-004	0.00000E+000	-8.00083E-001	0.00000E+000	9	...........	1425.78
	61	5.7	-8.01267E-001	-1.82640E-004	0.00000E+000	-8.00083E-001	0.00000E+000	9	...........	1425.78
	62	5.8	-8.01263E-001	-1.81809E-004	0.00000E+000	-8.00083E-001	0.00000E+000	9	...........	1425.78
	63	5.9	-8.01264E-001	-1.81119E-004	0.00000E+000	-8.00083E-001	0.00000E+000	9	...........	1425.78
	64	6	-8.01254E-001	-1.80335E-004	0.00000E+000	-8.00083E-001	0.00000E+000	9	...........	1425.78
	65	6.1	-8.01261E-001	-1.79617E-004	0.00000E+000	-8.00083E-001	0.00000E+000	9	...........	1425.78
	66	7.1	-8.01266E-001	-1.73965E-004	0.00000E+000	-8.00083E-001	0.00000E+000	9	...........	1425.69
	67	8.1	-8.01264E-001	-1.70244E-004	0.00000E+000	-8.00083E-001	0.00000E+000	9	...........	1426.04
	68	9.1	-8.01267E-001	-1.67675E-004	0.00000E+000	-8.00083E-001	0.00000E+000	9	...........	1426.04
	69	10.1	-8.01275E-001	-1.65484E-004	0.00000E+000	-8.00083E-001	0.00000E+000	9	...........	1426.13
	70	11.1	-8.01270E-001	-1.63763E-004	0.00000E+000	-8.00083E-001	0.00000E+000	9	...........	1426.13
	71	12.1	-8.01265E-001	-1.62627E-004	0.00000E+000	-8.00083E-001	0.00000E+000	9	...........	1426.04
	72	13.1	-8.01260E-001	-1.61319E-004	0.00000E+000	-8.00083E-001	0.00000E+000	9	...........	1426.04
	73	14.1	-8.01270E-001	-1.60225E-004	0.00000E+000	-8.00083E-001	0.00000E+000	9	...........	1426.04
	74	15.1	-8.01277E-001	-1.59648E-004	0.00000E+000	-8.00083E-001	0.00000E+000	9	...........	1426.13
	75	16.1	-8.01269E-001	-1.59035E-004	0.00000E+000	-8.00083E-001	0.00000E+000	9	...........	1426.13
	76	26.1	-8.01274E-001	-1.55869E-004	0.00000E+000	-8.00083E-001	0.00000E+000	9	...........	1426.13
	77	36.1	-8.01264E-001	-1.54387E-004	0.00000E+000	-8.00083E-001	0.00000E+000	9	...........	1426.13
	78	46.1	-8.01263E-001	-1.53579E-004	0.00000E+000	-8.00083E-001	0.00000E+000	9	...........	1426.04
	79	56.1	-8.01272E-001	-1.53149E-004	0.00000E+000	-8.00083E-001	0.00000E+000	9	...........	1426.13
	80	66.1	-8.01265E-001	-1.53022E-004	0.00000E+000	-8.00083E-001	0.00000E+000	9	...........	1426.22
	81	76.1	-8.01267E-001	-1.52487E-004	0.00000E+000	-8.00083E-001	0.00000E+000	9	...........	1426.13
	82	86.1	-8.01263E-001	-1.51840E-004	0.00000E+000	-8.00083E-001	0.00000E+000	9	...........	1426.04
	83	96.1	-8.01276E-001	-1.51647E-004	0.00000E+000	-8.00083E-001	0.00000E+000	9	...........	1426.04
	84	106.1	-8.01264E-001	-1.51615E-004	0.00000E+000	-8.00083E-001	0.00000E+000	9	...........	1426.13
	85	116.1	-8.01261E-001	-1.51394E-004	0.00000E+000	-8.00083E-001	0.00000E+000	9	...........	1426.13
	86	216.1	-8.01271E-001	-1.51632E-004	0.00000E+000	-8.00083E-001	0.00000E+000	9	...........	1426.13
	87	300	-8.01252E-001	-1.52160E-004	0.00000E+000	-8.00083E-001	0.00000E+000	9	...........	1426.13
	88	300.1	-7.01257E-001	3.10186E-004	0.00000E+000	-7.00083E-001	0.00000E+000	9	...........	1426.13
	89	300.2	-7.01247E-001	2.02439E-004	0.00000E+000	-7.00083E-001	0.00000E+000	9	...........	1426.13
	90	300.3	-7.01255E-001	1.36003E-004	0.00000E+000	-7.00083E-001	0.00000E+000	9	...........	1426.13
	91	300.4	-7.01241E-001	8.95283E-005	0.00000E+000	-7.00083E-001	0.00000E+000	9	...........	1426.13
	92	300.5	-7.01246E-001	5.49781E-005	0.00000E+000	-7.00083E-001	0.00000E+000	9	...........	1426.13
	93	300.6	-7.01244E-001	2.82990E-005	0.00000E+000	-7.00083E-001	0.00000E+000	9	...........	1426.13
	94	300.7	-7.01248E-001	7.06023E-006	0.00000E+000	-7.00083E-001	0.00000E+000	9	...........	1426.13
	95	300.8	-7.01241E-001	-1.00119E-005	0.00000E+000	-7.00083E-001	0.00000E+000	9	...........	1426.13
	96	300.9	-7.01240E-001	-2.40044E-005	0.00000E+000	-7.00083E-001	0.00000E+000	9	...........	1426.13
	97	301	-7.01249E-001	-3.56852E-005	0.00000E+000	-7.00083E-001	0.00000E+000	9	...........	1426.13
