EXPLAIN
TAG	CHRONOA
TITLE	LABEL	Chronoamperometry Scan	Test Identifier
DATE	LABEL	27/1/2022	Date
TIME	LABEL	18:00:53	Time
NOTES	NOTES	1	Notes...
	
PSTAT	PSTAT	IFC1010-21051	Potentiostat
VPRESTEP	POTEN	0.00000E+000	F	Pre-step Voltage (V)
TPRESTEP	QUANT	5.00000E-001	Pre-step Delay Time (s)
VSTEP1	POTEN	-2.00000E-001	F	Step 1 Voltage (V)
TSTEP1	QUANT	3.00000E+002	Step 1 Time (s)
VSTEP2	POTEN	-3.00000E-001	F	Step 2 Voltage (V)
TSTEP2	QUANT	1.00000E+000	Step 2 Time (s)
SAMPLETIME	QUANT	1.00000E-001	Sample Period (s)
DECIMATE	TOGGLE	T	Decimate
ILIMIT	QUANT	1.00000E+000	Limit I (mA/cm^2)
IMODE	SELECTOR	1	I/E Range Mode
IRANGE	QUANT	3.00000E-001	Max Current (mA)
EQDELAY	QUANT	5.00000E+000	Equil. Time (s)
SAMPLINGMODE	SELECTOR	1	Sampling Mode
AREA	QUANT	1.00000E+000	Sample Area (cm^2)
IRCOMP	SELECTOR	0	IRComp
PFCOR	QUANT	5.00000E+001	PF Corr. (ohm)
SEQUENCER	TOGGLE	TRUE	Run as Sequence
PSTATMODEL	IQUANT	64	Pstat Model
PSTATSECTION	LABEL	IFC1010-21051	Pstat Section
PSTATSERIALNO	LABEL	21051	Pstat Serial Number
CTRLMODE	IQUANT	1	Control Mode
ELECTROMETER	IQUANT	0	RE=0 or CS=1
IESTAB	IQUANT	0	I/E Stability
CASPEED	IQUANT	4	Control Amp Speed
CONVENTION	IQUANT	1	Current Convention
ICHRANGE	IQUANT	2	Ich Range
ICHRANGEMODE	TOGGLE	T	Ich Auto Range
ICHOFFSETENABLE	TOGGLE	F	Ich Offset Enable
ICHOFFSET	QUANT	0	Ich Offset (V)
ICHFILTER	IQUANT	3	Ich Filter
VCHRANGE	IQUANT	3	Vch Range
VCHRANGEMODE	TOGGLE	T	Vch Auto Range
VCHOFFSETENABLE	TOGGLE	F	Vch Offset Enable
VCHOFFSET	QUANT	0	Vch Offset (V)
VCHFILTER	IQUANT	3	Vch Filter
IERANGELOWERLIMIT	IQUANT	4	I/E Range Lower Limit
IERANGEMODE	TOGGLE	F	I/E AutoRange
IERANGE	IQUANT	9	I/E Range
ACHSELECT	IQUANT	0	Ach Select
ACHRANGE	IQUANT	2	Ach Range
ACHOFFSETENABLE	TOGGLE	F	Ach Offset Enable
ACHOFFSET	QUANT	0	Ach Offset (V)
ACHFILTER	IQUANT	1	Ach Filter
SENSECABLEID	IQUANT	14	Sense Cable ID
PWRCABLEID	IQUANT	14	Power Cable ID
DCCALDATE	LABEL	1/24/2022	DC Calibration Date
ACCALDATE	LABEL	4/2/2018	AC Calibration Date
FRAMEWORKVERSION	QUANT	7.06	Framework Version
INSTRUMENTVERSION	LABEL	4.30	Instrument Version
CURVE	TABLE	98
	Pt	T	Vf	Im	Vu	Sig	Ach	IERange	Over	Temp
	#	s	V vs. Ref.	A	V	V	V	#	bits	deg C
	0	-0.4	-1.06751E-003	-1.30873E-005	0.00000E+000	-6.72489E-005	0.00000E+000	9	...........	1426.13
	1	-0.3	-3.86003E-004	-1.30455E-005	0.00000E+000	-6.72489E-005	0.00000E+000	9	...........	1426.13
	2	-0.2	-2.26157E-004	-1.30051E-005	0.00000E+000	-6.72489E-005	0.00000E+000	9	...........	1426.13
	3	-0.1	-2.10923E-004	-1.29665E-005	0.00000E+000	-6.72489E-005	0.00000E+000	9	...........	1426.13
	4	0	-2.11012E-004	-1.29151E-005	0.00000E+000	-6.72489E-005	0.00000E+000	9	...........	1426.13
	5	0.1	-3.29270E-002	-6.56954E-004	0.00000E+000	-2.00066E-001	0.00000E+000	9	.........v.	1426.13
	6	0.2	-2.00251E-001	-4.59263E-004	0.00000E+000	-2.00066E-001	0.00000E+000	9	...........	1426.13
	7	0.3	-2.00250E-001	-3.78270E-004	0.00000E+000	-2.00066E-001	0.00000E+000	9	...........	1426.13
	8	0.4	-2.00251E-001	-3.30177E-004	0.00000E+000	-2.00066E-001	0.00000E+000	9	...........	1426.13
	9	0.5	-2.00251E-001	-2.96368E-004	0.00000E+000	-2.00066E-001	0.00000E+000	9	...........	1426.13
	10	0.6	-2.00253E-001	-2.70770E-004	0.00000E+000	-2.00066E-001	0.00000E+000	9	...........	1426.13
	11	0.7	-2.00252E-001	-2.50430E-004	0.00000E+000	-2.00066E-001	0.00000E+000	9	...........	1426.13
	12	0.8	-2.00252E-001	-2.33801E-004	0.00000E+000	-2.00066E-001	0.00000E+000	9	...........	1426.13
	13	0.9	-2.00253E-001	-2.19900E-004	0.00000E+000	-2.00066E-001	0.00000E+000	9	...........	1426.13
	14	1	-2.00251E-001	-2.08079E-004	0.00000E+000	-2.00066E-001	0.00000E+000	9	...........	1426.13
	15	1.1	-2.00252E-001	-1.97889E-004	0.00000E+000	-2.00066E-001	0.00000E+000	9	...........	1426.13
	16	1.2	-2.00252E-001	-1.88998E-004	0.00000E+000	-2.00066E-001	0.00000E+000	9	...........	1426.13
	17	1.3	-2.00252E-001	-1.81147E-004	0.00000E+000	-2.00066E-001	0.00000E+000	9	...........	1426.13
	18	1.4	-2.00252E-001	-1.74183E-004	0.00000E+000	-2.00066E-001	0.00000E+000	9	...........	1426.13
	19	1.5	-2.00255E-001	-1.67902E-004	0.00000E+000	-2.00066E-001	0.00000E+000	9	...........	1426.22
	20	1.6	-2.00254E-001	-1.62262E-004	0.00000E+000	-2.00066E-001	0.00000E+000	9	...........	1426.22
	21	1.7	-2.00250E-001	-1.57119E-004	0.00000E+000	-2.00066E-001	0.00000E+000	9	...........	1426.22
	22	1.8	-2.00252E-001	-1.52486E-004	0.00000E+000	-2.00066E-001	0.00000E+000	9	...........	1426.22
	23	1.9	-2.00255E-001	-1.48232E-004	0.00000E+000	-2.00066E-001	0.00000E+000	9	...........	1426.22
	24	2	-2.00253E-001	-1.44287E-004	0.00000E+000	-2.00066E-001	0.00000E+000	9	...........	1426.22
	25	2.1	-2.00256E-001	-1.40666E-004	0.00000E+000	-2.00066E-001	0.00000E+000	9	...........	1426.22
	26	2.2	-2.00252E-001	-1.37242E-004	0.00000E+000	-2.00066E-001	0.00000E+000	9	...........	1426.22
	27	2.3	-2.00252E-001	-1.34124E-004	0.00000E+000	-2.00066E-001	0.00000E+000	9	...........	1426.22
	28	2.4	-2.00252E-001	-1.31181E-004	0.00000E+000	-2.00066E-001	0.00000E+000	9	...........	1426.22
	29	2.5	-2.00251E-001	-1.28428E-004	0.00000E+000	-2.00066E-001	0.00000E+000	9	...........	1426.22
	30	2.6	-2.00251E-001	-1.25826E-004	0.00000E+000	-2.00066E-001	0.00000E+000	9	...........	1426.22
	31	2.7	-2.00252E-001	-1.23398E-004	0.00000E+000	-2.00066E-001	0.00000E+000	9	...........	1426.22
	32	2.8	-2.00253E-001	-1.21139E-004	0.00000E+000	-2.00066E-001	0.00000E+000	9	...........	1426.22
	33	2.9	-2.00253E-001	-1.18993E-004	0.00000E+000	-2.00066E-001	0.00000E+000	9	...........	1426.22
	34	3	-2.00253E-001	-1.16948E-004	0.00000E+000	-2.00066E-001	0.00000E+000	9	...........	1426.22
	35	3.1	-2.00254E-001	-1.15047E-004	0.00000E+000	-2.00066E-001	0.00000E+000	9	...........	1426.22
	36	3.2	-2.00257E-001	-1.13227E-004	0.00000E+000	-2.00066E-001	0.00000E+000	9	...........	1426.22
	37	3.3	-2.00254E-001	-1.11483E-004	0.00000E+000	-2.00066E-001	0.00000E+000	9	...........	1426.22
	38	3.4	-2.00253E-001	-1.09839E-004	0.00000E+000	-2.00066E-001	0.00000E+000	9	...........	1426.22
	39	3.5	-2.00254E-001	-1.08262E-004	0.00000E+000	-2.00066E-001	0.00000E+000	9	...........	1426.22
	40	3.6	-2.00253E-001	-1.06793E-004	0.00000E+000	-2.00066E-001	0.00000E+000	9	...........	1426.22
	41	3.7	-2.00255E-001	-1.05383E-004	0.00000E+000	-2.00066E-001	0.00000E+000	9	...........	1426.22
	42	3.8	-2.00254E-001	-1.04005E-004	0.00000E+000	-2.00066E-001	0.00000E+000	9	...........	1426.22
	43	3.9	-2.00254E-001	-1.02737E-004	0.00000E+000	-2.00066E-001	0.00000E+000	9	...........	1426.22
	44	4	-2.00253E-001	-1.01522E-004	0.00000E+000	-2.00066E-001	0.00000E+000	9	...........	1426.22
	45	4.1	-2.00255E-001	-1.00366E-004	0.00000E+000	-2.00066E-001	0.00000E+000	9	...........	1426.22
	46	4.2	-2.00254E-001	-9.92306E-005	0.00000E+000	-2.00066E-001	0.00000E+000	9	...........	1426.22
	47	4.3	-2.00254E-001	-9.81559E-005	0.00000E+000	-2.00066E-001	0.00000E+000	9	...........	1426.22
	48	4.4	-2.00253E-001	-9.71309E-005	0.00000E+000	-2.00066E-001	0.00000E+000	9	...........	1426.22
	49	4.5	-2.00253E-001	-9.61143E-005	0.00000E+000	-2.00066E-001	0.00000E+000	9	...........	1425.78
	50	4.6	-2.00253E-001	-9.51802E-005	0.00000E+000	-2.00066E-001	0.00000E+000	9	...........	1425.78
	51	4.7	-2.00256E-001	-9.42486E-005	0.00000E+000	-2.00066E-001	0.00000E+000	9	...........	1425.78
	52	4.8	-2.00256E-001	-9.33521E-005	0.00000E+000	-2.00066E-001	0.00000E+000	9	...........	1425.78
	53	4.9	-2.00255E-001	-9.24874E-005	0.00000E+000	-2.00066E-001	0.00000E+000	9	...........	1425.78
	54	5	-2.00255E-001	-9.16764E-005	0.00000E+000	-2.00066E-001	0.00000E+000	9	...........	1425.78
	55	5.1	-2.00256E-001	-9.08921E-005	0.00000E+000	-2.00066E-001	0.00000E+000	9	...........	1425.78
	56	5.2	-2.00255E-001	-9.01195E-005	0.00000E+000	-2.00066E-001	0.00000E+000	9	...........	1425.78
	57	5.3	-2.00254E-001	-8.94010E-005	0.00000E+000	-2.00066E-001	0.00000E+000	9	...........	1425.78
	58	5.4	-2.00254E-001	-8.86751E-005	0.00000E+000	-2.00066E-001	0.00000E+000	9	...........	1425.78
	59	5.5	-2.00253E-001	-8.79412E-005	0.00000E+000	-2.00066E-001	0.00000E+000	9	...........	1426.22
	60	5.6	-2.00254E-001	-8.72614E-005	0.00000E+000	-2.00066E-001	0.00000E+000	9	...........	1426.22
	61	5.7	-2.00254E-001	-8.65837E-005	0.00000E+000	-2.00066E-001	0.00000E+000	9	...........	1426.22
	62	5.8	-2.00255E-001	-8.59182E-005	0.00000E+000	-2.00066E-001	0.00000E+000	9	...........	1426.22
	63	5.9	-2.00257E-001	-8.52946E-005	0.00000E+000	-2.00066E-001	0.00000E+000	9	...........	1426.22
	64	6	-2.00254E-001	-8.46627E-005	0.00000E+000	-2.00066E-001	0.00000E+000	9	...........	1426.22
	65	6.1	-2.00255E-001	-8.40696E-005	0.00000E+000	-2.00066E-001	0.00000E+000	9	...........	1426.22
	66	7.1	-2.00255E-001	-7.87964E-005	0.00000E+000	-2.00066E-001	0.00000E+000	9	...........	1426.22
	67	8.1	-2.00257E-001	-7.47977E-005	0.00000E+000	-2.00066E-001	0.00000E+000	9	...........	1426.22
	68	9.1	-2.00255E-001	-7.14649E-005	0.00000E+000	-2.00066E-001	0.00000E+000	9	...........	1426.22
	69	10.1	-2.00255E-001	-6.85942E-005	0.00000E+000	-2.00066E-001	0.00000E+000	9	...........	1426.22
	70	11.1	-2.00256E-001	-6.61853E-005	0.00000E+000	-2.00066E-001	0.00000E+000	9	...........	1426.31
	71	12.1	-2.00257E-001	-6.42845E-005	0.00000E+000	-2.00066E-001	0.00000E+000	9	...........	1426.31
	72	13.1	-2.00256E-001	-6.26142E-005	0.00000E+000	-2.00066E-001	0.00000E+000	9	...........	1426.31
	73	14.1	-2.00256E-001	-6.10896E-005	0.00000E+000	-2.00066E-001	0.00000E+000	9	...........	1426.31
	74	15.1	-2.00255E-001	-5.98194E-005	0.00000E+000	-2.00066E-001	0.00000E+000	9	...........	1426.31
	75	16.1	-2.00255E-001	-5.87860E-005	0.00000E+000	-2.00066E-001	0.00000E+000	9	...........	1426.31
	76	26.1	-2.00254E-001	-5.11017E-005	0.00000E+000	-2.00066E-001	0.00000E+000	9	...........	1426.31
	77	36.1	-2.00255E-001	-4.70190E-005	0.00000E+000	-2.00066E-001	0.00000E+000	9	...........	1426.31
	78	46.1	-2.00257E-001	-4.47082E-005	0.00000E+000	-2.00066E-001	0.00000E+000	9	...........	1426.31
	79	56.1	-2.00255E-001	-4.28544E-005	0.00000E+000	-2.00066E-001	0.00000E+000	9	...........	1426.31
	80	66.1	-2.00255E-001	-4.12645E-005	0.00000E+000	-2.00066E-001	0.00000E+000	9	...........	1426.31
	81	76.1	-2.00254E-001	-4.04870E-005	0.00000E+000	-2.00066E-001	0.00000E+000	9	...........	1426.31
	82	86.1	-2.00256E-001	-3.95048E-005	0.00000E+000	-2.00066E-001	0.00000E+000	9	...........	1426.31
	83	96.1	-2.00252E-001	-3.85123E-005	0.00000E+000	-2.00066E-001	0.00000E+000	9	...........	1426.22
	84	106.1	-2.00255E-001	-3.81623E-005	0.00000E+000	-2.00066E-001	0.00000E+000	9	...........	1426.31
	85	116.1	-2.00254E-001	-3.73118E-005	0.00000E+000	-2.00066E-001	0.00000E+000	9	...........	1426.31
	86	216.1	-2.00255E-001	-3.41659E-005	0.00000E+000	-2.00066E-001	0.00000E+000	9	...........	1426.31
	87	300	-2.00253E-001	-3.18481E-005	0.00000E+000	-2.00066E-001	0.00000E+000	9	...........	1426.31
	88	300.1	-3.00256E-001	-3.20378E-004	0.00000E+000	-3.00066E-001	0.00000E+000	9	...........	1426.31
	89	300.2	-3.00418E-001	-2.07509E-004	0.00000E+000	-3.00066E-001	0.00000E+000	9	...........	1426.31
	90	300.3	-3.00417E-001	-1.68050E-004	0.00000E+000	-3.00066E-001	0.00000E+000	9	...........	1426.31
	91	300.4	-3.00420E-001	-1.50735E-004	0.00000E+000	-3.00066E-001	0.00000E+000	9	...........	1426.31
	92	300.5	-3.00421E-001	-1.41629E-004	0.00000E+000	-3.00066E-001	0.00000E+000	9	...........	1426.31
	93	300.6	-3.00408E-001	-1.36059E-004	0.00000E+000	-3.00066E-001	0.00000E+000	9	...........	1426.31
	94	300.7	-3.00414E-001	-1.32252E-004	0.00000E+000	-3.00066E-001	0.00000E+000	9	...........	1426.31
	95	300.8	-3.00429E-001	-1.29395E-004	0.00000E+000	-3.00066E-001	0.00000E+000	9	...........	1426.31
	96	300.9	-3.00423E-001	-1.27085E-004	0.00000E+000	-3.00066E-001	0.00000E+000	9	...........	1426.31
	97	301	-3.00423E-001	-1.25234E-004	0.00000E+000	-3.00066E-001	0.00000E+000	9	...........	1426.31
