EXPLAIN
TAG	CHRONOA
TITLE	LABEL	Chronoamperometry Scan	Test Identifier
DATE	LABEL	20/12/2021	Date
TIME	LABEL	11:23:02	Time
NOTES	NOTES	1	Notes...
	
PSTAT	PSTAT	IFC1010-21051	Potentiostat
VPRESTEP	POTEN	1.00000E-001	F	Pre-step Voltage (V)
TPRESTEP	QUANT	5.00000E-001	Pre-step Delay Time (s)
VSTEP1	POTEN	2.00000E-001	F	Step 1 Voltage (V)
TSTEP1	QUANT	3.00000E+002	Step 1 Time (s)
VSTEP2	POTEN	3.00000E-001	F	Step 2 Voltage (V)
TSTEP2	QUANT	1.00000E+000	Step 2 Time (s)
SAMPLETIME	QUANT	1.00000E-001	Sample Period (s)
DECIMATE	TOGGLE	T	Decimate
ILIMIT	QUANT	1.00000E+000	Limit I (mA/cm^2)
IMODE	SELECTOR	1	I/E Range Mode
IRANGE	QUANT	3.00000E-001	Max Current (mA)
EQDELAY	QUANT	5.00000E+000	Equil. Time (s)
SAMPLINGMODE	SELECTOR	1	Sampling Mode
AREA	QUANT	1.00000E+000	Sample Area (cm^2)
IRCOMP	SELECTOR	0	IRComp
PFCOR	QUANT	5.00000E+001	PF Corr. (ohm)
SEQUENCER	TOGGLE	TRUE	Run as Sequence
PSTATMODEL	IQUANT	64	Pstat Model
PSTATSECTION	LABEL	IFC1010-21051	Pstat Section
PSTATSERIALNO	LABEL	21051	Pstat Serial Number
CTRLMODE	IQUANT	1	Control Mode
ELECTROMETER	IQUANT	0	RE=0 or CS=1
IESTAB	IQUANT	0	I/E Stability
CASPEED	IQUANT	4	Control Amp Speed
CONVENTION	IQUANT	1	Current Convention
ICHRANGE	IQUANT	2	Ich Range
ICHRANGEMODE	TOGGLE	T	Ich Auto Range
ICHOFFSETENABLE	TOGGLE	F	Ich Offset Enable
ICHOFFSET	QUANT	0	Ich Offset (V)
ICHFILTER	IQUANT	3	Ich Filter
VCHRANGE	IQUANT	3	Vch Range
VCHRANGEMODE	TOGGLE	T	Vch Auto Range
VCHOFFSETENABLE	TOGGLE	F	Vch Offset Enable
VCHOFFSET	QUANT	0	Vch Offset (V)
VCHFILTER	IQUANT	3	Vch Filter
IERANGELOWERLIMIT	IQUANT	4	I/E Range Lower Limit
IERANGEMODE	TOGGLE	F	I/E AutoRange
IERANGE	IQUANT	9	I/E Range
ACHSELECT	IQUANT	0	Ach Select
ACHRANGE	IQUANT	2	Ach Range
ACHOFFSETENABLE	TOGGLE	F	Ach Offset Enable
ACHOFFSET	QUANT	0	Ach Offset (V)
ACHFILTER	IQUANT	1	Ach Filter
SENSECABLEID	IQUANT	14	Sense Cable ID
PWRCABLEID	IQUANT	14	Power Cable ID
DCCALDATE	LABEL	10/1/2020	DC Calibration Date
ACCALDATE	LABEL	4/2/2018	AC Calibration Date
FRAMEWORKVERSION	QUANT	7.06	Framework Version
INSTRUMENTVERSION	LABEL	4.30	Instrument Version
CURVE	TABLE	98
	Pt	T	Vf	Im	Vu	Sig	Ach	IERange	Over	Temp
	#	s	V vs. Ref.	A	V	V	V	#	bits	deg C
	0	-0.4	9.99503E-002	8.70362E-007	0.00000E+000	1.00006E-001	0.00000E+000	9	...........	1425.60
	1	-0.3	1.00174E-001	8.53211E-007	0.00000E+000	1.00006E-001	0.00000E+000	9	...........	1425.60
	2	-0.2	1.00241E-001	8.33157E-007	0.00000E+000	1.00006E-001	0.00000E+000	9	...........	1425.60
	3	-0.1	1.00240E-001	8.16106E-007	0.00000E+000	1.00006E-001	0.00000E+000	9	...........	1425.60
	4	0	1.00241E-001	7.91681E-007	0.00000E+000	1.00006E-001	0.00000E+000	9	...........	1425.60
	5	0.1	2.00238E-001	1.97069E-004	0.00000E+000	2.00005E-001	0.00000E+000	9	...........	1425.60
	6	0.2	2.00240E-001	8.50068E-005	0.00000E+000	2.00005E-001	0.00000E+000	9	...........	1425.60
	7	0.3	2.00238E-001	4.64381E-005	0.00000E+000	2.00005E-001	0.00000E+000	9	...........	1425.60
	8	0.4	2.00238E-001	3.04339E-005	0.00000E+000	2.00005E-001	0.00000E+000	9	...........	1425.60
	9	0.5	2.00238E-001	2.26477E-005	0.00000E+000	2.00005E-001	0.00000E+000	9	...........	1425.60
	10	0.6	2.00237E-001	1.82857E-005	0.00000E+000	2.00005E-001	0.00000E+000	9	...........	1425.60
	11	0.7	2.00237E-001	1.55481E-005	0.00000E+000	2.00005E-001	0.00000E+000	9	...........	1425.60
	12	0.8	2.00236E-001	1.36336E-005	0.00000E+000	2.00005E-001	0.00000E+000	9	...........	1425.69
	13	0.9	2.00236E-001	1.22287E-005	0.00000E+000	2.00005E-001	0.00000E+000	9	...........	1425.69
	14	1	2.00234E-001	1.11372E-005	0.00000E+000	2.00005E-001	0.00000E+000	9	...........	1425.69
	15	1.1	2.00234E-001	1.02498E-005	0.00000E+000	2.00005E-001	0.00000E+000	9	...........	1425.69
	16	1.2	2.00236E-001	9.52346E-006	0.00000E+000	2.00005E-001	0.00000E+000	9	...........	1425.69
	17	1.3	2.00236E-001	8.89734E-006	0.00000E+000	2.00005E-001	0.00000E+000	9	...........	1425.69
	18	1.4	2.00235E-001	8.34771E-006	0.00000E+000	2.00005E-001	0.00000E+000	9	...........	1425.69
	19	1.5	2.00235E-001	7.87696E-006	0.00000E+000	2.00005E-001	0.00000E+000	9	...........	1425.69
	20	1.6	2.00234E-001	7.45105E-006	0.00000E+000	2.00005E-001	0.00000E+000	9	...........	1425.69
	21	1.7	2.00234E-001	7.09262E-006	0.00000E+000	2.00005E-001	0.00000E+000	9	...........	1425.69
	22	1.8	2.00235E-001	6.77612E-006	0.00000E+000	2.00005E-001	0.00000E+000	9	...........	1425.69
	23	1.9	2.00234E-001	6.46300E-006	0.00000E+000	2.00005E-001	0.00000E+000	9	...........	1425.69
	24	2	2.00237E-001	6.19362E-006	0.00000E+000	2.00005E-001	0.00000E+000	9	...........	1425.69
	25	2.1	2.00234E-001	5.94113E-006	0.00000E+000	2.00005E-001	0.00000E+000	9	...........	1425.69
	26	2.2	2.00235E-001	5.72554E-006	0.00000E+000	2.00005E-001	0.00000E+000	9	...........	1425.69
	27	2.3	2.00236E-001	5.50271E-006	0.00000E+000	2.00005E-001	0.00000E+000	9	...........	1425.69
	28	2.4	2.00236E-001	5.31128E-006	0.00000E+000	2.00005E-001	0.00000E+000	9	...........	1425.69
	29	2.5	2.00237E-001	5.12969E-006	0.00000E+000	2.00005E-001	0.00000E+000	9	...........	1425.69
	30	2.6	2.00237E-001	4.97009E-006	0.00000E+000	2.00005E-001	0.00000E+000	9	...........	1425.69
	31	2.7	2.00236E-001	4.81130E-006	0.00000E+000	2.00005E-001	0.00000E+000	9	...........	1425.69
	32	2.8	2.00234E-001	4.66111E-006	0.00000E+000	2.00005E-001	0.00000E+000	9	...........	1425.78
	33	2.9	2.00236E-001	4.52146E-006	0.00000E+000	2.00005E-001	0.00000E+000	9	...........	1425.78
	34	3	2.00236E-001	4.41252E-006	0.00000E+000	2.00005E-001	0.00000E+000	9	...........	1425.78
	35	3.1	2.00235E-001	4.27758E-006	0.00000E+000	2.00005E-001	0.00000E+000	9	...........	1425.78
	36	3.2	2.00236E-001	4.17624E-006	0.00000E+000	2.00005E-001	0.00000E+000	9	...........	1425.78
	37	3.3	2.00234E-001	4.06446E-006	0.00000E+000	2.00005E-001	0.00000E+000	9	...........	1425.78
	38	3.4	2.00235E-001	3.97500E-006	0.00000E+000	2.00005E-001	0.00000E+000	9	...........	1425.78
	39	3.5	2.00235E-001	3.87710E-006	0.00000E+000	2.00005E-001	0.00000E+000	9	...........	1425.78
	40	3.6	2.00235E-001	3.76572E-006	0.00000E+000	2.00005E-001	0.00000E+000	9	...........	1425.78
	41	3.7	2.00236E-001	3.68597E-006	0.00000E+000	2.00005E-001	0.00000E+000	9	...........	1425.78
	42	3.8	2.00235E-001	3.60769E-006	0.00000E+000	2.00005E-001	0.00000E+000	9	...........	1425.69
	43	3.9	2.00235E-001	3.51035E-006	0.00000E+000	2.00005E-001	0.00000E+000	9	...........	1425.69
	44	4	2.00236E-001	3.43014E-006	0.00000E+000	2.00005E-001	0.00000E+000	9	...........	1425.69
	45	4.1	2.00236E-001	3.35880E-006	0.00000E+000	2.00005E-001	0.00000E+000	9	...........	1425.69
	46	4.2	2.00236E-001	3.29380E-006	0.00000E+000	2.00005E-001	0.00000E+000	9	...........	1425.69
	47	4.3	2.00235E-001	3.21321E-006	0.00000E+000	2.00005E-001	0.00000E+000	9	...........	1425.69
	48	4.4	2.00234E-001	3.14688E-006	0.00000E+000	2.00005E-001	0.00000E+000	9	...........	1425.69
	49	4.5	2.00235E-001	3.09596E-006	0.00000E+000	2.00005E-001	0.00000E+000	9	...........	1425.69
	50	4.6	2.00237E-001	3.02792E-006	0.00000E+000	2.00005E-001	0.00000E+000	9	...........	1425.69
	51	4.7	2.00237E-001	2.96813E-006	0.00000E+000	2.00005E-001	0.00000E+000	9	...........	1425.69
	52	4.8	2.00235E-001	2.91257E-006	0.00000E+000	2.00005E-001	0.00000E+000	9	...........	1425.69
	53	4.9	2.00237E-001	2.85835E-006	0.00000E+000	2.00005E-001	0.00000E+000	9	...........	1425.69
	54	5	2.00238E-001	2.80212E-006	0.00000E+000	2.00005E-001	0.00000E+000	9	...........	1425.69
	55	5.1	2.00237E-001	2.74259E-006	0.00000E+000	2.00005E-001	0.00000E+000	9	...........	1425.69
	56	5.2	2.00236E-001	2.69758E-006	0.00000E+000	2.00005E-001	0.00000E+000	9	...........	1425.69
	57	5.3	2.00235E-001	2.65841E-006	0.00000E+000	2.00005E-001	0.00000E+000	9	...........	1425.69
	58	5.4	2.00236E-001	2.59574E-006	0.00000E+000	2.00005E-001	0.00000E+000	9	...........	1425.69
	59	5.5	2.00235E-001	2.56925E-006	0.00000E+000	2.00005E-001	0.00000E+000	9	...........	1425.69
	60	5.6	2.00236E-001	2.51593E-006	0.00000E+000	2.00005E-001	0.00000E+000	9	...........	1425.69
	61	5.7	2.00235E-001	2.47515E-006	0.00000E+000	2.00005E-001	0.00000E+000	9	...........	1425.69
	62	5.8	2.00235E-001	2.43454E-006	0.00000E+000	2.00005E-001	0.00000E+000	9	...........	1425.69
	63	5.9	2.00236E-001	2.39947E-006	0.00000E+000	2.00005E-001	0.00000E+000	9	...........	1425.69
	64	6	2.00237E-001	2.35216E-006	0.00000E+000	2.00005E-001	0.00000E+000	9	...........	1425.69
	65	6.1	2.00236E-001	2.29937E-006	0.00000E+000	2.00005E-001	0.00000E+000	9	...........	1425.69
	66	7.1	2.00237E-001	1.99222E-006	0.00000E+000	2.00005E-001	0.00000E+000	9	...........	1425.69
	67	8.1	2.00236E-001	1.76509E-006	0.00000E+000	2.00005E-001	0.00000E+000	9	...........	1425.78
	68	9.1	2.00235E-001	1.57969E-006	0.00000E+000	2.00005E-001	0.00000E+000	9	...........	1425.78
	69	10.1	2.00237E-001	1.44155E-006	0.00000E+000	2.00005E-001	0.00000E+000	9	...........	1425.78
	70	11.1	2.00236E-001	1.31262E-006	0.00000E+000	2.00005E-001	0.00000E+000	9	...........	1425.78
	71	12.1	2.00236E-001	1.18872E-006	0.00000E+000	2.00005E-001	0.00000E+000	9	...........	1425.78
	72	13.1	2.00234E-001	1.03927E-006	0.00000E+000	2.00005E-001	0.00000E+000	9	...........	1425.78
	73	14.1	2.00235E-001	9.46274E-007	0.00000E+000	2.00005E-001	0.00000E+000	9	...........	1425.78
	74	15.1	2.00234E-001	8.43902E-007	0.00000E+000	2.00005E-001	0.00000E+000	9	...........	1425.78
	75	16.1	2.00236E-001	7.98588E-007	0.00000E+000	2.00005E-001	0.00000E+000	9	...........	1425.78
	76	26.1	2.00236E-001	6.42094E-007	0.00000E+000	2.00005E-001	0.00000E+000	9	...........	1425.78
	77	36.1	2.00234E-001	5.11025E-007	0.00000E+000	2.00005E-001	0.00000E+000	9	...........	1425.78
	78	46.1	2.00232E-001	1.36071E-007	0.00000E+000	2.00005E-001	0.00000E+000	9	...........	1425.78
	79	56.1	2.00235E-001	-3.23690E-008	0.00000E+000	2.00005E-001	0.00000E+000	9	...........	1425.78
	80	66.1	2.00235E-001	1.47483E-007	0.00000E+000	2.00005E-001	0.00000E+000	9	...........	1425.78
	81	76.1	2.00235E-001	1.79316E-007	0.00000E+000	2.00005E-001	0.00000E+000	9	...........	1425.78
	82	86.1	2.00235E-001	-1.16789E-007	0.00000E+000	2.00005E-001	0.00000E+000	9	...........	1425.78
	83	96.1	2.00234E-001	4.90817E-008	0.00000E+000	2.00005E-001	0.00000E+000	9	...........	1425.78
	84	106.1	2.00235E-001	-9.44531E-009	0.00000E+000	2.00005E-001	0.00000E+000	9	...........	1425.78
	85	116.1	2.00237E-001	-1.73481E-007	0.00000E+000	2.00005E-001	0.00000E+000	9	...........	1425.78
	86	216.1	2.00236E-001	-1.47988E-007	0.00000E+000	2.00005E-001	0.00000E+000	9	...........	1425.78
	87	300	2.00235E-001	-4.44728E-007	0.00000E+000	2.00005E-001	0.00000E+000	9	...........	1425.78
	88	300.1	3.00252E-001	2.07553E-004	0.00000E+000	3.00005E-001	0.00000E+000	9	...........	1425.78
	89	300.2	3.00222E-001	1.06153E-004	0.00000E+000	3.00005E-001	0.00000E+000	9	...........	1425.78
	90	300.3	3.00219E-001	7.02941E-005	0.00000E+000	3.00005E-001	0.00000E+000	9	...........	1425.78
	91	300.4	3.00221E-001	5.38135E-005	0.00000E+000	3.00005E-001	0.00000E+000	9	...........	1425.78
	92	300.5	3.00216E-001	4.47235E-005	0.00000E+000	3.00005E-001	0.00000E+000	9	...........	1425.78
	93	300.6	3.00217E-001	3.89913E-005	0.00000E+000	3.00005E-001	0.00000E+000	9	...........	1425.78
	94	300.7	3.00224E-001	3.50095E-005	0.00000E+000	3.00005E-001	0.00000E+000	9	...........	1425.78
	95	300.8	3.00216E-001	3.20628E-005	0.00000E+000	3.00005E-001	0.00000E+000	9	...........	1425.78
	96	300.9	3.00209E-001	2.97638E-005	0.00000E+000	3.00005E-001	0.00000E+000	9	...........	1425.78
	97	301	3.00221E-001	2.79130E-005	0.00000E+000	3.00005E-001	0.00000E+000	9	...........	1425.78
