EXPLAIN
TAG	CHRONOA
TITLE	LABEL	Chronoamperometry Scan	Test Identifier
DATE	LABEL	20/12/2021	Date
TIME	LABEL	15:40:28	Time
NOTES	NOTES	1	Notes...
	
PSTAT	PSTAT	IFC1010-21051	Potentiostat
VPRESTEP	POTEN	-5.00000E-001	F	Pre-step Voltage (V)
TPRESTEP	QUANT	5.00000E-001	Pre-step Delay Time (s)
VSTEP1	POTEN	-6.00000E-001	F	Step 1 Voltage (V)
TSTEP1	QUANT	3.00000E+002	Step 1 Time (s)
VSTEP2	POTEN	-7.00000E-001	F	Step 2 Voltage (V)
TSTEP2	QUANT	1.00000E+000	Step 2 Time (s)
SAMPLETIME	QUANT	1.00000E-001	Sample Period (s)
DECIMATE	TOGGLE	T	Decimate
ILIMIT	QUANT	1.00000E+000	Limit I (mA/cm^2)
IMODE	SELECTOR	1	I/E Range Mode
IRANGE	QUANT	3.00000E-001	Max Current (mA)
EQDELAY	QUANT	5.00000E+000	Equil. Time (s)
SAMPLINGMODE	SELECTOR	1	Sampling Mode
AREA	QUANT	1.00000E+000	Sample Area (cm^2)
IRCOMP	SELECTOR	0	IRComp
PFCOR	QUANT	5.00000E+001	PF Corr. (ohm)
SEQUENCER	TOGGLE	TRUE	Run as Sequence
PSTATMODEL	IQUANT	64	Pstat Model
PSTATSECTION	LABEL	IFC1010-21051	Pstat Section
PSTATSERIALNO	LABEL	21051	Pstat Serial Number
CTRLMODE	IQUANT	1	Control Mode
ELECTROMETER	IQUANT	0	RE=0 or CS=1
IESTAB	IQUANT	0	I/E Stability
CASPEED	IQUANT	4	Control Amp Speed
CONVENTION	IQUANT	1	Current Convention
ICHRANGE	IQUANT	2	Ich Range
ICHRANGEMODE	TOGGLE	T	Ich Auto Range
ICHOFFSETENABLE	TOGGLE	F	Ich Offset Enable
ICHOFFSET	QUANT	0	Ich Offset (V)
ICHFILTER	IQUANT	3	Ich Filter
VCHRANGE	IQUANT	3	Vch Range
VCHRANGEMODE	TOGGLE	T	Vch Auto Range
VCHOFFSETENABLE	TOGGLE	F	Vch Offset Enable
VCHOFFSET	QUANT	0	Vch Offset (V)
VCHFILTER	IQUANT	3	Vch Filter
IERANGELOWERLIMIT	IQUANT	4	I/E Range Lower Limit
IERANGEMODE	TOGGLE	F	I/E AutoRange
IERANGE	IQUANT	9	I/E Range
ACHSELECT	IQUANT	0	Ach Select
ACHRANGE	IQUANT	2	Ach Range
ACHOFFSETENABLE	TOGGLE	F	Ach Offset Enable
ACHOFFSET	QUANT	0	Ach Offset (V)
ACHFILTER	IQUANT	1	Ach Filter
SENSECABLEID	IQUANT	14	Sense Cable ID
PWRCABLEID	IQUANT	14	Power Cable ID
DCCALDATE	LABEL	10/1/2020	DC Calibration Date
ACCALDATE	LABEL	4/2/2018	AC Calibration Date
FRAMEWORKVERSION	QUANT	7.06	Framework Version
INSTRUMENTVERSION	LABEL	4.30	Instrument Version
CURVE	TABLE	98
	Pt	T	Vf	Im	Vu	Sig	Ach	IERange	Over	Temp
	#	s	V vs. Ref.	A	V	V	V	#	bits	deg C
	0	-0.4	-5.00999E-001	-1.63620E-004	0.00000E+000	-5.00017E-001	0.00000E+000	9	...........	1426.13
	1	-0.3	-5.00846E-001	-1.63140E-004	0.00000E+000	-5.00017E-001	0.00000E+000	9	...........	1426.13
	2	-0.2	-5.00850E-001	-1.62658E-004	0.00000E+000	-5.00017E-001	0.00000E+000	9	...........	1426.13
	3	-0.1	-5.00858E-001	-1.62189E-004	0.00000E+000	-5.00017E-001	0.00000E+000	9	...........	1426.13
	4	0	-5.00845E-001	-1.61681E-004	0.00000E+000	-5.00017E-001	0.00000E+000	9	...........	1426.13
	5	0.1	-6.00848E-001	-5.65615E-004	0.00000E+000	-6.00016E-001	0.00000E+000	9	...........	1426.13
	6	0.2	-6.00865E-001	-4.93034E-004	0.00000E+000	-6.00016E-001	0.00000E+000	9	...........	1426.13
	7	0.3	-6.00857E-001	-4.53001E-004	0.00000E+000	-6.00016E-001	0.00000E+000	9	...........	1426.13
	8	0.4	-6.00862E-001	-4.27150E-004	0.00000E+000	-6.00016E-001	0.00000E+000	9	...........	1426.13
	9	0.5	-6.00856E-001	-4.08689E-004	0.00000E+000	-6.00016E-001	0.00000E+000	9	...........	1426.13
	10	0.6	-6.00848E-001	-3.94399E-004	0.00000E+000	-6.00016E-001	0.00000E+000	9	...........	1426.13
	11	0.7	-6.00858E-001	-3.82696E-004	0.00000E+000	-6.00016E-001	0.00000E+000	9	...........	1426.13
	12	0.8	-6.00863E-001	-3.72682E-004	0.00000E+000	-6.00016E-001	0.00000E+000	9	...........	1426.13
	13	0.9	-6.00853E-001	-3.63967E-004	0.00000E+000	-6.00016E-001	0.00000E+000	9	...........	1426.13
	14	1	-6.00855E-001	-3.55991E-004	0.00000E+000	-6.00016E-001	0.00000E+000	9	...........	1426.13
	15	1.1	-6.00856E-001	-3.48986E-004	0.00000E+000	-6.00016E-001	0.00000E+000	9	...........	1426.13
	16	1.2	-6.00855E-001	-3.42471E-004	0.00000E+000	-6.00016E-001	0.00000E+000	9	...........	1426.13
	17	1.3	-6.00849E-001	-3.36564E-004	0.00000E+000	-6.00016E-001	0.00000E+000	9	...........	1426.13
	18	1.4	-6.00851E-001	-3.31035E-004	0.00000E+000	-6.00016E-001	0.00000E+000	9	...........	1426.13
	19	1.5	-6.00854E-001	-3.25856E-004	0.00000E+000	-6.00016E-001	0.00000E+000	9	...........	1426.13
	20	1.6	-6.00851E-001	-3.21077E-004	0.00000E+000	-6.00016E-001	0.00000E+000	9	...........	1426.13
	21	1.7	-6.00855E-001	-3.16582E-004	0.00000E+000	-6.00016E-001	0.00000E+000	9	...........	1426.13
	22	1.8	-6.00855E-001	-3.12312E-004	0.00000E+000	-6.00016E-001	0.00000E+000	9	...........	1426.13
	23	1.9	-6.00857E-001	-3.08232E-004	0.00000E+000	-6.00016E-001	0.00000E+000	9	...........	1426.13
	24	2	-6.00845E-001	-3.04376E-004	0.00000E+000	-6.00016E-001	0.00000E+000	9	...........	1426.13
	25	2.1	-6.00854E-001	-3.00749E-004	0.00000E+000	-6.00016E-001	0.00000E+000	9	...........	1426.13
	26	2.2	-6.00859E-001	-2.97225E-004	0.00000E+000	-6.00016E-001	0.00000E+000	9	...........	1426.13
	27	2.3	-6.00855E-001	-2.93940E-004	0.00000E+000	-6.00016E-001	0.00000E+000	9	...........	1426.13
	28	2.4	-6.00849E-001	-2.90688E-004	0.00000E+000	-6.00016E-001	0.00000E+000	9	...........	1426.04
	29	2.5	-6.00848E-001	-2.87652E-004	0.00000E+000	-6.00016E-001	0.00000E+000	9	...........	1426.04
	30	2.6	-6.00856E-001	-2.84770E-004	0.00000E+000	-6.00016E-001	0.00000E+000	9	...........	1426.04
	31	2.7	-6.00844E-001	-2.81942E-004	0.00000E+000	-6.00016E-001	0.00000E+000	9	...........	1426.04
	32	2.8	-6.00856E-001	-2.79342E-004	0.00000E+000	-6.00016E-001	0.00000E+000	9	...........	1426.04
	33	2.9	-6.00853E-001	-2.76738E-004	0.00000E+000	-6.00016E-001	0.00000E+000	9	...........	1426.04
	34	3	-6.00854E-001	-2.74291E-004	0.00000E+000	-6.00016E-001	0.00000E+000	9	...........	1426.04
	35	3.1	-6.00865E-001	-2.71855E-004	0.00000E+000	-6.00016E-001	0.00000E+000	9	...........	1426.04
	36	3.2	-6.00863E-001	-2.69576E-004	0.00000E+000	-6.00016E-001	0.00000E+000	9	...........	1426.04
	37	3.3	-6.00847E-001	-2.67260E-004	0.00000E+000	-6.00016E-001	0.00000E+000	9	...........	1426.04
	38	3.4	-6.00852E-001	-2.65155E-004	0.00000E+000	-6.00016E-001	0.00000E+000	9	...........	1426.04
	39	3.5	-6.00861E-001	-2.63084E-004	0.00000E+000	-6.00016E-001	0.00000E+000	9	...........	1426.04
	40	3.6	-6.00859E-001	-2.61106E-004	0.00000E+000	-6.00016E-001	0.00000E+000	9	...........	1426.04
	41	3.7	-6.00864E-001	-2.59250E-004	0.00000E+000	-6.00016E-001	0.00000E+000	9	...........	1426.04
	42	3.8	-6.00850E-001	-2.57230E-004	0.00000E+000	-6.00016E-001	0.00000E+000	9	...........	1426.04
	43	3.9	-6.00857E-001	-2.55492E-004	0.00000E+000	-6.00016E-001	0.00000E+000	9	...........	1426.04
	44	4	-6.00864E-001	-2.53775E-004	0.00000E+000	-6.00016E-001	0.00000E+000	9	...........	1426.04
	45	4.1	-6.00866E-001	-2.52070E-004	0.00000E+000	-6.00016E-001	0.00000E+000	9	...........	1426.04
	46	4.2	-6.00857E-001	-2.50320E-004	0.00000E+000	-6.00016E-001	0.00000E+000	9	...........	1426.04
	47	4.3	-6.00858E-001	-2.48768E-004	0.00000E+000	-6.00016E-001	0.00000E+000	9	...........	1426.04
	48	4.4	-6.00865E-001	-2.47287E-004	0.00000E+000	-6.00016E-001	0.00000E+000	9	...........	1426.04
	49	4.5	-6.00857E-001	-2.45795E-004	0.00000E+000	-6.00016E-001	0.00000E+000	9	...........	1426.04
	50	4.6	-6.00849E-001	-2.44246E-004	0.00000E+000	-6.00016E-001	0.00000E+000	9	...........	1426.04
	51	4.7	-6.00849E-001	-2.42824E-004	0.00000E+000	-6.00016E-001	0.00000E+000	9	...........	1426.04
	52	4.8	-6.00849E-001	-2.41346E-004	0.00000E+000	-6.00016E-001	0.00000E+000	9	...........	1426.04
	53	4.9	-6.00855E-001	-2.39992E-004	0.00000E+000	-6.00016E-001	0.00000E+000	9	...........	1426.04
	54	5	-6.00865E-001	-2.38709E-004	0.00000E+000	-6.00016E-001	0.00000E+000	9	...........	1426.04
	55	5.1	-6.00851E-001	-2.37378E-004	0.00000E+000	-6.00016E-001	0.00000E+000	9	...........	1426.04
	56	5.2	-6.00861E-001	-2.36167E-004	0.00000E+000	-6.00016E-001	0.00000E+000	9	...........	1426.04
	57	5.3	-6.00859E-001	-2.34890E-004	0.00000E+000	-6.00016E-001	0.00000E+000	9	...........	1426.04
	58	5.4	-6.00853E-001	-2.33652E-004	0.00000E+000	-6.00016E-001	0.00000E+000	9	...........	1426.04
	59	5.5	-6.00853E-001	-2.32437E-004	0.00000E+000	-6.00016E-001	0.00000E+000	9	...........	1426.04
	60	5.6	-6.00864E-001	-2.31237E-004	0.00000E+000	-6.00016E-001	0.00000E+000	9	...........	1426.04
	61	5.7	-6.00856E-001	-2.30017E-004	0.00000E+000	-6.00016E-001	0.00000E+000	9	...........	1426.04
	62	5.8	-6.00864E-001	-2.28950E-004	0.00000E+000	-6.00016E-001	0.00000E+000	9	...........	1426.04
	63	5.9	-6.00855E-001	-2.27778E-004	0.00000E+000	-6.00016E-001	0.00000E+000	9	...........	1426.04
	64	6	-6.00851E-001	-2.26691E-004	0.00000E+000	-6.00016E-001	0.00000E+000	9	...........	1426.04
	65	6.1	-6.00850E-001	-2.25651E-004	0.00000E+000	-6.00016E-001	0.00000E+000	9	...........	1426.04
	66	7.1	-6.00856E-001	-2.15986E-004	0.00000E+000	-6.00016E-001	0.00000E+000	9	...........	1426.04
	67	8.1	-6.00863E-001	-2.08108E-004	0.00000E+000	-6.00016E-001	0.00000E+000	9	...........	1426.04
	68	9.1	-6.00846E-001	-2.01367E-004	0.00000E+000	-6.00016E-001	0.00000E+000	9	...........	1426.04
	69	10.1	-6.00857E-001	-1.95285E-004	0.00000E+000	-6.00016E-001	0.00000E+000	9	...........	1426.13
	70	11.1	-6.00872E-001	-1.90069E-004	0.00000E+000	-6.00016E-001	0.00000E+000	9	...........	1426.13
	71	12.1	-6.00841E-001	-1.85645E-004	0.00000E+000	-6.00016E-001	0.00000E+000	9	...........	1426.13
	72	13.1	-6.00856E-001	-1.81846E-004	0.00000E+000	-6.00016E-001	0.00000E+000	9	...........	1426.13
	73	14.1	-6.00857E-001	-1.78234E-004	0.00000E+000	-6.00016E-001	0.00000E+000	9	...........	1426.13
	74	15.1	-6.00857E-001	-1.75134E-004	0.00000E+000	-6.00016E-001	0.00000E+000	9	...........	1426.13
	75	16.1	-6.00855E-001	-1.72134E-004	0.00000E+000	-6.00016E-001	0.00000E+000	9	...........	1426.04
	76	26.1	-6.00853E-001	-1.52557E-004	0.00000E+000	-6.00016E-001	0.00000E+000	9	...........	1426.13
	77	36.1	-6.00863E-001	-1.42368E-004	0.00000E+000	-6.00016E-001	0.00000E+000	9	...........	1426.13
	78	46.1	-6.00865E-001	-1.34923E-004	0.00000E+000	-6.00016E-001	0.00000E+000	9	...........	1426.13
	79	56.1	-6.00852E-001	-1.29686E-004	0.00000E+000	-6.00016E-001	0.00000E+000	9	...........	1426.13
	80	66.1	-6.00868E-001	-1.26594E-004	0.00000E+000	-6.00016E-001	0.00000E+000	9	...........	1426.13
	81	76.1	-6.00842E-001	-1.23214E-004	0.00000E+000	-6.00016E-001	0.00000E+000	9	...........	1426.13
	82	86.1	-6.00861E-001	-1.21110E-004	0.00000E+000	-6.00016E-001	0.00000E+000	9	...........	1426.13
	83	96.1	-6.00859E-001	-1.19399E-004	0.00000E+000	-6.00016E-001	0.00000E+000	9	...........	1426.13
	84	106.1	-6.00860E-001	-1.17915E-004	0.00000E+000	-6.00016E-001	0.00000E+000	9	...........	1426.13
	85	116.1	-6.00856E-001	-1.15991E-004	0.00000E+000	-6.00016E-001	0.00000E+000	9	...........	1426.13
	86	216.1	-6.00865E-001	-1.09092E-004	0.00000E+000	-6.00016E-001	0.00000E+000	9	...........	1426.13
	87	300	-6.00852E-001	-1.07531E-004	0.00000E+000	-6.00016E-001	0.00000E+000	9	...........	1426.13
	88	300.1	-7.00854E-001	-4.85708E-004	0.00000E+000	-7.00016E-001	0.00000E+000	9	...........	1426.13
	89	300.2	-7.00860E-001	-3.46164E-004	0.00000E+000	-7.00016E-001	0.00000E+000	9	...........	1426.13
	90	300.3	-7.00868E-001	-2.80015E-004	0.00000E+000	-7.00016E-001	0.00000E+000	9	...........	1426.13
	91	300.4	-7.00863E-001	-2.43521E-004	0.00000E+000	-7.00016E-001	0.00000E+000	9	...........	1426.13
	92	300.5	-7.00859E-001	-2.21121E-004	0.00000E+000	-7.00016E-001	0.00000E+000	9	...........	1426.13
	93	300.6	-7.00845E-001	-2.06234E-004	0.00000E+000	-7.00016E-001	0.00000E+000	9	...........	1426.13
	94	300.7	-7.00849E-001	-1.95581E-004	0.00000E+000	-7.00016E-001	0.00000E+000	9	...........	1426.13
	95	300.8	-7.00872E-001	-1.87764E-004	0.00000E+000	-7.00016E-001	0.00000E+000	9	...........	1426.13
	96	300.9	-7.00859E-001	-1.81683E-004	0.00000E+000	-7.00016E-001	0.00000E+000	9	...........	1426.13
	97	301	-7.00861E-001	-1.76725E-004	0.00000E+000	-7.00016E-001	0.00000E+000	9	...........	1426.13
