EXPLAIN
TAG	CHRONOA
TITLE	LABEL	Chronoamperometry Scan	Test Identifier
DATE	LABEL	20/12/2021	Date
TIME	LABEL	15:30:15	Time
NOTES	NOTES	1	Notes...
	
PSTAT	PSTAT	IFC1010-21051	Potentiostat
VPRESTEP	POTEN	0.00000E+000	F	Pre-step Voltage (V)
TPRESTEP	QUANT	5.00000E-001	Pre-step Delay Time (s)
VSTEP1	POTEN	-2.00000E-001	F	Step 1 Voltage (V)
TSTEP1	QUANT	3.00000E+002	Step 1 Time (s)
VSTEP2	POTEN	-3.00000E-001	F	Step 2 Voltage (V)
TSTEP2	QUANT	1.00000E+000	Step 2 Time (s)
SAMPLETIME	QUANT	1.00000E-001	Sample Period (s)
DECIMATE	TOGGLE	T	Decimate
ILIMIT	QUANT	1.00000E+000	Limit I (mA/cm^2)
IMODE	SELECTOR	1	I/E Range Mode
IRANGE	QUANT	3.00000E-001	Max Current (mA)
EQDELAY	QUANT	5.00000E+000	Equil. Time (s)
SAMPLINGMODE	SELECTOR	1	Sampling Mode
AREA	QUANT	1.00000E+000	Sample Area (cm^2)
IRCOMP	SELECTOR	0	IRComp
PFCOR	QUANT	5.00000E+001	PF Corr. (ohm)
SEQUENCER	TOGGLE	TRUE	Run as Sequence
PSTATMODEL	IQUANT	64	Pstat Model
PSTATSECTION	LABEL	IFC1010-21051	Pstat Section
PSTATSERIALNO	LABEL	21051	Pstat Serial Number
CTRLMODE	IQUANT	1	Control Mode
ELECTROMETER	IQUANT	0	RE=0 or CS=1
IESTAB	IQUANT	0	I/E Stability
CASPEED	IQUANT	4	Control Amp Speed
CONVENTION	IQUANT	1	Current Convention
ICHRANGE	IQUANT	2	Ich Range
ICHRANGEMODE	TOGGLE	T	Ich Auto Range
ICHOFFSETENABLE	TOGGLE	F	Ich Offset Enable
ICHOFFSET	QUANT	0	Ich Offset (V)
ICHFILTER	IQUANT	3	Ich Filter
VCHRANGE	IQUANT	3	Vch Range
VCHRANGEMODE	TOGGLE	T	Vch Auto Range
VCHOFFSETENABLE	TOGGLE	F	Vch Offset Enable
VCHOFFSET	QUANT	0	Vch Offset (V)
VCHFILTER	IQUANT	3	Vch Filter
IERANGELOWERLIMIT	IQUANT	4	I/E Range Lower Limit
IERANGEMODE	TOGGLE	F	I/E AutoRange
IERANGE	IQUANT	9	I/E Range
ACHSELECT	IQUANT	0	Ach Select
ACHRANGE	IQUANT	2	Ach Range
ACHOFFSETENABLE	TOGGLE	F	Ach Offset Enable
ACHOFFSET	QUANT	0	Ach Offset (V)
ACHFILTER	IQUANT	1	Ach Filter
SENSECABLEID	IQUANT	14	Sense Cable ID
PWRCABLEID	IQUANT	14	Power Cable ID
DCCALDATE	LABEL	10/1/2020	DC Calibration Date
ACCALDATE	LABEL	4/2/2018	AC Calibration Date
FRAMEWORKVERSION	QUANT	7.06	Framework Version
INSTRUMENTVERSION	LABEL	4.30	Instrument Version
CURVE	TABLE	98
	Pt	T	Vf	Im	Vu	Sig	Ach	IERange	Over	Temp
	#	s	V vs. Ref.	A	V	V	V	#	bits	deg C
	0	-0.4	-4.48579E-004	-9.46861E-006	0.00000E+000	-6.72489E-005	0.00000E+000	9	...........	1425.95
	1	-0.3	-2.36473E-004	-9.42106E-006	0.00000E+000	-6.72489E-005	0.00000E+000	9	...........	1425.95
	2	-0.2	-1.83827E-004	-9.38589E-006	0.00000E+000	-6.72489E-005	0.00000E+000	9	...........	1425.95
	3	-0.1	-1.77736E-004	-9.32479E-006	0.00000E+000	-6.72489E-005	0.00000E+000	9	...........	1425.95
	4	0	-1.78941E-004	-9.28982E-006	0.00000E+000	-6.72489E-005	0.00000E+000	9	...........	1425.95
	5	0.1	-3.29021E-002	-1.28186E-004	0.00000E+000	-2.00066E-001	0.00000E+000	9	.........v.	1425.95
	6	0.2	-2.00217E-001	-1.00375E-004	0.00000E+000	-2.00066E-001	0.00000E+000	9	...........	1425.95
	7	0.3	-2.00214E-001	-8.92155E-005	0.00000E+000	-2.00066E-001	0.00000E+000	9	...........	1425.95
	8	0.4	-2.00215E-001	-8.22161E-005	0.00000E+000	-2.00066E-001	0.00000E+000	9	...........	1425.95
	9	0.5	-2.00214E-001	-7.74488E-005	0.00000E+000	-2.00066E-001	0.00000E+000	9	...........	1425.95
	10	0.6	-2.00214E-001	-7.33141E-005	0.00000E+000	-2.00066E-001	0.00000E+000	9	...........	1425.95
	11	0.7	-2.00212E-001	-7.03361E-005	0.00000E+000	-2.00066E-001	0.00000E+000	9	...........	1425.78
	12	0.8	-2.00213E-001	-6.76690E-005	0.00000E+000	-2.00066E-001	0.00000E+000	9	...........	1425.78
	13	0.9	-2.00213E-001	-6.53390E-005	0.00000E+000	-2.00066E-001	0.00000E+000	9	...........	1425.78
	14	1	-2.00214E-001	-6.32601E-005	0.00000E+000	-2.00066E-001	0.00000E+000	9	...........	1425.78
	15	1.1	-2.00215E-001	-6.13997E-005	0.00000E+000	-2.00066E-001	0.00000E+000	9	...........	1425.78
	16	1.2	-2.00215E-001	-5.97827E-005	0.00000E+000	-2.00066E-001	0.00000E+000	9	...........	1425.78
	17	1.3	-2.00214E-001	-5.84514E-005	0.00000E+000	-2.00066E-001	0.00000E+000	9	...........	1425.78
	18	1.4	-2.00214E-001	-5.73111E-005	0.00000E+000	-2.00066E-001	0.00000E+000	9	...........	1425.78
	19	1.5	-2.00214E-001	-5.61405E-005	0.00000E+000	-2.00066E-001	0.00000E+000	9	...........	1425.78
	20	1.6	-2.00213E-001	-5.50088E-005	0.00000E+000	-2.00066E-001	0.00000E+000	9	...........	1425.78
	21	1.7	-2.00214E-001	-5.41336E-005	0.00000E+000	-2.00066E-001	0.00000E+000	9	...........	1426.13
	22	1.8	-2.00214E-001	-5.34066E-005	0.00000E+000	-2.00066E-001	0.00000E+000	9	...........	1426.13
	23	1.9	-2.00213E-001	-5.25723E-005	0.00000E+000	-2.00066E-001	0.00000E+000	9	...........	1426.13
	24	2	-2.00213E-001	-5.18907E-005	0.00000E+000	-2.00066E-001	0.00000E+000	9	...........	1426.13
	25	2.1	-2.00215E-001	-5.12344E-005	0.00000E+000	-2.00066E-001	0.00000E+000	9	...........	1426.13
	26	2.2	-2.00213E-001	-5.06188E-005	0.00000E+000	-2.00066E-001	0.00000E+000	9	...........	1426.13
	27	2.3	-2.00212E-001	-5.00543E-005	0.00000E+000	-2.00066E-001	0.00000E+000	9	...........	1426.13
	28	2.4	-2.00212E-001	-4.93492E-005	0.00000E+000	-2.00066E-001	0.00000E+000	9	...........	1426.13
	29	2.5	-2.00214E-001	-4.87987E-005	0.00000E+000	-2.00066E-001	0.00000E+000	9	...........	1426.13
	30	2.6	-2.00213E-001	-4.83292E-005	0.00000E+000	-2.00066E-001	0.00000E+000	9	...........	1426.13
	31	2.7	-2.00213E-001	-4.79360E-005	0.00000E+000	-2.00066E-001	0.00000E+000	9	...........	1426.13
	32	2.8	-2.00213E-001	-4.74472E-005	0.00000E+000	-2.00066E-001	0.00000E+000	9	...........	1426.13
	33	2.9	-2.00212E-001	-4.70715E-005	0.00000E+000	-2.00066E-001	0.00000E+000	9	...........	1426.13
	34	3	-2.00214E-001	-4.67957E-005	0.00000E+000	-2.00066E-001	0.00000E+000	9	...........	1426.13
	35	3.1	-2.00214E-001	-4.63477E-005	0.00000E+000	-2.00066E-001	0.00000E+000	9	...........	1426.13
	36	3.2	-2.00213E-001	-4.58268E-005	0.00000E+000	-2.00066E-001	0.00000E+000	9	...........	1426.13
	37	3.3	-2.00212E-001	-4.55375E-005	0.00000E+000	-2.00066E-001	0.00000E+000	9	...........	1426.13
	38	3.4	-2.00214E-001	-4.52936E-005	0.00000E+000	-2.00066E-001	0.00000E+000	9	...........	1426.13
	39	3.5	-2.00215E-001	-4.49591E-005	0.00000E+000	-2.00066E-001	0.00000E+000	9	...........	1426.13
	40	3.6	-2.00213E-001	-4.47250E-005	0.00000E+000	-2.00066E-001	0.00000E+000	9	...........	1426.13
	41	3.7	-2.00214E-001	-4.45138E-005	0.00000E+000	-2.00066E-001	0.00000E+000	9	...........	1426.13
	42	3.8	-2.00214E-001	-4.43797E-005	0.00000E+000	-2.00066E-001	0.00000E+000	9	...........	1426.13
	43	3.9	-2.00215E-001	-4.41684E-005	0.00000E+000	-2.00066E-001	0.00000E+000	9	...........	1426.13
	44	4	-2.00215E-001	-4.38171E-005	0.00000E+000	-2.00066E-001	0.00000E+000	9	...........	1426.13
	45	4.1	-2.00214E-001	-4.35243E-005	0.00000E+000	-2.00066E-001	0.00000E+000	9	...........	1426.13
	46	4.2	-2.00214E-001	-4.33705E-005	0.00000E+000	-2.00066E-001	0.00000E+000	9	...........	1426.13
	47	4.3	-2.00215E-001	-4.28642E-005	0.00000E+000	-2.00066E-001	0.00000E+000	9	...........	1426.13
	48	4.4	-2.00214E-001	-4.28394E-005	0.00000E+000	-2.00066E-001	0.00000E+000	9	...........	1426.13
	49	4.5	-2.00214E-001	-4.24456E-005	0.00000E+000	-2.00066E-001	0.00000E+000	9	...........	1426.13
	50	4.6	-2.00214E-001	-4.21874E-005	0.00000E+000	-2.00066E-001	0.00000E+000	9	...........	1426.13
	51	4.7	-2.00215E-001	-4.21517E-005	0.00000E+000	-2.00066E-001	0.00000E+000	9	...........	1425.69
	52	4.8	-2.00215E-001	-4.18299E-005	0.00000E+000	-2.00066E-001	0.00000E+000	9	...........	1425.69
	53	4.9	-2.00214E-001	-4.14665E-005	0.00000E+000	-2.00066E-001	0.00000E+000	9	...........	1425.69
	54	5	-2.00214E-001	-4.11914E-005	0.00000E+000	-2.00066E-001	0.00000E+000	9	...........	1425.69
	55	5.1	-2.00214E-001	-4.10008E-005	0.00000E+000	-2.00066E-001	0.00000E+000	9	...........	1425.69
	56	5.2	-2.00212E-001	-4.08452E-005	0.00000E+000	-2.00066E-001	0.00000E+000	9	...........	1425.69
	57	5.3	-2.00214E-001	-4.07662E-005	0.00000E+000	-2.00066E-001	0.00000E+000	9	...........	1425.69
	58	5.4	-2.00216E-001	-4.06922E-005	0.00000E+000	-2.00066E-001	0.00000E+000	9	...........	1425.69
	59	5.5	-2.00213E-001	-4.06032E-005	0.00000E+000	-2.00066E-001	0.00000E+000	9	...........	1425.69
	60	5.6	-2.00216E-001	-4.04317E-005	0.00000E+000	-2.00066E-001	0.00000E+000	9	...........	1425.69
	61	5.7	-2.00215E-001	-4.01335E-005	0.00000E+000	-2.00066E-001	0.00000E+000	9	...........	1426.13
	62	5.8	-2.00216E-001	-4.01630E-005	0.00000E+000	-2.00066E-001	0.00000E+000	9	...........	1426.13
	63	5.9	-2.00214E-001	-4.00421E-005	0.00000E+000	-2.00066E-001	0.00000E+000	9	...........	1426.13
	64	6	-2.00214E-001	-3.99981E-005	0.00000E+000	-2.00066E-001	0.00000E+000	9	...........	1426.13
	65	6.1	-2.00213E-001	-3.96604E-005	0.00000E+000	-2.00066E-001	0.00000E+000	9	...........	1426.13
	66	7.1	-2.00215E-001	-3.87023E-005	0.00000E+000	-2.00066E-001	0.00000E+000	9	...........	1426.13
	67	8.1	-2.00215E-001	-3.76034E-005	0.00000E+000	-2.00066E-001	0.00000E+000	9	...........	1426.13
	68	9.1	-2.00214E-001	-3.63633E-005	0.00000E+000	-2.00066E-001	0.00000E+000	9	...........	1426.22
	69	10.1	-2.00214E-001	-3.59738E-005	0.00000E+000	-2.00066E-001	0.00000E+000	9	...........	1426.22
	70	11.1	-2.00218E-001	-3.54951E-005	0.00000E+000	-2.00066E-001	0.00000E+000	9	...........	1426.22
	71	12.1	-2.00215E-001	-3.50566E-005	0.00000E+000	-2.00066E-001	0.00000E+000	9	...........	1426.13
	72	13.1	-2.00213E-001	-3.44599E-005	0.00000E+000	-2.00066E-001	0.00000E+000	9	...........	1426.22
	73	14.1	-2.00214E-001	-3.44993E-005	0.00000E+000	-2.00066E-001	0.00000E+000	9	...........	1426.22
	74	15.1	-2.00216E-001	-3.40574E-005	0.00000E+000	-2.00066E-001	0.00000E+000	9	...........	1426.22
	75	16.1	-2.00217E-001	-3.37619E-005	0.00000E+000	-2.00066E-001	0.00000E+000	9	...........	1426.13
	76	26.1	-2.00215E-001	-3.09235E-005	0.00000E+000	-2.00066E-001	0.00000E+000	9	...........	1426.22
	77	36.1	-2.00216E-001	-2.86940E-005	0.00000E+000	-2.00066E-001	0.00000E+000	9	...........	1426.22
	78	46.1	-2.00217E-001	-2.74748E-005	0.00000E+000	-2.00066E-001	0.00000E+000	9	...........	1426.13
	79	56.1	-2.00215E-001	-2.58144E-005	0.00000E+000	-2.00066E-001	0.00000E+000	9	...........	1426.13
	80	66.1	-2.00216E-001	-2.50356E-005	0.00000E+000	-2.00066E-001	0.00000E+000	9	...........	1426.22
	81	76.1	-2.00217E-001	-2.42964E-005	0.00000E+000	-2.00066E-001	0.00000E+000	9	...........	1426.13
	82	86.1	-2.00215E-001	-2.31351E-005	0.00000E+000	-2.00066E-001	0.00000E+000	9	...........	1426.13
	83	96.1	-2.00213E-001	-2.29402E-005	0.00000E+000	-2.00066E-001	0.00000E+000	9	...........	1426.13
	84	106.1	-2.00215E-001	-2.19561E-005	0.00000E+000	-2.00066E-001	0.00000E+000	9	...........	1426.22
	85	116.1	-2.00216E-001	-2.16526E-005	0.00000E+000	-2.00066E-001	0.00000E+000	9	...........	1426.22
	86	216.1	-2.00216E-001	-1.88375E-005	0.00000E+000	-2.00066E-001	0.00000E+000	9	...........	1426.22
	87	300	-2.00214E-001	-1.75570E-005	0.00000E+000	-2.00066E-001	0.00000E+000	9	...........	1426.13
	88	300.1	-3.00219E-001	-1.45003E-004	0.00000E+000	-3.00066E-001	0.00000E+000	9	...........	1426.13
	89	300.2	-3.00276E-001	-1.23670E-004	0.00000E+000	-3.00066E-001	0.00000E+000	9	...........	1426.13
	90	300.3	-3.00278E-001	-1.11066E-004	0.00000E+000	-3.00066E-001	0.00000E+000	9	...........	1426.13
	91	300.4	-3.00274E-001	-1.02570E-004	0.00000E+000	-3.00066E-001	0.00000E+000	9	...........	1426.13
	92	300.5	-3.00274E-001	-9.66463E-005	0.00000E+000	-3.00066E-001	0.00000E+000	9	...........	1426.13
	93	300.6	-3.00282E-001	-9.23461E-005	0.00000E+000	-3.00066E-001	0.00000E+000	9	...........	1426.13
	94	300.7	-3.00285E-001	-8.92154E-005	0.00000E+000	-3.00066E-001	0.00000E+000	9	...........	1426.13
	95	300.8	-3.00272E-001	-8.67694E-005	0.00000E+000	-3.00066E-001	0.00000E+000	9	...........	1426.13
	96	300.9	-3.00271E-001	-8.47153E-005	0.00000E+000	-3.00066E-001	0.00000E+000	9	...........	1426.13
	97	301	-3.00266E-001	-8.30764E-005	0.00000E+000	-3.00066E-001	0.00000E+000	9	...........	1426.13
