EXPLAIN
TAG	CHRONOA
TITLE	LABEL	Chronoamperometry Scan	Test Identifier
DATE	LABEL	20/12/2021	Date
TIME	LABEL	10:53:05	Time
NOTES	NOTES	1	Notes...
	
PSTAT	PSTAT	IFC1010-21051	Potentiostat
VPRESTEP	POTEN	1.00000E-001	F	Pre-step Voltage (V)
TPRESTEP	QUANT	5.00000E-001	Pre-step Delay Time (s)
VSTEP1	POTEN	0.00000E+000	F	Step 1 Voltage (V)
TSTEP1	QUANT	6.00000E+001	Step 1 Time (s)
VSTEP2	POTEN	1.00000E-001	F	Step 2 Voltage (V)
TSTEP2	QUANT	1.00000E+000	Step 2 Time (s)
SAMPLETIME	QUANT	1.00000E-002	Sample Period (s)
DECIMATE	TOGGLE	T	Decimate
ILIMIT	QUANT	1.00000E+000	Limit I (mA/cm^2)
IMODE	SELECTOR	1	I/E Range Mode
IRANGE	QUANT	3.00000E-001	Max Current (mA)
EQDELAY	QUANT	5.00000E+000	Equil. Time (s)
SAMPLINGMODE	SELECTOR	1	Sampling Mode
AREA	QUANT	1.00000E+000	Sample Area (cm^2)
IRCOMP	SELECTOR	0	IRComp
PFCOR	QUANT	5.00000E+001	PF Corr. (ohm)
SEQUENCER	TOGGLE	TRUE	Run as Sequence
PSTATMODEL	IQUANT	64	Pstat Model
PSTATSECTION	LABEL	IFC1010-21051	Pstat Section
PSTATSERIALNO	LABEL	21051	Pstat Serial Number
CTRLMODE	IQUANT	1	Control Mode
ELECTROMETER	IQUANT	0	RE=0 or CS=1
IESTAB	IQUANT	0	I/E Stability
CASPEED	IQUANT	4	Control Amp Speed
CONVENTION	IQUANT	1	Current Convention
ICHRANGE	IQUANT	2	Ich Range
ICHRANGEMODE	TOGGLE	T	Ich Auto Range
ICHOFFSETENABLE	TOGGLE	F	Ich Offset Enable
ICHOFFSET	QUANT	0	Ich Offset (V)
ICHFILTER	IQUANT	3	Ich Filter
VCHRANGE	IQUANT	3	Vch Range
VCHRANGEMODE	TOGGLE	T	Vch Auto Range
VCHOFFSETENABLE	TOGGLE	F	Vch Offset Enable
VCHOFFSET	QUANT	0	Vch Offset (V)
VCHFILTER	IQUANT	3	Vch Filter
IERANGELOWERLIMIT	IQUANT	4	I/E Range Lower Limit
IERANGEMODE	TOGGLE	F	I/E AutoRange
IERANGE	IQUANT	9	I/E Range
ACHSELECT	IQUANT	0	Ach Select
ACHRANGE	IQUANT	2	Ach Range
ACHOFFSETENABLE	TOGGLE	F	Ach Offset Enable
ACHOFFSET	QUANT	0	Ach Offset (V)
ACHFILTER	IQUANT	1	Ach Filter
SENSECABLEID	IQUANT	14	Sense Cable ID
PWRCABLEID	IQUANT	14	Power Cable ID
DCCALDATE	LABEL	10/1/2020	DC Calibration Date
ACCALDATE	LABEL	4/2/2018	AC Calibration Date
FRAMEWORKVERSION	QUANT	7.06	Framework Version
INSTRUMENTVERSION	LABEL	4.30	Instrument Version
CURVE	TABLE	201
	Pt	T	Vf	Im	Vu	Sig	Ach	IERange	Over	Temp
	#	s	V vs. Ref.	A	V	V	V	#	bits	deg C
	0	-0.49	9.97392E-002	-3.22083E-005	0.00000E+000	9.99387E-002	0.00000E+000	9	...........	1425.34
	1	-0.48	9.99472E-002	-3.01147E-005	0.00000E+000	9.99387E-002	0.00000E+000	9	...........	1425.34
	2	-0.47	9.99984E-002	-3.21251E-005	0.00000E+000	9.99387E-002	0.00000E+000	9	...........	1425.34
	3	-0.46	9.99984E-002	-3.00138E-005	0.00000E+000	9.99387E-002	0.00000E+000	9	...........	1425.34
	4	-0.45	9.99988E-002	-3.20147E-005	0.00000E+000	9.99387E-002	0.00000E+000	9	...........	1425.34
	5	-0.44	9.99980E-002	-2.98934E-005	0.00000E+000	9.99387E-002	0.00000E+000	9	...........	1425.34
	6	-0.43	9.99989E-002	-3.19155E-005	0.00000E+000	9.99387E-002	0.00000E+000	9	...........	1425.34
	7	-0.42	9.99998E-002	-2.98194E-005	0.00000E+000	9.99387E-002	0.00000E+000	9	...........	1425.34
	8	-0.41	9.99997E-002	-3.18056E-005	0.00000E+000	9.99387E-002	0.00000E+000	9	...........	1425.34
	9	-0.4	9.99993E-002	-2.97360E-005	0.00000E+000	9.99387E-002	0.00000E+000	9	...........	1425.34
	10	-0.39	1.00001E-001	-3.17094E-005	0.00000E+000	9.99387E-002	0.00000E+000	9	...........	1425.34
	11	-0.38	1.00003E-001	-2.96559E-005	0.00000E+000	9.99387E-002	0.00000E+000	9	...........	1425.34
	12	-0.37	1.00003E-001	-3.15885E-005	0.00000E+000	9.99387E-002	0.00000E+000	9	...........	1425.34
	13	-0.36	9.99991E-002	-2.95953E-005	0.00000E+000	9.99387E-002	0.00000E+000	9	...........	1425.34
	14	-0.35	1.00003E-001	-3.14739E-005	0.00000E+000	9.99387E-002	0.00000E+000	9	...........	1425.34
	15	-0.34	1.00001E-001	-2.94980E-005	0.00000E+000	9.99387E-002	0.00000E+000	9	...........	1425.34
	16	-0.33	1.00000E-001	-3.13680E-005	0.00000E+000	9.99387E-002	0.00000E+000	9	...........	1425.34
	17	-0.32	1.00000E-001	-2.93962E-005	0.00000E+000	9.99387E-002	0.00000E+000	9	...........	1425.34
	18	-0.31	1.00002E-001	-3.12517E-005	0.00000E+000	9.99387E-002	0.00000E+000	9	...........	1425.34
	19	-0.3	1.00001E-001	-2.93389E-005	0.00000E+000	9.99387E-002	0.00000E+000	9	...........	1425.34
	20	-0.29	1.00002E-001	-3.11352E-005	0.00000E+000	9.99387E-002	0.00000E+000	9	...........	1425.34
	21	-0.28	9.99984E-002	-2.92349E-005	0.00000E+000	9.99387E-002	0.00000E+000	9	...........	1425.34
	22	-0.27	1.00001E-001	-3.10540E-005	0.00000E+000	9.99387E-002	0.00000E+000	9	...........	1425.34
	23	-0.26	9.99999E-002	-2.91270E-005	0.00000E+000	9.99387E-002	0.00000E+000	9	...........	1425.34
	24	-0.25	1.00001E-001	-3.09492E-005	0.00000E+000	9.99387E-002	0.00000E+000	9	...........	1425.34
	25	-0.24	1.00000E-001	-2.90383E-005	0.00000E+000	9.99387E-002	0.00000E+000	9	...........	1425.34
	26	-0.23	1.00000E-001	-3.08747E-005	0.00000E+000	9.99387E-002	0.00000E+000	9	...........	1425.34
	27	-0.22	9.99991E-002	-2.89560E-005	0.00000E+000	9.99387E-002	0.00000E+000	9	...........	1425.34
	28	-0.21	1.00000E-001	-3.07949E-005	0.00000E+000	9.99387E-002	0.00000E+000	9	...........	1425.34
	29	-0.2	1.00001E-001	-2.88484E-005	0.00000E+000	9.99387E-002	0.00000E+000	9	...........	1425.34
	30	-0.19	9.99999E-002	-3.07065E-005	0.00000E+000	9.99387E-002	0.00000E+000	9	...........	1425.34
	31	-0.18	1.00002E-001	-2.87361E-005	0.00000E+000	9.99387E-002	0.00000E+000	9	...........	1425.34
	32	-0.17	1.00000E-001	-3.06197E-005	0.00000E+000	9.99387E-002	0.00000E+000	9	...........	1425.34
	33	-0.16	1.00001E-001	-2.86332E-005	0.00000E+000	9.99387E-002	0.00000E+000	9	...........	1425.34
	34	-0.15	9.99999E-002	-3.05435E-005	0.00000E+000	9.99387E-002	0.00000E+000	9	...........	1425.34
	35	-0.14	9.99982E-002	-2.85590E-005	0.00000E+000	9.99387E-002	0.00000E+000	9	...........	1425.34
	36	-0.13	9.99984E-002	-3.04567E-005	0.00000E+000	9.99387E-002	0.00000E+000	9	...........	1425.34
	37	-0.12	9.99975E-002	-2.84508E-005	0.00000E+000	9.99387E-002	0.00000E+000	9	...........	1425.34
	38	-0.11	1.00002E-001	-3.03728E-005	0.00000E+000	9.99387E-002	0.00000E+000	9	...........	1425.34
	39	-0.1	9.99981E-002	-2.83499E-005	0.00000E+000	9.99387E-002	0.00000E+000	9	...........	1425.34
	40	-0.09	1.00001E-001	-3.02869E-005	0.00000E+000	9.99387E-002	0.00000E+000	9	...........	1425.34
	41	-0.08	1.00003E-001	-2.82739E-005	0.00000E+000	9.99387E-002	0.00000E+000	9	...........	1425.34
	42	-0.07	1.00002E-001	-3.01929E-005	0.00000E+000	9.99387E-002	0.00000E+000	9	...........	1425.34
	43	-0.06	9.99978E-002	-2.81972E-005	0.00000E+000	9.99387E-002	0.00000E+000	9	...........	1425.34
	44	-0.05	9.99994E-002	-3.01014E-005	0.00000E+000	9.99387E-002	0.00000E+000	9	...........	1425.34
	45	-0.04	1.00001E-001	-2.81085E-005	0.00000E+000	9.99387E-002	0.00000E+000	9	...........	1425.34
	46	-0.03	1.00000E-001	-3.00121E-005	0.00000E+000	9.99387E-002	0.00000E+000	9	...........	1425.34
	47	-0.02	1.00001E-001	-2.80337E-005	0.00000E+000	9.99387E-002	0.00000E+000	9	...........	1425.34
	48	-0.01	9.99987E-002	-2.98898E-005	0.00000E+000	9.99387E-002	0.00000E+000	9	...........	1425.34
	49	0	1.00001E-001	-2.79795E-005	0.00000E+000	9.99387E-002	0.00000E+000	9	...........	1425.34
	50	0.01	-9.39014E-006	-5.50721E-004	0.00000E+000	-6.08154E-005	0.00000E+000	9	...........	1425.34
	51	0.02	-1.03840E-005	-5.04020E-004	0.00000E+000	-6.08154E-005	0.00000E+000	9	...........	1425.34
	52	0.03	-1.13686E-005	-4.71463E-004	0.00000E+000	-6.08154E-005	0.00000E+000	9	...........	1425.34
	53	0.04	-1.08763E-005	-4.40199E-004	0.00000E+000	-6.08154E-005	0.00000E+000	9	...........	1425.34
	54	0.05	-1.54403E-005	-4.15988E-004	0.00000E+000	-6.08154E-005	0.00000E+000	9	...........	1425.34
	55	0.06	-1.54319E-005	-3.90928E-004	0.00000E+000	-6.08154E-005	0.00000E+000	9	...........	1425.34
	56	0.07	-1.42388E-005	-3.71679E-004	0.00000E+000	-6.08154E-005	0.00000E+000	9	...........	1425.34
	57	0.08	-1.09681E-005	-3.50881E-004	0.00000E+000	-6.08154E-005	0.00000E+000	9	...........	1425.34
	58	0.09	-1.11433E-005	-3.35284E-004	0.00000E+000	-6.08154E-005	0.00000E+000	9	...........	1425.34
	59	0.1	-1.46643E-005	-3.17789E-004	0.00000E+000	-6.08154E-005	0.00000E+000	9	...........	1425.34
	60	0.11	-1.24616E-005	-3.05025E-004	0.00000E+000	-6.08154E-005	0.00000E+000	9	...........	1425.34
	61	0.12	-1.58658E-005	-2.90133E-004	0.00000E+000	-6.08154E-005	0.00000E+000	9	...........	1425.34
	62	0.13	-1.57907E-005	-2.79607E-004	0.00000E+000	-6.08154E-005	0.00000E+000	9	...........	1425.34
	63	0.14	-1.35880E-005	-2.66831E-004	0.00000E+000	-6.08154E-005	0.00000E+000	9	...........	1425.34
	64	0.15	-1.23281E-005	-2.58107E-004	0.00000E+000	-6.08154E-005	0.00000E+000	9	...........	1425.34
	65	0.16	-1.36631E-005	-2.47047E-004	0.00000E+000	-6.08154E-005	0.00000E+000	9	...........	1425.34
	66	0.17	-1.03340E-005	-2.39791E-004	0.00000E+000	-6.08154E-005	0.00000E+000	9	...........	1425.34
	67	0.18	-1.51315E-005	-2.30170E-004	0.00000E+000	-6.08154E-005	0.00000E+000	9	...........	1425.34
	68	0.19	-1.25117E-005	-2.24101E-004	0.00000E+000	-6.08154E-005	0.00000E+000	9	...........	1425.34
	69	0.2	-1.26535E-005	-2.15638E-004	0.00000E+000	-6.08154E-005	0.00000E+000	9	...........	1425.34
	70	0.21	-1.39384E-005	-2.10543E-004	0.00000E+000	-6.08154E-005	0.00000E+000	9	...........	1425.34
	71	0.22	-1.28454E-005	-2.03089E-004	0.00000E+000	-6.08154E-005	0.00000E+000	9	...........	1425.34
	72	0.23	-1.15438E-005	-1.98788E-004	0.00000E+000	-6.08154E-005	0.00000E+000	9	...........	1425.34
	73	0.24	-1.58992E-005	-1.92183E-004	0.00000E+000	-6.08154E-005	0.00000E+000	9	...........	1425.34
	74	0.25	-1.11016E-005	-1.88544E-004	0.00000E+000	-6.08154E-005	0.00000E+000	9	...........	1425.34
	75	0.26	-1.27953E-005	-1.82605E-004	0.00000E+000	-6.08154E-005	0.00000E+000	9	...........	1425.34
	76	0.27	-1.30957E-005	-1.79521E-004	0.00000E+000	-6.08154E-005	0.00000E+000	9	...........	1425.34
	77	0.28	-1.33877E-005	-1.74224E-004	0.00000E+000	-6.08154E-005	0.00000E+000	9	...........	1425.34
	78	0.29	-1.08096E-005	-1.71560E-004	0.00000E+000	-6.08154E-005	0.00000E+000	9	...........	1425.34
	79	0.3	-1.45642E-005	-1.66772E-004	0.00000E+000	-6.08154E-005	0.00000E+000	9	...........	1425.34
	80	0.31	-1.54569E-005	-1.64510E-004	0.00000E+000	-6.08154E-005	0.00000E+000	9	...........	1425.34
	81	0.32	-1.43639E-005	-1.60154E-004	0.00000E+000	-6.08154E-005	0.00000E+000	9	...........	1425.34
	82	0.33	-1.35796E-005	-1.58192E-004	0.00000E+000	-6.08154E-005	0.00000E+000	9	...........	1425.34
	83	0.34	-1.55821E-005	-1.54253E-004	0.00000E+000	-6.08154E-005	0.00000E+000	9	...........	1425.34
	84	0.35	-1.30790E-005	-1.52530E-004	0.00000E+000	-6.08154E-005	0.00000E+000	9	...........	1425.34
	85	0.36	-1.64415E-005	-1.48915E-004	0.00000E+000	-6.08154E-005	0.00000E+000	9	...........	1425.34
	86	0.37	-1.22697E-005	-1.47405E-004	0.00000E+000	-6.08154E-005	0.00000E+000	9	...........	1425.34
	87	0.38	-1.09013E-005	-1.44081E-004	0.00000E+000	-6.08154E-005	0.00000E+000	9	...........	1425.34
	88	0.39	-1.27453E-005	-1.42788E-004	0.00000E+000	-6.08154E-005	0.00000E+000	9	...........	1425.34
	89	0.4	-1.17440E-005	-1.39715E-004	0.00000E+000	-6.08154E-005	0.00000E+000	9	...........	1425.34
	90	0.41	-9.60808E-006	-1.38577E-004	0.00000E+000	-6.08154E-005	0.00000E+000	9	...........	1425.34
	91	0.42	-1.45308E-005	-1.35730E-004	0.00000E+000	-6.08154E-005	0.00000E+000	9	...........	1425.34
	92	0.43	-1.58908E-005	-1.34774E-004	0.00000E+000	-6.08154E-005	0.00000E+000	9	...........	1425.34
	93	0.44	-1.27119E-005	-1.32047E-004	0.00000E+000	-6.08154E-005	0.00000E+000	9	...........	1425.34
	94	0.45	-1.38299E-005	-1.31247E-004	0.00000E+000	-6.08154E-005	0.00000E+000	9	...........	1425.34
	95	0.46	-1.53401E-005	-1.28688E-004	0.00000E+000	-6.08154E-005	0.00000E+000	9	...........	1425.34
	96	0.47	-1.27036E-005	-1.27974E-004	0.00000E+000	-6.08154E-005	0.00000E+000	9	...........	1425.34
	97	0.48	-1.17858E-005	-1.25551E-004	0.00000E+000	-6.08154E-005	0.00000E+000	9	...........	1425.34
	98	0.49	-1.10932E-005	-1.24976E-004	0.00000E+000	-6.08154E-005	0.00000E+000	9	...........	1425.34
	99	0.5	-1.34795E-005	-1.22695E-004	0.00000E+000	-6.08154E-005	0.00000E+000	9	...........	1425.34
	100	0.51	-1.20110E-005	-1.22194E-004	0.00000E+000	-6.08154E-005	0.00000E+000	9	...........	1425.34
	101	0.52	-1.33043E-005	-1.20009E-004	0.00000E+000	-6.08154E-005	0.00000E+000	9	...........	1425.34
	102	0.53	-1.18775E-005	-1.19600E-004	0.00000E+000	-6.08154E-005	0.00000E+000	9	...........	1425.34
	103	0.54	-1.36965E-005	-1.17492E-004	0.00000E+000	-6.08154E-005	0.00000E+000	9	...........	1425.34
	104	0.55	-1.41220E-005	-1.17148E-004	0.00000E+000	-6.08154E-005	0.00000E+000	9	...........	1425.34
	105	0.56	-1.40218E-005	-1.15124E-004	0.00000E+000	-6.08154E-005	0.00000E+000	9	...........	1425.34
	106	0.57	-1.14937E-005	-1.14866E-004	0.00000E+000	-6.08154E-005	0.00000E+000	9	...........	1425.34
	107	0.58	-1.27703E-005	-1.12928E-004	0.00000E+000	-6.08154E-005	0.00000E+000	9	...........	1425.34
	108	0.59	-1.34211E-005	-1.12709E-004	0.00000E+000	-6.08154E-005	0.00000E+000	9	...........	1425.34
	109	0.6	-1.35713E-005	-1.10858E-004	0.00000E+000	-6.08154E-005	0.00000E+000	9	...........	1425.34
	110	0.61	-1.27703E-005	-1.10686E-004	0.00000E+000	-6.08154E-005	0.00000E+000	9	...........	1425.34
	111	0.71	-1.12101E-005	-1.02007E-004	0.00000E+000	-6.08154E-005	0.00000E+000	9	...........	1425.34
	112	0.81	-1.09597E-005	-9.50946E-005	0.00000E+000	-6.08154E-005	0.00000E+000	9	...........	1424.98
	113	0.91	-1.24616E-005	-8.93853E-005	0.00000E+000	-6.08154E-005	0.00000E+000	9	...........	1424.98
	114	1.01	-1.37131E-005	-8.44936E-005	0.00000E+000	-6.08154E-005	0.00000E+000	9	...........	1424.98
	115	1.11	-1.48145E-005	-8.03065E-005	0.00000E+000	-6.08154E-005	0.00000E+000	9	...........	1424.98
	116	1.21	-1.08680E-005	-7.66377E-005	0.00000E+000	-6.08154E-005	0.00000E+000	9	...........	1424.98
	117	1.31	-1.36464E-005	-7.33858E-005	0.00000E+000	-6.08154E-005	0.00000E+000	9	...........	1424.98
	118	1.41	-1.42304E-005	-7.04088E-005	0.00000E+000	-6.08154E-005	0.00000E+000	9	...........	1424.98
	119	1.51	-1.32209E-005	-6.77296E-005	0.00000E+000	-6.08154E-005	0.00000E+000	9	...........	1424.98
	120	1.61	-1.29205E-005	-6.52435E-005	0.00000E+000	-6.08154E-005	0.00000E+000	9	...........	1424.98
	121	2.61	-1.26952E-005	-4.72799E-005	0.00000E+000	-6.08154E-005	0.00000E+000	9	...........	1425.60
	122	3.61	-1.50064E-005	-3.65475E-005	0.00000E+000	-6.08154E-005	0.00000E+000	9	...........	1425.60
	123	4.61	-1.41971E-005	-3.07042E-005	0.00000E+000	-6.08154E-005	0.00000E+000	9	...........	1425.69
	124	5.61	-1.40469E-005	-2.60152E-005	0.00000E+000	-6.08154E-005	0.00000E+000	9	...........	1425.69
	125	6.61	-1.75512E-005	-2.33544E-005	0.00000E+000	-6.08154E-005	0.00000E+000	9	...........	1425.69
	126	7.61	-1.37715E-005	-2.15492E-005	0.00000E+000	-6.08154E-005	0.00000E+000	9	...........	1425.69
	127	8.61	-1.37298E-005	-1.88036E-005	0.00000E+000	-6.08154E-005	0.00000E+000	9	...........	1425.60
	128	9.61	-1.41470E-005	-1.72890E-005	0.00000E+000	-6.08154E-005	0.00000E+000	9	...........	1425.69
	129	10.61	-9.05741E-006	-1.47686E-005	0.00000E+000	-6.08154E-005	0.00000E+000	9	...........	1425.60
	130	11.61	-1.27787E-005	-1.30877E-005	0.00000E+000	-6.08154E-005	0.00000E+000	9	...........	1425.60
	131	21.61	-1.32960E-005	-9.03326E-006	0.00000E+000	-6.08154E-005	0.00000E+000	9	...........	1425.60
	132	31.61	-1.05259E-005	-6.25400E-006	0.00000E+000	-6.08154E-005	0.00000E+000	9	...........	1425.60
	133	41.61	-1.31708E-005	-4.88314E-006	0.00000E+000	-6.08154E-005	0.00000E+000	9	...........	1425.60
	134	51.61	-1.66501E-005	-4.55085E-006	0.00000E+000	-6.08154E-005	0.00000E+000	9	...........	1425.60
	135	60	-1.05676E-005	-4.69517E-006	0.00000E+000	-6.08154E-005	0.00000E+000	9	...........	1425.60
	136	60.01	3.27136E-002	5.11468E-004	0.00000E+000	9.99387E-002	0.00000E+000	9	.........v.	1425.60
	137	60.02	9.88012E-002	4.51929E-004	0.00000E+000	9.99387E-002	0.00000E+000	9	...........	1425.60
	138	60.03	9.97709E-002	4.06355E-004	0.00000E+000	9.99387E-002	0.00000E+000	9	...........	1425.60
	139	60.04	9.99454E-002	3.66539E-004	0.00000E+000	9.99387E-002	0.00000E+000	9	...........	1425.60
	140	60.05	9.99740E-002	3.32573E-004	0.00000E+000	9.99387E-002	0.00000E+000	9	...........	1425.60
	141	60.06	9.99839E-002	3.01780E-004	0.00000E+000	9.99387E-002	0.00000E+000	9	...........	1425.60
	142	60.07	9.99885E-002	2.75210E-004	0.00000E+000	9.99387E-002	0.00000E+000	9	...........	1425.60
	143	60.08	9.99929E-002	2.50852E-004	0.00000E+000	9.99387E-002	0.00000E+000	9	...........	1425.60
	144	60.09	9.99911E-002	2.29712E-004	0.00000E+000	9.99387E-002	0.00000E+000	9	...........	1425.60
	145	60.1	9.99998E-002	2.10216E-004	0.00000E+000	9.99387E-002	0.00000E+000	9	...........	1425.60
	146	60.11	9.99968E-002	1.93199E-004	0.00000E+000	9.99387E-002	0.00000E+000	9	...........	1425.60
	147	60.12	9.99996E-002	1.77431E-004	0.00000E+000	9.99387E-002	0.00000E+000	9	...........	1425.60
	148	60.13	1.00000E-001	1.63630E-004	0.00000E+000	9.99387E-002	0.00000E+000	9	...........	1425.60
	149	60.14	9.99993E-002	1.50793E-004	0.00000E+000	9.99387E-002	0.00000E+000	9	...........	1425.60
	150	60.15	1.00000E-001	1.39513E-004	0.00000E+000	9.99387E-002	0.00000E+000	9	...........	1425.60
	151	60.16	1.00002E-001	1.29015E-004	0.00000E+000	9.99387E-002	0.00000E+000	9	...........	1425.60
	152	60.17	9.99996E-002	1.19676E-004	0.00000E+000	9.99387E-002	0.00000E+000	9	...........	1425.60
	153	60.18	9.99995E-002	1.11074E-004	0.00000E+000	9.99387E-002	0.00000E+000	9	...........	1425.60
	154	60.19	1.00002E-001	1.03297E-004	0.00000E+000	9.99387E-002	0.00000E+000	9	...........	1425.60
	155	60.2	9.99993E-002	9.61847E-005	0.00000E+000	9.99387E-002	0.00000E+000	9	...........	1425.60
	156	60.21	1.00000E-001	8.97003E-005	0.00000E+000	9.99387E-002	0.00000E+000	9	...........	1425.60
	157	60.22	1.00001E-001	8.38081E-005	0.00000E+000	9.99387E-002	0.00000E+000	9	...........	1425.60
	158	60.23	9.99995E-002	7.83030E-005	0.00000E+000	9.99387E-002	0.00000E+000	9	...........	1425.60
	159	60.24	1.00002E-001	7.34594E-005	0.00000E+000	9.99387E-002	0.00000E+000	9	...........	1425.60
	160	60.25	9.99974E-002	6.87567E-005	0.00000E+000	9.99387E-002	0.00000E+000	9	...........	1425.60
	161	60.26	1.00001E-001	6.47618E-005	0.00000E+000	9.99387E-002	0.00000E+000	9	...........	1425.60
	162	60.27	1.00001E-001	6.07093E-005	0.00000E+000	9.99387E-002	0.00000E+000	9	...........	1425.60
	163	60.28	1.00000E-001	5.73886E-005	0.00000E+000	9.99387E-002	0.00000E+000	9	...........	1425.60
	164	60.29	1.00001E-001	5.38978E-005	0.00000E+000	9.99387E-002	0.00000E+000	9	...........	1425.60
	165	60.3	1.00003E-001	5.11675E-005	0.00000E+000	9.99387E-002	0.00000E+000	9	...........	1425.60
	166	60.31	1.00002E-001	4.80812E-005	0.00000E+000	9.99387E-002	0.00000E+000	9	...........	1425.60
	167	60.32	1.00001E-001	4.58564E-005	0.00000E+000	9.99387E-002	0.00000E+000	9	...........	1425.60
	168	60.33	1.00001E-001	4.31500E-005	0.00000E+000	9.99387E-002	0.00000E+000	9	...........	1425.60
	169	60.34	1.00003E-001	4.13187E-005	0.00000E+000	9.99387E-002	0.00000E+000	9	...........	1425.60
	170	60.35	1.00001E-001	3.89196E-005	0.00000E+000	9.99387E-002	0.00000E+000	9	...........	1425.60
	171	60.36	1.00003E-001	3.74136E-005	0.00000E+000	9.99387E-002	0.00000E+000	9	...........	1425.60
	172	60.37	9.99972E-002	3.52449E-005	0.00000E+000	9.99387E-002	0.00000E+000	9	...........	1425.60
	173	60.38	1.00002E-001	3.40612E-005	0.00000E+000	9.99387E-002	0.00000E+000	9	...........	1425.60
	174	60.39	1.00000E-001	3.21117E-005	0.00000E+000	9.99387E-002	0.00000E+000	9	...........	1425.60
	175	60.4	9.99970E-002	3.11482E-005	0.00000E+000	9.99387E-002	0.00000E+000	9	...........	1425.60
	176	60.41	9.99994E-002	2.93819E-005	0.00000E+000	9.99387E-002	0.00000E+000	9	...........	1425.60
	177	60.42	1.00002E-001	2.86253E-005	0.00000E+000	9.99387E-002	0.00000E+000	9	...........	1425.60
	178	60.43	9.99983E-002	2.69814E-005	0.00000E+000	9.99387E-002	0.00000E+000	9	...........	1425.60
	179	60.44	1.00003E-001	2.64356E-005	0.00000E+000	9.99387E-002	0.00000E+000	9	...........	1425.60
	180	60.45	1.00002E-001	2.49215E-005	0.00000E+000	9.99387E-002	0.00000E+000	9	...........	1425.60
	181	60.46	9.99994E-002	2.45169E-005	0.00000E+000	9.99387E-002	0.00000E+000	9	...........	1425.60
	182	60.47	9.99999E-002	2.30835E-005	0.00000E+000	9.99387E-002	0.00000E+000	9	...........	1425.60
	183	60.48	1.00003E-001	2.28555E-005	0.00000E+000	9.99387E-002	0.00000E+000	9	...........	1425.60
	184	60.49	9.99979E-002	2.14665E-005	0.00000E+000	9.99387E-002	0.00000E+000	9	...........	1425.60
	185	60.5	1.00002E-001	2.13651E-005	0.00000E+000	9.99387E-002	0.00000E+000	9	...........	1425.60
	186	60.51	1.00001E-001	2.00381E-005	0.00000E+000	9.99387E-002	0.00000E+000	9	...........	1425.60
	187	60.52	1.00000E-001	2.00732E-005	0.00000E+000	9.99387E-002	0.00000E+000	9	...........	1425.60
	188	60.53	1.00000E-001	1.87493E-005	0.00000E+000	9.99387E-002	0.00000E+000	9	...........	1425.60
	189	60.54	1.00002E-001	1.89292E-005	0.00000E+000	9.99387E-002	0.00000E+000	9	...........	1425.60
	190	60.55	1.00004E-001	1.76062E-005	0.00000E+000	9.99387E-002	0.00000E+000	9	...........	1425.60
	191	60.56	1.00004E-001	1.79101E-005	0.00000E+000	9.99387E-002	0.00000E+000	9	...........	1425.60
	192	60.57	9.99971E-002	1.65615E-005	0.00000E+000	9.99387E-002	0.00000E+000	9	...........	1425.60
	193	60.58	1.00000E-001	1.70075E-005	0.00000E+000	9.99387E-002	0.00000E+000	9	...........	1425.60
	194	60.59	9.99997E-002	1.56316E-005	0.00000E+000	9.99387E-002	0.00000E+000	9	...........	1425.60
	195	60.6	1.00002E-001	1.62092E-005	0.00000E+000	9.99387E-002	0.00000E+000	9	...........	1425.60
	196	60.61	1.00002E-001	1.48111E-005	0.00000E+000	9.99387E-002	0.00000E+000	9	...........	1425.60
	197	60.71	9.99983E-002	1.15964E-005	0.00000E+000	9.99387E-002	0.00000E+000	9	...........	1425.60
	198	60.81	1.00001E-001	9.58429E-006	0.00000E+000	9.99387E-002	0.00000E+000	9	...........	1425.60
	199	60.91	9.99998E-002	8.25903E-006	0.00000E+000	9.99387E-002	0.00000E+000	9	...........	1425.60
	200	61	1.00002E-001	8.61384E-006	0.00000E+000	9.99387E-002	0.00000E+000	9	...........	1425.60
