EXPLAIN
TAG	CHRONOA
TITLE	LABEL	Chronoamperometry Scan	Test Identifier
DATE	LABEL	20/12/2021	Date
TIME	LABEL	12:28:53	Time
NOTES	NOTES	1	Notes...
	
PSTAT	PSTAT	IFC1010-21051	Potentiostat
VPRESTEP	POTEN	-7.00000E-001	F	Pre-step Voltage (V)
TPRESTEP	QUANT	5.00000E-001	Pre-step Delay Time (s)
VSTEP1	POTEN	-8.00000E-001	F	Step 1 Voltage (V)
TSTEP1	QUANT	3.00000E+002	Step 1 Time (s)
VSTEP2	POTEN	-7.00000E-001	F	Step 2 Voltage (V)
TSTEP2	QUANT	1.00000E+000	Step 2 Time (s)
SAMPLETIME	QUANT	1.00000E-001	Sample Period (s)
DECIMATE	TOGGLE	T	Decimate
ILIMIT	QUANT	1.00000E+000	Limit I (mA/cm^2)
IMODE	SELECTOR	1	I/E Range Mode
IRANGE	QUANT	3.00000E-001	Max Current (mA)
EQDELAY	QUANT	5.00000E+000	Equil. Time (s)
SAMPLINGMODE	SELECTOR	1	Sampling Mode
AREA	QUANT	1.00000E+000	Sample Area (cm^2)
IRCOMP	SELECTOR	0	IRComp
PFCOR	QUANT	5.00000E+001	PF Corr. (ohm)
SEQUENCER	TOGGLE	TRUE	Run as Sequence
PSTATMODEL	IQUANT	64	Pstat Model
PSTATSECTION	LABEL	IFC1010-21051	Pstat Section
PSTATSERIALNO	LABEL	21051	Pstat Serial Number
CTRLMODE	IQUANT	1	Control Mode
ELECTROMETER	IQUANT	0	RE=0 or CS=1
IESTAB	IQUANT	0	I/E Stability
CASPEED	IQUANT	4	Control Amp Speed
CONVENTION	IQUANT	1	Current Convention
ICHRANGE	IQUANT	2	Ich Range
ICHRANGEMODE	TOGGLE	T	Ich Auto Range
ICHOFFSETENABLE	TOGGLE	F	Ich Offset Enable
ICHOFFSET	QUANT	0	Ich Offset (V)
ICHFILTER	IQUANT	3	Ich Filter
VCHRANGE	IQUANT	3	Vch Range
VCHRANGEMODE	TOGGLE	T	Vch Auto Range
VCHOFFSETENABLE	TOGGLE	F	Vch Offset Enable
VCHOFFSET	QUANT	0	Vch Offset (V)
VCHFILTER	IQUANT	3	Vch Filter
IERANGELOWERLIMIT	IQUANT	4	I/E Range Lower Limit
IERANGEMODE	TOGGLE	F	I/E AutoRange
IERANGE	IQUANT	9	I/E Range
ACHSELECT	IQUANT	0	Ach Select
ACHRANGE	IQUANT	2	Ach Range
ACHOFFSETENABLE	TOGGLE	F	Ach Offset Enable
ACHOFFSET	QUANT	0	Ach Offset (V)
ACHFILTER	IQUANT	1	Ach Filter
SENSECABLEID	IQUANT	14	Sense Cable ID
PWRCABLEID	IQUANT	14	Power Cable ID
DCCALDATE	LABEL	10/1/2020	DC Calibration Date
ACCALDATE	LABEL	4/2/2018	AC Calibration Date
FRAMEWORKVERSION	QUANT	7.06	Framework Version
INSTRUMENTVERSION	LABEL	4.30	Instrument Version
CURVE	TABLE	98
	Pt	T	Vf	Im	Vu	Sig	Ach	IERange	Over	Temp
	#	s	V vs. Ref.	A	V	V	V	#	bits	deg C
	0	-0.4	-7.01101E-001	-1.29603E-004	0.00000E+000	-7.00083E-001	0.00000E+000	9	...........	1425.87
	1	-0.3	-7.01084E-001	-1.29472E-004	0.00000E+000	-7.00083E-001	0.00000E+000	9	...........	1425.87
	2	-0.2	-7.01098E-001	-1.29282E-004	0.00000E+000	-7.00083E-001	0.00000E+000	9	...........	1425.87
	3	-0.1	-7.01104E-001	-1.29172E-004	0.00000E+000	-7.00083E-001	0.00000E+000	9	...........	1425.87
	4	0	-7.01096E-001	-1.29075E-004	0.00000E+000	-7.00083E-001	0.00000E+000	9	...........	1425.87
	5	0.1	-8.01104E-001	-5.83288E-004	0.00000E+000	-8.00083E-001	0.00000E+000	9	...........	1425.87
	6	0.2	-8.01111E-001	-4.36311E-004	0.00000E+000	-8.00083E-001	0.00000E+000	9	...........	1425.87
	7	0.3	-8.01089E-001	-3.64244E-004	0.00000E+000	-8.00083E-001	0.00000E+000	9	...........	1425.87
	8	0.4	-8.01097E-001	-3.20842E-004	0.00000E+000	-8.00083E-001	0.00000E+000	9	...........	1425.87
	9	0.5	-8.01106E-001	-2.90864E-004	0.00000E+000	-8.00083E-001	0.00000E+000	9	...........	1425.87
	10	0.6	-8.01105E-001	-2.69027E-004	0.00000E+000	-8.00083E-001	0.00000E+000	9	...........	1425.42
	11	0.7	-8.01110E-001	-2.52414E-004	0.00000E+000	-8.00083E-001	0.00000E+000	9	...........	1425.42
	12	0.8	-8.01111E-001	-2.39584E-004	0.00000E+000	-8.00083E-001	0.00000E+000	9	...........	1425.42
	13	0.9	-8.01112E-001	-2.29328E-004	0.00000E+000	-8.00083E-001	0.00000E+000	9	...........	1425.42
	14	1	-8.01119E-001	-2.21245E-004	0.00000E+000	-8.00083E-001	0.00000E+000	9	...........	1425.42
	15	1.1	-8.01106E-001	-2.14636E-004	0.00000E+000	-8.00083E-001	0.00000E+000	9	...........	1425.42
	16	1.2	-8.01111E-001	-2.09044E-004	0.00000E+000	-8.00083E-001	0.00000E+000	9	...........	1425.42
	17	1.3	-8.01108E-001	-2.04460E-004	0.00000E+000	-8.00083E-001	0.00000E+000	9	...........	1425.42
	18	1.4	-8.01104E-001	-2.00409E-004	0.00000E+000	-8.00083E-001	0.00000E+000	9	...........	1425.42
	19	1.5	-8.01100E-001	-1.96885E-004	0.00000E+000	-8.00083E-001	0.00000E+000	9	...........	1425.42
	20	1.6	-8.01099E-001	-1.94044E-004	0.00000E+000	-8.00083E-001	0.00000E+000	9	...........	1425.34
	21	1.7	-8.01108E-001	-1.91430E-004	0.00000E+000	-8.00083E-001	0.00000E+000	9	...........	1425.34
	22	1.8	-8.01107E-001	-1.89136E-004	0.00000E+000	-8.00083E-001	0.00000E+000	9	...........	1425.34
	23	1.9	-8.01109E-001	-1.87060E-004	0.00000E+000	-8.00083E-001	0.00000E+000	9	...........	1425.34
	24	2	-8.01109E-001	-1.85228E-004	0.00000E+000	-8.00083E-001	0.00000E+000	9	...........	1425.34
	25	2.1	-8.01113E-001	-1.83555E-004	0.00000E+000	-8.00083E-001	0.00000E+000	9	...........	1425.34
	26	2.2	-8.01107E-001	-1.81968E-004	0.00000E+000	-8.00083E-001	0.00000E+000	9	...........	1425.34
	27	2.3	-8.01092E-001	-1.80558E-004	0.00000E+000	-8.00083E-001	0.00000E+000	9	...........	1425.34
	28	2.4	-8.01116E-001	-1.79454E-004	0.00000E+000	-8.00083E-001	0.00000E+000	9	...........	1425.34
	29	2.5	-8.01114E-001	-1.78269E-004	0.00000E+000	-8.00083E-001	0.00000E+000	9	...........	1425.34
	30	2.6	-8.01104E-001	-1.77150E-004	0.00000E+000	-8.00083E-001	0.00000E+000	9	...........	1425.60
	31	2.7	-8.01118E-001	-1.76216E-004	0.00000E+000	-8.00083E-001	0.00000E+000	9	...........	1425.60
	32	2.8	-8.01115E-001	-1.75336E-004	0.00000E+000	-8.00083E-001	0.00000E+000	9	...........	1425.60
	33	2.9	-8.01100E-001	-1.74406E-004	0.00000E+000	-8.00083E-001	0.00000E+000	9	...........	1425.60
	34	3	-8.01107E-001	-1.73626E-004	0.00000E+000	-8.00083E-001	0.00000E+000	9	...........	1425.60
	35	3.1	-8.01100E-001	-1.72967E-004	0.00000E+000	-8.00083E-001	0.00000E+000	9	...........	1425.60
	36	3.2	-8.01119E-001	-1.72332E-004	0.00000E+000	-8.00083E-001	0.00000E+000	9	...........	1425.60
	37	3.3	-8.01126E-001	-1.71639E-004	0.00000E+000	-8.00083E-001	0.00000E+000	9	...........	1425.60
	38	3.4	-8.01120E-001	-1.71063E-004	0.00000E+000	-8.00083E-001	0.00000E+000	9	...........	1425.60
	39	3.5	-8.01118E-001	-1.70425E-004	0.00000E+000	-8.00083E-001	0.00000E+000	9	...........	1425.60
	40	3.6	-8.01109E-001	-1.69940E-004	0.00000E+000	-8.00083E-001	0.00000E+000	9	...........	1425.78
	41	3.7	-8.01106E-001	-1.69457E-004	0.00000E+000	-8.00083E-001	0.00000E+000	9	...........	1425.78
	42	3.8	-8.01111E-001	-1.68826E-004	0.00000E+000	-8.00083E-001	0.00000E+000	9	...........	1425.78
	43	3.9	-8.01114E-001	-1.68542E-004	0.00000E+000	-8.00083E-001	0.00000E+000	9	...........	1425.78
	44	4	-8.01111E-001	-1.68109E-004	0.00000E+000	-8.00083E-001	0.00000E+000	9	...........	1425.78
	45	4.1	-8.01118E-001	-1.67697E-004	0.00000E+000	-8.00083E-001	0.00000E+000	9	...........	1425.78
	46	4.2	-8.01089E-001	-1.67206E-004	0.00000E+000	-8.00083E-001	0.00000E+000	9	...........	1425.78
	47	4.3	-8.01104E-001	-1.66941E-004	0.00000E+000	-8.00083E-001	0.00000E+000	9	...........	1425.78
	48	4.4	-8.01103E-001	-1.66566E-004	0.00000E+000	-8.00083E-001	0.00000E+000	9	...........	1425.78
	49	4.5	-8.01108E-001	-1.66290E-004	0.00000E+000	-8.00083E-001	0.00000E+000	9	...........	1425.78
	50	4.6	-8.01103E-001	-1.65801E-004	0.00000E+000	-8.00083E-001	0.00000E+000	9	...........	1425.34
	51	4.7	-8.01112E-001	-1.65664E-004	0.00000E+000	-8.00083E-001	0.00000E+000	9	...........	1425.34
	52	4.8	-8.01114E-001	-1.65386E-004	0.00000E+000	-8.00083E-001	0.00000E+000	9	...........	1425.34
	53	4.9	-8.01117E-001	-1.65040E-004	0.00000E+000	-8.00083E-001	0.00000E+000	9	...........	1425.34
	54	5	-8.01113E-001	-1.64735E-004	0.00000E+000	-8.00083E-001	0.00000E+000	9	...........	1425.34
	55	5.1	-8.01105E-001	-1.64481E-004	0.00000E+000	-8.00083E-001	0.00000E+000	9	...........	1425.34
	56	5.2	-8.01104E-001	-1.64215E-004	0.00000E+000	-8.00083E-001	0.00000E+000	9	...........	1425.34
	57	5.3	-8.01112E-001	-1.64007E-004	0.00000E+000	-8.00083E-001	0.00000E+000	9	...........	1425.34
	58	5.4	-8.01109E-001	-1.63777E-004	0.00000E+000	-8.00083E-001	0.00000E+000	9	...........	1425.34
	59	5.5	-8.01111E-001	-1.63579E-004	0.00000E+000	-8.00083E-001	0.00000E+000	9	...........	1425.34
	60	5.6	-8.01100E-001	-1.63229E-004	0.00000E+000	-8.00083E-001	0.00000E+000	9	...........	1425.34
	61	5.7	-8.01122E-001	-1.63121E-004	0.00000E+000	-8.00083E-001	0.00000E+000	9	...........	1425.34
	62	5.8	-8.01112E-001	-1.62953E-004	0.00000E+000	-8.00083E-001	0.00000E+000	9	...........	1425.34
	63	5.9	-8.01116E-001	-1.62700E-004	0.00000E+000	-8.00083E-001	0.00000E+000	9	...........	1425.34
	64	6	-8.01108E-001	-1.62403E-004	0.00000E+000	-8.00083E-001	0.00000E+000	9	...........	1425.34
	65	6.1	-8.01117E-001	-1.62351E-004	0.00000E+000	-8.00083E-001	0.00000E+000	9	...........	1425.34
	66	7.1	-8.01115E-001	-1.60785E-004	0.00000E+000	-8.00083E-001	0.00000E+000	9	...........	1425.34
	67	8.1	-8.01107E-001	-1.59559E-004	0.00000E+000	-8.00083E-001	0.00000E+000	9	...........	1425.78
	68	9.1	-8.01120E-001	-1.58577E-004	0.00000E+000	-8.00083E-001	0.00000E+000	9	...........	1425.78
	69	10.1	-8.01100E-001	-1.57882E-004	0.00000E+000	-8.00083E-001	0.00000E+000	9	...........	1425.87
	70	11.1	-8.01112E-001	-1.57403E-004	0.00000E+000	-8.00083E-001	0.00000E+000	9	...........	1425.78
	71	12.1	-8.01108E-001	-1.56966E-004	0.00000E+000	-8.00083E-001	0.00000E+000	9	...........	1425.78
	72	13.1	-8.01113E-001	-1.56616E-004	0.00000E+000	-8.00083E-001	0.00000E+000	9	...........	1425.78
	73	14.1	-8.01117E-001	-1.56306E-004	0.00000E+000	-8.00083E-001	0.00000E+000	9	...........	1425.78
	74	15.1	-8.01120E-001	-1.56018E-004	0.00000E+000	-8.00083E-001	0.00000E+000	9	...........	1425.87
	75	16.1	-8.01117E-001	-1.55654E-004	0.00000E+000	-8.00083E-001	0.00000E+000	9	...........	1425.87
	76	26.1	-8.01118E-001	-1.53385E-004	0.00000E+000	-8.00083E-001	0.00000E+000	9	...........	1425.87
	77	36.1	-8.01122E-001	-1.52328E-004	0.00000E+000	-8.00083E-001	0.00000E+000	9	...........	1425.87
	78	46.1	-8.01123E-001	-1.51942E-004	0.00000E+000	-8.00083E-001	0.00000E+000	9	...........	1425.87
	79	56.1	-8.01125E-001	-1.51149E-004	0.00000E+000	-8.00083E-001	0.00000E+000	9	...........	1425.87
	80	66.1	-8.01109E-001	-1.51011E-004	0.00000E+000	-8.00083E-001	0.00000E+000	9	...........	1425.87
	81	76.1	-8.01112E-001	-1.50346E-004	0.00000E+000	-8.00083E-001	0.00000E+000	9	...........	1425.87
	82	86.1	-8.01120E-001	-1.50365E-004	0.00000E+000	-8.00083E-001	0.00000E+000	9	...........	1425.87
	83	96.1	-8.01112E-001	-1.50119E-004	0.00000E+000	-8.00083E-001	0.00000E+000	9	...........	1425.87
	84	106.1	-8.01106E-001	-1.49630E-004	0.00000E+000	-8.00083E-001	0.00000E+000	9	...........	1425.87
	85	116.1	-8.01111E-001	-1.49756E-004	0.00000E+000	-8.00083E-001	0.00000E+000	9	...........	1425.87
	86	216.1	-8.01110E-001	-1.50306E-004	0.00000E+000	-8.00083E-001	0.00000E+000	9	...........	1425.87
	87	300	-8.01125E-001	-1.50194E-004	0.00000E+000	-8.00083E-001	0.00000E+000	9	...........	1425.87
	88	300.1	-7.01106E-001	2.07069E-004	0.00000E+000	-7.00083E-001	0.00000E+000	9	...........	1425.87
	89	300.2	-7.01078E-001	5.24719E-005	0.00000E+000	-7.00083E-001	0.00000E+000	9	...........	1425.87
	90	300.3	-7.01085E-001	-1.44795E-005	0.00000E+000	-7.00083E-001	0.00000E+000	9	...........	1425.87
	91	300.4	-7.01091E-001	-4.76022E-005	0.00000E+000	-7.00083E-001	0.00000E+000	9	...........	1425.87
	92	300.5	-7.01086E-001	-6.59170E-005	0.00000E+000	-7.00083E-001	0.00000E+000	9	...........	1425.87
	93	300.6	-7.01087E-001	-7.70474E-005	0.00000E+000	-7.00083E-001	0.00000E+000	9	...........	1425.87
	94	300.7	-7.01095E-001	-8.42757E-005	0.00000E+000	-7.00083E-001	0.00000E+000	9	...........	1425.87
	95	300.8	-7.01100E-001	-8.93404E-005	0.00000E+000	-7.00083E-001	0.00000E+000	9	...........	1425.87
	96	300.9	-7.01086E-001	-9.28470E-005	0.00000E+000	-7.00083E-001	0.00000E+000	9	...........	1425.87
	97	301	-7.01085E-001	-9.58055E-005	0.00000E+000	-7.00083E-001	0.00000E+000	9	...........	1425.87
