EXPLAIN
TAG	CHRONOA
TITLE	LABEL	Chronoamperometry Scan	Test Identifier
DATE	LABEL	21/2/2022	Date
TIME	LABEL	12:20:15	Time
NOTES	NOTES	1	Notes...
	
PSTAT	PSTAT	IFC1010-21051	Potentiostat
VPRESTEP	POTEN	-5.00000E-001	F	Pre-step Voltage (V)
TPRESTEP	QUANT	5.00000E-001	Pre-step Delay Time (s)
VSTEP1	POTEN	-6.00000E-001	F	Step 1 Voltage (V)
TSTEP1	QUANT	3.00000E+002	Step 1 Time (s)
VSTEP2	POTEN	-7.00000E-001	F	Step 2 Voltage (V)
TSTEP2	QUANT	1.00000E+000	Step 2 Time (s)
SAMPLETIME	QUANT	1.00000E-001	Sample Period (s)
DECIMATE	TOGGLE	T	Decimate
ILIMIT	QUANT	1.00000E+000	Limit I (mA/cm^2)
IMODE	SELECTOR	1	I/E Range Mode
IRANGE	QUANT	3.00000E-001	Max Current (mA)
EQDELAY	QUANT	5.00000E+000	Equil. Time (s)
SAMPLINGMODE	SELECTOR	1	Sampling Mode
AREA	QUANT	1.00000E+000	Sample Area (cm^2)
IRCOMP	SELECTOR	0	IRComp
PFCOR	QUANT	5.00000E+001	PF Corr. (ohm)
SEQUENCER	TOGGLE	TRUE	Run as Sequence
PSTATMODEL	IQUANT	64	Pstat Model
PSTATSECTION	LABEL	IFC1010-21051	Pstat Section
PSTATSERIALNO	LABEL	21051	Pstat Serial Number
CTRLMODE	IQUANT	1	Control Mode
ELECTROMETER	IQUANT	0	RE=0 or CS=1
IESTAB	IQUANT	0	I/E Stability
CASPEED	IQUANT	4	Control Amp Speed
CONVENTION	IQUANT	1	Current Convention
ICHRANGE	IQUANT	2	Ich Range
ICHRANGEMODE	TOGGLE	T	Ich Auto Range
ICHOFFSETENABLE	TOGGLE	F	Ich Offset Enable
ICHOFFSET	QUANT	0	Ich Offset (V)
ICHFILTER	IQUANT	3	Ich Filter
VCHRANGE	IQUANT	3	Vch Range
VCHRANGEMODE	TOGGLE	T	Vch Auto Range
VCHOFFSETENABLE	TOGGLE	F	Vch Offset Enable
VCHOFFSET	QUANT	0	Vch Offset (V)
VCHFILTER	IQUANT	3	Vch Filter
IERANGELOWERLIMIT	IQUANT	4	I/E Range Lower Limit
IERANGEMODE	TOGGLE	F	I/E AutoRange
IERANGE	IQUANT	9	I/E Range
ACHSELECT	IQUANT	0	Ach Select
ACHRANGE	IQUANT	2	Ach Range
ACHOFFSETENABLE	TOGGLE	F	Ach Offset Enable
ACHOFFSET	QUANT	0	Ach Offset (V)
ACHFILTER	IQUANT	1	Ach Filter
SENSECABLEID	IQUANT	14	Sense Cable ID
PWRCABLEID	IQUANT	14	Power Cable ID
DCCALDATE	LABEL	1/24/2022	DC Calibration Date
ACCALDATE	LABEL	4/2/2018	AC Calibration Date
FRAMEWORKVERSION	QUANT	7.06	Framework Version
INSTRUMENTVERSION	LABEL	4.30	Instrument Version
CURVE	TABLE	98
	Pt	T	Vf	Im	Vu	Sig	Ach	IERange	Over	Temp
	#	s	V vs. Ref.	A	V	V	V	#	bits	deg C
	0	-0.4	-5.01533E-001	-1.24069E-004	0.00000E+000	-5.00017E-001	0.00000E+000	9	...........	1426.22
	1	-0.3	-5.00968E-001	-1.23727E-004	0.00000E+000	-5.00017E-001	0.00000E+000	9	...........	1426.22
	2	-0.2	-5.00977E-001	-1.23374E-004	0.00000E+000	-5.00017E-001	0.00000E+000	9	...........	1426.22
	3	-0.1	-5.00979E-001	-1.23049E-004	0.00000E+000	-5.00017E-001	0.00000E+000	9	...........	1426.22
	4	0	-5.00980E-001	-1.22725E-004	0.00000E+000	-5.00017E-001	0.00000E+000	9	...........	1426.22
	5	0.1	-6.00985E-001	-5.98110E-004	0.00000E+000	-6.00016E-001	0.00000E+000	9	...........	1426.22
	6	0.2	-6.00984E-001	-5.21877E-004	0.00000E+000	-6.00016E-001	0.00000E+000	9	...........	1426.22
	7	0.3	-6.00991E-001	-4.70360E-004	0.00000E+000	-6.00016E-001	0.00000E+000	9	...........	1426.22
	8	0.4	-6.00982E-001	-4.32467E-004	0.00000E+000	-6.00016E-001	0.00000E+000	9	...........	1426.22
	9	0.5	-6.00991E-001	-4.03443E-004	0.00000E+000	-6.00016E-001	0.00000E+000	9	...........	1426.22
	10	0.6	-6.00981E-001	-3.80262E-004	0.00000E+000	-6.00016E-001	0.00000E+000	9	...........	1426.13
	11	0.7	-6.00997E-001	-3.61416E-004	0.00000E+000	-6.00016E-001	0.00000E+000	9	...........	1426.13
	12	0.8	-6.01002E-001	-3.45627E-004	0.00000E+000	-6.00016E-001	0.00000E+000	9	...........	1426.13
	13	0.9	-6.01002E-001	-3.32254E-004	0.00000E+000	-6.00016E-001	0.00000E+000	9	...........	1426.13
	14	1	-6.00999E-001	-3.20721E-004	0.00000E+000	-6.00016E-001	0.00000E+000	9	...........	1426.13
	15	1.1	-6.00978E-001	-3.10592E-004	0.00000E+000	-6.00016E-001	0.00000E+000	9	...........	1426.13
	16	1.2	-6.00988E-001	-3.01665E-004	0.00000E+000	-6.00016E-001	0.00000E+000	9	...........	1426.13
	17	1.3	-6.01001E-001	-2.93711E-004	0.00000E+000	-6.00016E-001	0.00000E+000	9	...........	1426.13
	18	1.4	-6.01004E-001	-2.86508E-004	0.00000E+000	-6.00016E-001	0.00000E+000	9	...........	1426.13
	19	1.5	-6.00990E-001	-2.80028E-004	0.00000E+000	-6.00016E-001	0.00000E+000	9	...........	1426.13
	20	1.6	-6.00989E-001	-2.73999E-004	0.00000E+000	-6.00016E-001	0.00000E+000	9	...........	1426.13
	21	1.7	-6.00991E-001	-2.68595E-004	0.00000E+000	-6.00016E-001	0.00000E+000	9	...........	1426.13
	22	1.8	-6.01005E-001	-2.63573E-004	0.00000E+000	-6.00016E-001	0.00000E+000	9	...........	1426.13
	23	1.9	-6.00991E-001	-2.58823E-004	0.00000E+000	-6.00016E-001	0.00000E+000	9	...........	1426.13
	24	2	-6.00991E-001	-2.54481E-004	0.00000E+000	-6.00016E-001	0.00000E+000	9	...........	1426.13
	25	2.1	-6.00998E-001	-2.50393E-004	0.00000E+000	-6.00016E-001	0.00000E+000	9	...........	1426.13
	26	2.2	-6.01001E-001	-2.46591E-004	0.00000E+000	-6.00016E-001	0.00000E+000	9	...........	1426.13
	27	2.3	-6.01008E-001	-2.42976E-004	0.00000E+000	-6.00016E-001	0.00000E+000	9	...........	1426.13
	28	2.4	-6.00995E-001	-2.39649E-004	0.00000E+000	-6.00016E-001	0.00000E+000	9	...........	1426.13
	29	2.5	-6.00998E-001	-2.36392E-004	0.00000E+000	-6.00016E-001	0.00000E+000	9	...........	1426.13
	30	2.6	-6.00989E-001	-2.33358E-004	0.00000E+000	-6.00016E-001	0.00000E+000	9	...........	1426.13
	31	2.7	-6.00985E-001	-2.30487E-004	0.00000E+000	-6.00016E-001	0.00000E+000	9	...........	1426.13
	32	2.8	-6.00990E-001	-2.27787E-004	0.00000E+000	-6.00016E-001	0.00000E+000	9	...........	1426.13
	33	2.9	-6.00986E-001	-2.25198E-004	0.00000E+000	-6.00016E-001	0.00000E+000	9	...........	1426.13
	34	3	-6.00980E-001	-2.22708E-004	0.00000E+000	-6.00016E-001	0.00000E+000	9	...........	1426.13
	35	3.1	-6.00990E-001	-2.20338E-004	0.00000E+000	-6.00016E-001	0.00000E+000	9	...........	1426.13
	36	3.2	-6.00988E-001	-2.18064E-004	0.00000E+000	-6.00016E-001	0.00000E+000	9	...........	1426.13
	37	3.3	-6.00990E-001	-2.15820E-004	0.00000E+000	-6.00016E-001	0.00000E+000	9	...........	1426.13
	38	3.4	-6.00991E-001	-2.13775E-004	0.00000E+000	-6.00016E-001	0.00000E+000	9	...........	1426.13
	39	3.5	-6.00989E-001	-2.11754E-004	0.00000E+000	-6.00016E-001	0.00000E+000	9	...........	1426.13
	40	3.6	-6.00999E-001	-2.09928E-004	0.00000E+000	-6.00016E-001	0.00000E+000	9	...........	1426.13
	41	3.7	-6.00994E-001	-2.08027E-004	0.00000E+000	-6.00016E-001	0.00000E+000	9	...........	1426.13
	42	3.8	-6.00995E-001	-2.06297E-004	0.00000E+000	-6.00016E-001	0.00000E+000	9	...........	1426.13
	43	3.9	-6.00990E-001	-2.04483E-004	0.00000E+000	-6.00016E-001	0.00000E+000	9	...........	1426.13
	44	4	-6.01005E-001	-2.02901E-004	0.00000E+000	-6.00016E-001	0.00000E+000	9	...........	1426.13
	45	4.1	-6.00986E-001	-2.01227E-004	0.00000E+000	-6.00016E-001	0.00000E+000	9	...........	1426.13
	46	4.2	-6.00999E-001	-1.99742E-004	0.00000E+000	-6.00016E-001	0.00000E+000	9	...........	1426.13
	47	4.3	-6.00998E-001	-1.98236E-004	0.00000E+000	-6.00016E-001	0.00000E+000	9	...........	1426.13
	48	4.4	-6.00999E-001	-1.96797E-004	0.00000E+000	-6.00016E-001	0.00000E+000	9	...........	1426.13
	49	4.5	-6.00972E-001	-1.95289E-004	0.00000E+000	-6.00016E-001	0.00000E+000	9	...........	1426.13
	50	4.6	-6.00988E-001	-1.93979E-004	0.00000E+000	-6.00016E-001	0.00000E+000	9	...........	1426.13
	51	4.7	-6.00997E-001	-1.92664E-004	0.00000E+000	-6.00016E-001	0.00000E+000	9	...........	1426.13
	52	4.8	-6.00991E-001	-1.91421E-004	0.00000E+000	-6.00016E-001	0.00000E+000	9	...........	1426.13
	53	4.9	-6.00996E-001	-1.90205E-004	0.00000E+000	-6.00016E-001	0.00000E+000	9	...........	1426.13
	54	5	-6.00988E-001	-1.88945E-004	0.00000E+000	-6.00016E-001	0.00000E+000	9	...........	1426.13
	55	5.1	-6.01004E-001	-1.87829E-004	0.00000E+000	-6.00016E-001	0.00000E+000	9	...........	1426.13
	56	5.2	-6.00987E-001	-1.86663E-004	0.00000E+000	-6.00016E-001	0.00000E+000	9	...........	1426.13
	57	5.3	-6.00998E-001	-1.85598E-004	0.00000E+000	-6.00016E-001	0.00000E+000	9	...........	1426.13
	58	5.4	-6.00987E-001	-1.84405E-004	0.00000E+000	-6.00016E-001	0.00000E+000	9	...........	1426.13
	59	5.5	-6.00991E-001	-1.83371E-004	0.00000E+000	-6.00016E-001	0.00000E+000	9	...........	1426.13
	60	5.6	-6.00990E-001	-1.82400E-004	0.00000E+000	-6.00016E-001	0.00000E+000	9	...........	1425.69
	61	5.7	-6.00989E-001	-1.81375E-004	0.00000E+000	-6.00016E-001	0.00000E+000	9	...........	1425.69
	62	5.8	-6.00988E-001	-1.80276E-004	0.00000E+000	-6.00016E-001	0.00000E+000	9	...........	1425.69
	63	5.9	-6.01003E-001	-1.79406E-004	0.00000E+000	-6.00016E-001	0.00000E+000	9	...........	1425.69
	64	6	-6.00989E-001	-1.78476E-004	0.00000E+000	-6.00016E-001	0.00000E+000	9	...........	1425.69
	65	6.1	-6.00987E-001	-1.77586E-004	0.00000E+000	-6.00016E-001	0.00000E+000	9	...........	1425.69
	66	7.1	-6.00993E-001	-1.69492E-004	0.00000E+000	-6.00016E-001	0.00000E+000	9	...........	1426.13
	67	8.1	-6.00990E-001	-1.62817E-004	0.00000E+000	-6.00016E-001	0.00000E+000	9	...........	1426.22
	68	9.1	-6.00995E-001	-1.57184E-004	0.00000E+000	-6.00016E-001	0.00000E+000	9	...........	1426.22
	69	10.1	-6.00985E-001	-1.52415E-004	0.00000E+000	-6.00016E-001	0.00000E+000	9	...........	1426.22
	70	11.1	-6.01000E-001	-1.48252E-004	0.00000E+000	-6.00016E-001	0.00000E+000	9	...........	1426.22
	71	12.1	-6.01003E-001	-1.44743E-004	0.00000E+000	-6.00016E-001	0.00000E+000	9	...........	1426.22
	72	13.1	-6.01000E-001	-1.41701E-004	0.00000E+000	-6.00016E-001	0.00000E+000	9	...........	1426.13
	73	14.1	-6.00990E-001	-1.39039E-004	0.00000E+000	-6.00016E-001	0.00000E+000	9	...........	1426.22
	74	15.1	-6.00995E-001	-1.36560E-004	0.00000E+000	-6.00016E-001	0.00000E+000	9	...........	1426.22
	75	16.1	-6.01003E-001	-1.34312E-004	0.00000E+000	-6.00016E-001	0.00000E+000	9	...........	1426.22
	76	26.1	-6.01000E-001	-1.19362E-004	0.00000E+000	-6.00016E-001	0.00000E+000	9	...........	1426.22
	77	36.1	-6.00995E-001	-1.11201E-004	0.00000E+000	-6.00016E-001	0.00000E+000	9	...........	1426.22
	78	46.1	-6.00998E-001	-1.06188E-004	0.00000E+000	-6.00016E-001	0.00000E+000	9	...........	1426.22
	79	56.1	-6.00998E-001	-1.02648E-004	0.00000E+000	-6.00016E-001	0.00000E+000	9	...........	1426.22
	80	66.1	-6.00989E-001	-1.00236E-004	0.00000E+000	-6.00016E-001	0.00000E+000	9	...........	1426.22
	81	76.1	-6.01001E-001	-9.79995E-005	0.00000E+000	-6.00016E-001	0.00000E+000	9	...........	1426.22
	82	86.1	-6.00996E-001	-9.62320E-005	0.00000E+000	-6.00016E-001	0.00000E+000	9	...........	1426.31
	83	96.1	-6.00992E-001	-9.51599E-005	0.00000E+000	-6.00016E-001	0.00000E+000	9	...........	1426.22
	84	106.1	-6.00991E-001	-9.37382E-005	0.00000E+000	-6.00016E-001	0.00000E+000	9	...........	1426.22
	85	116.1	-6.01003E-001	-9.29049E-005	0.00000E+000	-6.00016E-001	0.00000E+000	9	...........	1426.22
	86	216.1	-6.00995E-001	-8.86733E-005	0.00000E+000	-6.00016E-001	0.00000E+000	9	...........	1426.13
	87	300	-6.01011E-001	-8.70057E-005	0.00000E+000	-6.00016E-001	0.00000E+000	9	...........	1426.22
	88	300.1	-7.00995E-001	-5.38679E-004	0.00000E+000	-7.00016E-001	0.00000E+000	9	...........	1426.22
	89	300.2	-7.01002E-001	-4.44653E-004	0.00000E+000	-7.00016E-001	0.00000E+000	9	...........	1426.22
	90	300.3	-7.00991E-001	-3.83944E-004	0.00000E+000	-7.00016E-001	0.00000E+000	9	...........	1426.22
	91	300.4	-7.00991E-001	-3.40754E-004	0.00000E+000	-7.00016E-001	0.00000E+000	9	...........	1426.22
	92	300.5	-7.00993E-001	-3.08218E-004	0.00000E+000	-7.00016E-001	0.00000E+000	9	...........	1426.22
	93	300.6	-7.01001E-001	-2.82936E-004	0.00000E+000	-7.00016E-001	0.00000E+000	9	...........	1426.22
	94	300.7	-7.00984E-001	-2.62518E-004	0.00000E+000	-7.00016E-001	0.00000E+000	9	...........	1426.22
	95	300.8	-7.01002E-001	-2.46085E-004	0.00000E+000	-7.00016E-001	0.00000E+000	9	...........	1426.22
	96	300.9	-7.00992E-001	-2.32188E-004	0.00000E+000	-7.00016E-001	0.00000E+000	9	...........	1426.22
	97	301	-7.01002E-001	-2.20660E-004	0.00000E+000	-7.00016E-001	0.00000E+000	9	...........	1426.22
