EXPLAIN
TAG	CHRONOA
TITLE	LABEL	Chronoamperometry Scan	Test Identifier
DATE	LABEL	21/2/2022	Date
TIME	LABEL	13:18:34	Time
NOTES	NOTES	1	Notes...
	
PSTAT	PSTAT	IFC1010-21051	Potentiostat
VPRESTEP	POTEN	1.00000E-001	F	Pre-step Voltage (V)
TPRESTEP	QUANT	5.00000E-001	Pre-step Delay Time (s)
VSTEP1	POTEN	2.00000E-001	F	Step 1 Voltage (V)
TSTEP1	QUANT	3.00000E+002	Step 1 Time (s)
VSTEP2	POTEN	3.00000E-001	F	Step 2 Voltage (V)
TSTEP2	QUANT	1.00000E+000	Step 2 Time (s)
SAMPLETIME	QUANT	1.00000E-001	Sample Period (s)
DECIMATE	TOGGLE	T	Decimate
ILIMIT	QUANT	1.00000E+000	Limit I (mA/cm^2)
IMODE	SELECTOR	1	I/E Range Mode
IRANGE	QUANT	3.00000E-001	Max Current (mA)
EQDELAY	QUANT	5.00000E+000	Equil. Time (s)
SAMPLINGMODE	SELECTOR	1	Sampling Mode
AREA	QUANT	1.00000E+000	Sample Area (cm^2)
IRCOMP	SELECTOR	0	IRComp
PFCOR	QUANT	5.00000E+001	PF Corr. (ohm)
SEQUENCER	TOGGLE	TRUE	Run as Sequence
PSTATMODEL	IQUANT	64	Pstat Model
PSTATSECTION	LABEL	IFC1010-21051	Pstat Section
PSTATSERIALNO	LABEL	21051	Pstat Serial Number
CTRLMODE	IQUANT	1	Control Mode
ELECTROMETER	IQUANT	0	RE=0 or CS=1
IESTAB	IQUANT	0	I/E Stability
CASPEED	IQUANT	4	Control Amp Speed
CONVENTION	IQUANT	1	Current Convention
ICHRANGE	IQUANT	2	Ich Range
ICHRANGEMODE	TOGGLE	T	Ich Auto Range
ICHOFFSETENABLE	TOGGLE	F	Ich Offset Enable
ICHOFFSET	QUANT	0	Ich Offset (V)
ICHFILTER	IQUANT	3	Ich Filter
VCHRANGE	IQUANT	3	Vch Range
VCHRANGEMODE	TOGGLE	T	Vch Auto Range
VCHOFFSETENABLE	TOGGLE	F	Vch Offset Enable
VCHOFFSET	QUANT	0	Vch Offset (V)
VCHFILTER	IQUANT	3	Vch Filter
IERANGELOWERLIMIT	IQUANT	4	I/E Range Lower Limit
IERANGEMODE	TOGGLE	F	I/E AutoRange
IERANGE	IQUANT	9	I/E Range
ACHSELECT	IQUANT	0	Ach Select
ACHRANGE	IQUANT	2	Ach Range
ACHOFFSETENABLE	TOGGLE	F	Ach Offset Enable
ACHOFFSET	QUANT	0	Ach Offset (V)
ACHFILTER	IQUANT	1	Ach Filter
SENSECABLEID	IQUANT	14	Sense Cable ID
PWRCABLEID	IQUANT	14	Power Cable ID
DCCALDATE	LABEL	1/24/2022	DC Calibration Date
ACCALDATE	LABEL	4/2/2018	AC Calibration Date
FRAMEWORKVERSION	QUANT	7.06	Framework Version
INSTRUMENTVERSION	LABEL	4.30	Instrument Version
CURVE	TABLE	98
	Pt	T	Vf	Im	Vu	Sig	Ach	IERange	Over	Temp
	#	s	V vs. Ref.	A	V	V	V	#	bits	deg C
	0	-0.4	9.92777E-002	6.32641E-006	0.00000E+000	1.00006E-001	0.00000E+000	9	...........	1426.22
	1	-0.3	1.00018E-001	6.09564E-006	0.00000E+000	1.00006E-001	0.00000E+000	9	...........	1426.22
	2	-0.2	1.00192E-001	5.85532E-006	0.00000E+000	1.00006E-001	0.00000E+000	9	...........	1426.22
	3	-0.1	1.00190E-001	5.64060E-006	0.00000E+000	1.00006E-001	0.00000E+000	9	...........	1426.22
	4	0	1.00189E-001	5.42965E-006	0.00000E+000	1.00006E-001	0.00000E+000	9	...........	1426.22
	5	0.1	2.00185E-001	3.94187E-004	0.00000E+000	2.00005E-001	0.00000E+000	9	...........	1426.22
	6	0.2	2.00188E-001	2.81033E-004	0.00000E+000	2.00005E-001	0.00000E+000	9	...........	1426.22
	7	0.3	2.00188E-001	2.07622E-004	0.00000E+000	2.00005E-001	0.00000E+000	9	...........	1426.22
	8	0.4	2.00188E-001	1.58336E-004	0.00000E+000	2.00005E-001	0.00000E+000	9	...........	1426.22
	9	0.5	2.00189E-001	1.24397E-004	0.00000E+000	2.00005E-001	0.00000E+000	9	...........	1426.22
	10	0.6	2.00188E-001	1.00473E-004	0.00000E+000	2.00005E-001	0.00000E+000	9	...........	1426.22
	11	0.7	2.00190E-001	8.32502E-005	0.00000E+000	2.00005E-001	0.00000E+000	9	...........	1426.22
	12	0.8	2.00188E-001	7.06316E-005	0.00000E+000	2.00005E-001	0.00000E+000	9	...........	1426.22
	13	0.9	2.00188E-001	6.11550E-005	0.00000E+000	2.00005E-001	0.00000E+000	9	...........	1426.40
	14	1	2.00187E-001	5.39246E-005	0.00000E+000	2.00005E-001	0.00000E+000	9	...........	1426.40
	15	1.1	2.00186E-001	4.82762E-005	0.00000E+000	2.00005E-001	0.00000E+000	9	...........	1426.40
	16	1.2	2.00188E-001	4.38177E-005	0.00000E+000	2.00005E-001	0.00000E+000	9	...........	1426.40
	17	1.3	2.00187E-001	4.02181E-005	0.00000E+000	2.00005E-001	0.00000E+000	9	...........	1426.40
	18	1.4	2.00187E-001	3.72566E-005	0.00000E+000	2.00005E-001	0.00000E+000	9	...........	1426.40
	19	1.5	2.00188E-001	3.47957E-005	0.00000E+000	2.00005E-001	0.00000E+000	9	...........	1426.40
	20	1.6	2.00187E-001	3.27017E-005	0.00000E+000	2.00005E-001	0.00000E+000	9	...........	1426.40
	21	1.7	2.00185E-001	3.09009E-005	0.00000E+000	2.00005E-001	0.00000E+000	9	...........	1426.40
	22	1.8	2.00186E-001	2.93634E-005	0.00000E+000	2.00005E-001	0.00000E+000	9	...........	1426.40
	23	1.9	2.00186E-001	2.79780E-005	0.00000E+000	2.00005E-001	0.00000E+000	9	...........	1426.49
	24	2	2.00188E-001	2.67937E-005	0.00000E+000	2.00005E-001	0.00000E+000	9	...........	1426.49
	25	2.1	2.00186E-001	2.57169E-005	0.00000E+000	2.00005E-001	0.00000E+000	9	...........	1426.49
	26	2.2	2.00186E-001	2.47476E-005	0.00000E+000	2.00005E-001	0.00000E+000	9	...........	1426.49
	27	2.3	2.00186E-001	2.38729E-005	0.00000E+000	2.00005E-001	0.00000E+000	9	...........	1426.49
	28	2.4	2.00186E-001	2.30716E-005	0.00000E+000	2.00005E-001	0.00000E+000	9	...........	1426.49
	29	2.5	2.00187E-001	2.23394E-005	0.00000E+000	2.00005E-001	0.00000E+000	9	...........	1426.49
	30	2.6	2.00185E-001	2.16723E-005	0.00000E+000	2.00005E-001	0.00000E+000	9	...........	1426.49
	31	2.7	2.00188E-001	2.10348E-005	0.00000E+000	2.00005E-001	0.00000E+000	9	...........	1426.49
	32	2.8	2.00189E-001	2.04313E-005	0.00000E+000	2.00005E-001	0.00000E+000	9	...........	1426.49
	33	2.9	2.00188E-001	1.98905E-005	0.00000E+000	2.00005E-001	0.00000E+000	9	...........	1426.40
	34	3	2.00186E-001	1.93548E-005	0.00000E+000	2.00005E-001	0.00000E+000	9	...........	1426.40
	35	3.1	2.00186E-001	1.89091E-005	0.00000E+000	2.00005E-001	0.00000E+000	9	...........	1426.40
	36	3.2	2.00187E-001	1.84297E-005	0.00000E+000	2.00005E-001	0.00000E+000	9	...........	1426.40
	37	3.3	2.00187E-001	1.79954E-005	0.00000E+000	2.00005E-001	0.00000E+000	9	...........	1426.40
	38	3.4	2.00186E-001	1.75928E-005	0.00000E+000	2.00005E-001	0.00000E+000	9	...........	1426.40
	39	3.5	2.00187E-001	1.72308E-005	0.00000E+000	2.00005E-001	0.00000E+000	9	...........	1426.40
	40	3.6	2.00186E-001	1.68393E-005	0.00000E+000	2.00005E-001	0.00000E+000	9	...........	1426.40
	41	3.7	2.00185E-001	1.65041E-005	0.00000E+000	2.00005E-001	0.00000E+000	9	...........	1426.40
	42	3.8	2.00186E-001	1.61567E-005	0.00000E+000	2.00005E-001	0.00000E+000	9	...........	1426.40
	43	3.9	2.00188E-001	1.58567E-005	0.00000E+000	2.00005E-001	0.00000E+000	9	...........	1426.40
	44	4	2.00190E-001	1.55521E-005	0.00000E+000	2.00005E-001	0.00000E+000	9	...........	1426.40
	45	4.1	2.00189E-001	1.52536E-005	0.00000E+000	2.00005E-001	0.00000E+000	9	...........	1426.40
	46	4.2	2.00188E-001	1.49542E-005	0.00000E+000	2.00005E-001	0.00000E+000	9	...........	1426.40
	47	4.3	2.00189E-001	1.46862E-005	0.00000E+000	2.00005E-001	0.00000E+000	9	...........	1426.40
	48	4.4	2.00187E-001	1.44626E-005	0.00000E+000	2.00005E-001	0.00000E+000	9	...........	1426.40
	49	4.5	2.00188E-001	1.42103E-005	0.00000E+000	2.00005E-001	0.00000E+000	9	...........	1426.40
	50	4.6	2.00188E-001	1.39628E-005	0.00000E+000	2.00005E-001	0.00000E+000	9	...........	1426.40
	51	4.7	2.00186E-001	1.37441E-005	0.00000E+000	2.00005E-001	0.00000E+000	9	...........	1426.40
	52	4.8	2.00188E-001	1.35144E-005	0.00000E+000	2.00005E-001	0.00000E+000	9	...........	1426.40
	53	4.9	2.00187E-001	1.32919E-005	0.00000E+000	2.00005E-001	0.00000E+000	9	...........	1426.40
	54	5	2.00186E-001	1.30624E-005	0.00000E+000	2.00005E-001	0.00000E+000	9	...........	1426.40
	55	5.1	2.00189E-001	1.28643E-005	0.00000E+000	2.00005E-001	0.00000E+000	9	...........	1426.40
	56	5.2	2.00188E-001	1.26563E-005	0.00000E+000	2.00005E-001	0.00000E+000	9	...........	1426.40
	57	5.3	2.00189E-001	1.24503E-005	0.00000E+000	2.00005E-001	0.00000E+000	9	...........	1426.40
	58	5.4	2.00188E-001	1.22749E-005	0.00000E+000	2.00005E-001	0.00000E+000	9	...........	1426.40
	59	5.5	2.00186E-001	1.20807E-005	0.00000E+000	2.00005E-001	0.00000E+000	9	...........	1426.40
	60	5.6	2.00188E-001	1.18905E-005	0.00000E+000	2.00005E-001	0.00000E+000	9	...........	1426.40
	61	5.7	2.00188E-001	1.17391E-005	0.00000E+000	2.00005E-001	0.00000E+000	9	...........	1426.40
	62	5.8	2.00187E-001	1.15563E-005	0.00000E+000	2.00005E-001	0.00000E+000	9	...........	1426.40
	63	5.9	2.00188E-001	1.13942E-005	0.00000E+000	2.00005E-001	0.00000E+000	9	...........	1426.40
	64	6	2.00187E-001	1.12036E-005	0.00000E+000	2.00005E-001	0.00000E+000	9	...........	1426.40
	65	6.1	2.00186E-001	1.10733E-005	0.00000E+000	2.00005E-001	0.00000E+000	9	...........	1426.40
	66	7.1	2.00185E-001	9.64320E-006	0.00000E+000	2.00005E-001	0.00000E+000	9	...........	1426.40
	67	8.1	2.00187E-001	8.56218E-006	0.00000E+000	2.00005E-001	0.00000E+000	9	...........	1426.49
	68	9.1	2.00187E-001	7.64734E-006	0.00000E+000	2.00005E-001	0.00000E+000	9	...........	1426.49
	69	10.1	2.00189E-001	6.97298E-006	0.00000E+000	2.00005E-001	0.00000E+000	9	...........	1426.49
	70	11.1	2.00188E-001	6.46532E-006	0.00000E+000	2.00005E-001	0.00000E+000	9	...........	1426.49
	71	12.1	2.00189E-001	6.02570E-006	0.00000E+000	2.00005E-001	0.00000E+000	9	...........	1426.49
	72	13.1	2.00189E-001	5.57543E-006	0.00000E+000	2.00005E-001	0.00000E+000	9	...........	1426.49
	73	14.1	2.00189E-001	5.22848E-006	0.00000E+000	2.00005E-001	0.00000E+000	9	...........	1426.49
	74	15.1	2.00191E-001	4.77111E-006	0.00000E+000	2.00005E-001	0.00000E+000	9	...........	1426.49
	75	16.1	2.00188E-001	4.37066E-006	0.00000E+000	2.00005E-001	0.00000E+000	9	...........	1426.49
	76	26.1	2.00188E-001	2.29859E-006	0.00000E+000	2.00005E-001	0.00000E+000	9	...........	1426.49
	77	36.1	2.00189E-001	1.57878E-006	0.00000E+000	2.00005E-001	0.00000E+000	9	...........	1426.49
	78	46.1	2.00187E-001	8.91335E-007	0.00000E+000	2.00005E-001	0.00000E+000	9	...........	1426.49
	79	56.1	2.00188E-001	7.19191E-007	0.00000E+000	2.00005E-001	0.00000E+000	9	...........	1426.49
	80	66.1	2.00186E-001	3.06131E-007	0.00000E+000	2.00005E-001	0.00000E+000	9	...........	1426.49
	81	76.1	2.00186E-001	3.95390E-007	0.00000E+000	2.00005E-001	0.00000E+000	9	...........	1426.49
	82	86.1	2.00187E-001	7.13892E-008	0.00000E+000	2.00005E-001	0.00000E+000	9	...........	1426.49
	83	96.1	2.00186E-001	2.09365E-007	0.00000E+000	2.00005E-001	0.00000E+000	9	...........	1426.49
	84	106.1	2.00189E-001	-6.05469E-008	0.00000E+000	2.00005E-001	0.00000E+000	9	...........	1426.49
	85	116.1	2.00187E-001	-1.58515E-007	0.00000E+000	2.00005E-001	0.00000E+000	9	...........	1426.49
	86	216.1	2.00190E-001	-2.50910E-007	0.00000E+000	2.00005E-001	0.00000E+000	9	...........	1426.49
	87	300	2.00186E-001	-4.19751E-007	0.00000E+000	2.00005E-001	0.00000E+000	9	...........	1426.49
	88	300.1	3.00199E-001	3.68248E-004	0.00000E+000	3.00005E-001	0.00000E+000	9	...........	1426.49
	89	300.2	3.00058E-001	2.49134E-004	0.00000E+000	3.00005E-001	0.00000E+000	9	...........	1426.49
	90	300.3	3.00054E-001	1.76197E-004	0.00000E+000	3.00005E-001	0.00000E+000	9	...........	1426.49
	91	300.4	3.00060E-001	1.29622E-004	0.00000E+000	3.00005E-001	0.00000E+000	9	...........	1426.49
	92	300.5	3.00067E-001	9.89922E-005	0.00000E+000	3.00005E-001	0.00000E+000	9	...........	1426.49
	93	300.6	3.00061E-001	7.82331E-005	0.00000E+000	3.00005E-001	0.00000E+000	9	...........	1426.49
	94	300.7	3.00060E-001	6.37590E-005	0.00000E+000	3.00005E-001	0.00000E+000	9	...........	1426.49
	95	300.8	3.00052E-001	5.34806E-005	0.00000E+000	3.00005E-001	0.00000E+000	9	...........	1426.49
	96	300.9	3.00042E-001	4.59632E-005	0.00000E+000	3.00005E-001	0.00000E+000	9	...........	1426.49
	97	301	3.00049E-001	4.03653E-005	0.00000E+000	3.00005E-001	0.00000E+000	9	...........	1426.49
