EXPLAIN
TAG	CHRONOA
TITLE	LABEL	Chronoamperometry Scan	Test Identifier
DATE	LABEL	21/2/2022	Date
TIME	LABEL	13:04:31	Time
NOTES	NOTES	1	Notes...
	
PSTAT	PSTAT	IFC1010-21051	Potentiostat
VPRESTEP	POTEN	-7.00000E-001	F	Pre-step Voltage (V)
TPRESTEP	QUANT	5.00000E-001	Pre-step Delay Time (s)
VSTEP1	POTEN	-8.00000E-001	F	Step 1 Voltage (V)
TSTEP1	QUANT	3.00000E+002	Step 1 Time (s)
VSTEP2	POTEN	-7.00000E-001	F	Step 2 Voltage (V)
TSTEP2	QUANT	1.00000E+000	Step 2 Time (s)
SAMPLETIME	QUANT	1.00000E-001	Sample Period (s)
DECIMATE	TOGGLE	T	Decimate
ILIMIT	QUANT	1.00000E+000	Limit I (mA/cm^2)
IMODE	SELECTOR	1	I/E Range Mode
IRANGE	QUANT	3.00000E-001	Max Current (mA)
EQDELAY	QUANT	5.00000E+000	Equil. Time (s)
SAMPLINGMODE	SELECTOR	1	Sampling Mode
AREA	QUANT	1.00000E+000	Sample Area (cm^2)
IRCOMP	SELECTOR	0	IRComp
PFCOR	QUANT	5.00000E+001	PF Corr. (ohm)
SEQUENCER	TOGGLE	TRUE	Run as Sequence
PSTATMODEL	IQUANT	64	Pstat Model
PSTATSECTION	LABEL	IFC1010-21051	Pstat Section
PSTATSERIALNO	LABEL	21051	Pstat Serial Number
CTRLMODE	IQUANT	1	Control Mode
ELECTROMETER	IQUANT	0	RE=0 or CS=1
IESTAB	IQUANT	0	I/E Stability
CASPEED	IQUANT	4	Control Amp Speed
CONVENTION	IQUANT	1	Current Convention
ICHRANGE	IQUANT	2	Ich Range
ICHRANGEMODE	TOGGLE	T	Ich Auto Range
ICHOFFSETENABLE	TOGGLE	F	Ich Offset Enable
ICHOFFSET	QUANT	0	Ich Offset (V)
ICHFILTER	IQUANT	3	Ich Filter
VCHRANGE	IQUANT	3	Vch Range
VCHRANGEMODE	TOGGLE	T	Vch Auto Range
VCHOFFSETENABLE	TOGGLE	F	Vch Offset Enable
VCHOFFSET	QUANT	0	Vch Offset (V)
VCHFILTER	IQUANT	3	Vch Filter
IERANGELOWERLIMIT	IQUANT	4	I/E Range Lower Limit
IERANGEMODE	TOGGLE	F	I/E AutoRange
IERANGE	IQUANT	9	I/E Range
ACHSELECT	IQUANT	0	Ach Select
ACHRANGE	IQUANT	2	Ach Range
ACHOFFSETENABLE	TOGGLE	F	Ach Offset Enable
ACHOFFSET	QUANT	0	Ach Offset (V)
ACHFILTER	IQUANT	1	Ach Filter
SENSECABLEID	IQUANT	14	Sense Cable ID
PWRCABLEID	IQUANT	14	Power Cable ID
DCCALDATE	LABEL	1/24/2022	DC Calibration Date
ACCALDATE	LABEL	4/2/2018	AC Calibration Date
FRAMEWORKVERSION	QUANT	7.06	Framework Version
INSTRUMENTVERSION	LABEL	4.30	Instrument Version
CURVE	TABLE	98
	Pt	T	Vf	Im	Vu	Sig	Ach	IERange	Over	Temp
	#	s	V vs. Ref.	A	V	V	V	#	bits	deg C
	0	-0.4	-7.01745E-001	-1.19110E-004	0.00000E+000	-7.00083E-001	0.00000E+000	9	...........	1426.40
	1	-0.3	-7.01252E-001	-1.18837E-004	0.00000E+000	-7.00083E-001	0.00000E+000	9	...........	1426.40
	2	-0.2	-7.01237E-001	-1.18498E-004	0.00000E+000	-7.00083E-001	0.00000E+000	9	...........	1426.40
	3	-0.1	-7.01254E-001	-1.18266E-004	0.00000E+000	-7.00083E-001	0.00000E+000	9	...........	1426.40
	4	0	-7.01265E-001	-1.18135E-004	0.00000E+000	-7.00083E-001	0.00000E+000	9	...........	1426.40
	5	0.1	-8.01282E-001	-6.08997E-004	0.00000E+000	-8.00083E-001	0.00000E+000	9	...........	1426.40
	6	0.2	-8.01273E-001	-5.14662E-004	0.00000E+000	-8.00083E-001	0.00000E+000	9	...........	1426.40
	7	0.3	-8.01278E-001	-4.55211E-004	0.00000E+000	-8.00083E-001	0.00000E+000	9	...........	1426.40
	8	0.4	-8.01279E-001	-4.11802E-004	0.00000E+000	-8.00083E-001	0.00000E+000	9	...........	1426.40
	9	0.5	-8.01298E-001	-3.78129E-004	0.00000E+000	-8.00083E-001	0.00000E+000	9	...........	1426.40
	10	0.6	-8.01279E-001	-3.50663E-004	0.00000E+000	-8.00083E-001	0.00000E+000	9	...........	1426.31
	11	0.7	-8.01273E-001	-3.27813E-004	0.00000E+000	-8.00083E-001	0.00000E+000	9	...........	1426.31
	12	0.8	-8.01258E-001	-3.08396E-004	0.00000E+000	-8.00083E-001	0.00000E+000	9	...........	1426.31
	13	0.9	-8.01265E-001	-2.92016E-004	0.00000E+000	-8.00083E-001	0.00000E+000	9	...........	1426.31
	14	1	-8.01261E-001	-2.77909E-004	0.00000E+000	-8.00083E-001	0.00000E+000	9	...........	1426.31
	15	1.1	-8.01275E-001	-2.65600E-004	0.00000E+000	-8.00083E-001	0.00000E+000	9	...........	1426.31
	16	1.2	-8.01277E-001	-2.54886E-004	0.00000E+000	-8.00083E-001	0.00000E+000	9	...........	1426.31
	17	1.3	-8.01275E-001	-2.45366E-004	0.00000E+000	-8.00083E-001	0.00000E+000	9	...........	1426.31
	18	1.4	-8.01284E-001	-2.37015E-004	0.00000E+000	-8.00083E-001	0.00000E+000	9	...........	1426.31
	19	1.5	-8.01278E-001	-2.29483E-004	0.00000E+000	-8.00083E-001	0.00000E+000	9	...........	1426.31
	20	1.6	-8.01264E-001	-2.22660E-004	0.00000E+000	-8.00083E-001	0.00000E+000	9	...........	1426.31
	21	1.7	-8.01267E-001	-2.16450E-004	0.00000E+000	-8.00083E-001	0.00000E+000	9	...........	1426.31
	22	1.8	-8.01278E-001	-2.10933E-004	0.00000E+000	-8.00083E-001	0.00000E+000	9	...........	1426.31
	23	1.9	-8.01281E-001	-2.05945E-004	0.00000E+000	-8.00083E-001	0.00000E+000	9	...........	1426.31
	24	2	-8.01271E-001	-2.01298E-004	0.00000E+000	-8.00083E-001	0.00000E+000	9	...........	1426.31
	25	2.1	-8.01275E-001	-1.97224E-004	0.00000E+000	-8.00083E-001	0.00000E+000	9	...........	1426.31
	26	2.2	-8.01257E-001	-1.93309E-004	0.00000E+000	-8.00083E-001	0.00000E+000	9	...........	1426.31
	27	2.3	-8.01273E-001	-1.89910E-004	0.00000E+000	-8.00083E-001	0.00000E+000	9	...........	1426.31
	28	2.4	-8.01269E-001	-1.86652E-004	0.00000E+000	-8.00083E-001	0.00000E+000	9	...........	1426.31
	29	2.5	-8.01278E-001	-1.83771E-004	0.00000E+000	-8.00083E-001	0.00000E+000	9	...........	1426.31
	30	2.6	-8.01270E-001	-1.81055E-004	0.00000E+000	-8.00083E-001	0.00000E+000	9	...........	1426.31
	31	2.7	-8.01270E-001	-1.78558E-004	0.00000E+000	-8.00083E-001	0.00000E+000	9	...........	1426.31
	32	2.8	-8.01274E-001	-1.76222E-004	0.00000E+000	-8.00083E-001	0.00000E+000	9	...........	1426.31
	33	2.9	-8.01274E-001	-1.74082E-004	0.00000E+000	-8.00083E-001	0.00000E+000	9	...........	1426.31
	34	3	-8.01269E-001	-1.72089E-004	0.00000E+000	-8.00083E-001	0.00000E+000	9	...........	1426.31
	35	3.1	-8.01268E-001	-1.70331E-004	0.00000E+000	-8.00083E-001	0.00000E+000	9	...........	1426.31
	36	3.2	-8.01272E-001	-1.68720E-004	0.00000E+000	-8.00083E-001	0.00000E+000	9	...........	1426.31
	37	3.3	-8.01267E-001	-1.67151E-004	0.00000E+000	-8.00083E-001	0.00000E+000	9	...........	1426.31
	38	3.4	-8.01256E-001	-1.65615E-004	0.00000E+000	-8.00083E-001	0.00000E+000	9	...........	1426.31
	39	3.5	-8.01265E-001	-1.64246E-004	0.00000E+000	-8.00083E-001	0.00000E+000	9	...........	1426.31
	40	3.6	-8.01290E-001	-1.63147E-004	0.00000E+000	-8.00083E-001	0.00000E+000	9	...........	1426.31
	41	3.7	-8.01280E-001	-1.61921E-004	0.00000E+000	-8.00083E-001	0.00000E+000	9	...........	1426.31
	42	3.8	-8.01273E-001	-1.60766E-004	0.00000E+000	-8.00083E-001	0.00000E+000	9	...........	1426.31
	43	3.9	-8.01272E-001	-1.59724E-004	0.00000E+000	-8.00083E-001	0.00000E+000	9	...........	1426.31
	44	4	-8.01271E-001	-1.58647E-004	0.00000E+000	-8.00083E-001	0.00000E+000	9	...........	1426.31
	45	4.1	-8.01264E-001	-1.57801E-004	0.00000E+000	-8.00083E-001	0.00000E+000	9	...........	1426.31
	46	4.2	-8.01280E-001	-1.57041E-004	0.00000E+000	-8.00083E-001	0.00000E+000	9	...........	1426.31
	47	4.3	-8.01279E-001	-1.56153E-004	0.00000E+000	-8.00083E-001	0.00000E+000	9	...........	1426.31
	48	4.4	-8.01271E-001	-1.55425E-004	0.00000E+000	-8.00083E-001	0.00000E+000	9	...........	1426.31
	49	4.5	-8.01273E-001	-1.54674E-004	0.00000E+000	-8.00083E-001	0.00000E+000	9	...........	1426.31
	50	4.6	-8.01282E-001	-1.53974E-004	0.00000E+000	-8.00083E-001	0.00000E+000	9	...........	1426.31
	51	4.7	-8.01283E-001	-1.53319E-004	0.00000E+000	-8.00083E-001	0.00000E+000	9	...........	1426.31
	52	4.8	-8.01280E-001	-1.52603E-004	0.00000E+000	-8.00083E-001	0.00000E+000	9	...........	1426.31
	53	4.9	-8.01283E-001	-1.52065E-004	0.00000E+000	-8.00083E-001	0.00000E+000	9	...........	1426.31
	54	5	-8.01283E-001	-1.51527E-004	0.00000E+000	-8.00083E-001	0.00000E+000	9	...........	1426.31
	55	5.1	-8.01277E-001	-1.51038E-004	0.00000E+000	-8.00083E-001	0.00000E+000	9	...........	1426.31
	56	5.2	-8.01280E-001	-1.50426E-004	0.00000E+000	-8.00083E-001	0.00000E+000	9	...........	1426.31
	57	5.3	-8.01277E-001	-1.49975E-004	0.00000E+000	-8.00083E-001	0.00000E+000	9	...........	1426.31
	58	5.4	-8.01278E-001	-1.49503E-004	0.00000E+000	-8.00083E-001	0.00000E+000	9	...........	1426.31
	59	5.5	-8.01290E-001	-1.49135E-004	0.00000E+000	-8.00083E-001	0.00000E+000	9	...........	1426.31
	60	5.6	-8.01281E-001	-1.48658E-004	0.00000E+000	-8.00083E-001	0.00000E+000	9	...........	1426.31
	61	5.7	-8.01272E-001	-1.48227E-004	0.00000E+000	-8.00083E-001	0.00000E+000	9	...........	1426.31
	62	5.8	-8.01267E-001	-1.47857E-004	0.00000E+000	-8.00083E-001	0.00000E+000	9	...........	1426.31
	63	5.9	-8.01285E-001	-1.47506E-004	0.00000E+000	-8.00083E-001	0.00000E+000	9	...........	1426.31
	64	6	-8.01278E-001	-1.47130E-004	0.00000E+000	-8.00083E-001	0.00000E+000	9	...........	1426.31
	65	6.1	-8.01279E-001	-1.46749E-004	0.00000E+000	-8.00083E-001	0.00000E+000	9	...........	1426.31
	66	7.1	-8.01272E-001	-1.43747E-004	0.00000E+000	-8.00083E-001	0.00000E+000	9	...........	1426.22
	67	8.1	-8.01263E-001	-1.41768E-004	0.00000E+000	-8.00083E-001	0.00000E+000	9	...........	1426.31
	68	9.1	-8.01291E-001	-1.40310E-004	0.00000E+000	-8.00083E-001	0.00000E+000	9	...........	1426.31
	69	10.1	-8.01287E-001	-1.39147E-004	0.00000E+000	-8.00083E-001	0.00000E+000	9	...........	1426.31
	70	11.1	-8.01284E-001	-1.38227E-004	0.00000E+000	-8.00083E-001	0.00000E+000	9	...........	1426.31
	71	12.1	-8.01274E-001	-1.37340E-004	0.00000E+000	-8.00083E-001	0.00000E+000	9	...........	1426.31
	72	13.1	-8.01258E-001	-1.36635E-004	0.00000E+000	-8.00083E-001	0.00000E+000	9	...........	1426.31
	73	14.1	-8.01282E-001	-1.36189E-004	0.00000E+000	-8.00083E-001	0.00000E+000	9	...........	1426.31
	74	15.1	-8.01280E-001	-1.35670E-004	0.00000E+000	-8.00083E-001	0.00000E+000	9	...........	1426.31
	75	16.1	-8.01279E-001	-1.35193E-004	0.00000E+000	-8.00083E-001	0.00000E+000	9	...........	1426.31
	76	26.1	-8.01282E-001	-1.32957E-004	0.00000E+000	-8.00083E-001	0.00000E+000	9	...........	1426.40
	77	36.1	-8.01294E-001	-1.32004E-004	0.00000E+000	-8.00083E-001	0.00000E+000	9	...........	1426.40
	78	46.1	-8.01289E-001	-1.31262E-004	0.00000E+000	-8.00083E-001	0.00000E+000	9	...........	1426.40
	79	56.1	-8.01271E-001	-1.30817E-004	0.00000E+000	-8.00083E-001	0.00000E+000	9	...........	1426.40
	80	66.1	-8.01276E-001	-1.30439E-004	0.00000E+000	-8.00083E-001	0.00000E+000	9	...........	1426.31
	81	76.1	-8.01276E-001	-1.30163E-004	0.00000E+000	-8.00083E-001	0.00000E+000	9	...........	1426.40
	82	86.1	-8.01281E-001	-1.29756E-004	0.00000E+000	-8.00083E-001	0.00000E+000	9	...........	1426.31
	83	96.1	-8.01271E-001	-1.29688E-004	0.00000E+000	-8.00083E-001	0.00000E+000	9	...........	1426.40
	84	106.1	-8.01296E-001	-1.29786E-004	0.00000E+000	-8.00083E-001	0.00000E+000	9	...........	1426.31
	85	116.1	-8.01278E-001	-1.29342E-004	0.00000E+000	-8.00083E-001	0.00000E+000	9	...........	1426.31
	86	216.1	-8.01288E-001	-1.29423E-004	0.00000E+000	-8.00083E-001	0.00000E+000	9	...........	1426.40
	87	300	-8.01279E-001	-1.28594E-004	0.00000E+000	-8.00083E-001	0.00000E+000	9	...........	1426.40
	88	300.1	-7.01274E-001	2.86629E-004	0.00000E+000	-7.00083E-001	0.00000E+000	9	...........	1426.40
	89	300.2	-7.01270E-001	1.66695E-004	0.00000E+000	-7.00083E-001	0.00000E+000	9	...........	1426.40
	90	300.3	-7.01262E-001	9.63950E-005	0.00000E+000	-7.00083E-001	0.00000E+000	9	...........	1426.40
	91	300.4	-7.01262E-001	5.23863E-005	0.00000E+000	-7.00083E-001	0.00000E+000	9	...........	1426.40
	92	300.5	-7.01246E-001	2.23099E-005	0.00000E+000	-7.00083E-001	0.00000E+000	9	...........	1426.40
	93	300.6	-7.01258E-001	-1.75566E-007	0.00000E+000	-7.00083E-001	0.00000E+000	9	...........	1426.40
	94	300.7	-7.01251E-001	-1.74939E-005	0.00000E+000	-7.00083E-001	0.00000E+000	9	...........	1426.40
	95	300.8	-7.01248E-001	-3.10007E-005	0.00000E+000	-7.00083E-001	0.00000E+000	9	...........	1426.40
	96	300.9	-7.01246E-001	-4.17288E-005	0.00000E+000	-7.00083E-001	0.00000E+000	9	...........	1426.40
	97	301	-7.01253E-001	-5.01751E-005	0.00000E+000	-7.00083E-001	0.00000E+000	9	...........	1426.40
