EXPLAIN
TAG	CHRONOA
TITLE	LABEL	Chronoamperometry Scan	Test Identifier
DATE	LABEL	21/2/2022	Date
TIME	LABEL	16:11:00	Time
NOTES	NOTES	1	Notes...
	
PSTAT	PSTAT	IFC1010-21051	Potentiostat
VPRESTEP	POTEN	0.00000E+000	F	Pre-step Voltage (V)
TPRESTEP	QUANT	5.00000E-001	Pre-step Delay Time (s)
VSTEP1	POTEN	-2.00000E-001	F	Step 1 Voltage (V)
TSTEP1	QUANT	3.00000E+002	Step 1 Time (s)
VSTEP2	POTEN	-3.00000E-001	F	Step 2 Voltage (V)
TSTEP2	QUANT	1.00000E+000	Step 2 Time (s)
SAMPLETIME	QUANT	1.00000E-001	Sample Period (s)
DECIMATE	TOGGLE	T	Decimate
ILIMIT	QUANT	1.00000E+000	Limit I (mA/cm^2)
IMODE	SELECTOR	1	I/E Range Mode
IRANGE	QUANT	3.00000E-001	Max Current (mA)
EQDELAY	QUANT	5.00000E+000	Equil. Time (s)
SAMPLINGMODE	SELECTOR	1	Sampling Mode
AREA	QUANT	1.00000E+000	Sample Area (cm^2)
IRCOMP	SELECTOR	0	IRComp
PFCOR	QUANT	5.00000E+001	PF Corr. (ohm)
SEQUENCER	TOGGLE	TRUE	Run as Sequence
PSTATMODEL	IQUANT	64	Pstat Model
PSTATSECTION	LABEL	IFC1010-21051	Pstat Section
PSTATSERIALNO	LABEL	21051	Pstat Serial Number
CTRLMODE	IQUANT	1	Control Mode
ELECTROMETER	IQUANT	0	RE=0 or CS=1
IESTAB	IQUANT	0	I/E Stability
CASPEED	IQUANT	4	Control Amp Speed
CONVENTION	IQUANT	1	Current Convention
ICHRANGE	IQUANT	2	Ich Range
ICHRANGEMODE	TOGGLE	T	Ich Auto Range
ICHOFFSETENABLE	TOGGLE	F	Ich Offset Enable
ICHOFFSET	QUANT	0	Ich Offset (V)
ICHFILTER	IQUANT	3	Ich Filter
VCHRANGE	IQUANT	3	Vch Range
VCHRANGEMODE	TOGGLE	T	Vch Auto Range
VCHOFFSETENABLE	TOGGLE	F	Vch Offset Enable
VCHOFFSET	QUANT	0	Vch Offset (V)
VCHFILTER	IQUANT	3	Vch Filter
IERANGELOWERLIMIT	IQUANT	4	I/E Range Lower Limit
IERANGEMODE	TOGGLE	F	I/E AutoRange
IERANGE	IQUANT	9	I/E Range
ACHSELECT	IQUANT	0	Ach Select
ACHRANGE	IQUANT	2	Ach Range
ACHOFFSETENABLE	TOGGLE	F	Ach Offset Enable
ACHOFFSET	QUANT	0	Ach Offset (V)
ACHFILTER	IQUANT	1	Ach Filter
SENSECABLEID	IQUANT	14	Sense Cable ID
PWRCABLEID	IQUANT	14	Power Cable ID
DCCALDATE	LABEL	1/24/2022	DC Calibration Date
ACCALDATE	LABEL	4/2/2018	AC Calibration Date
FRAMEWORKVERSION	QUANT	7.06	Framework Version
INSTRUMENTVERSION	LABEL	4.30	Instrument Version
CURVE	TABLE	98
	Pt	T	Vf	Im	Vu	Sig	Ach	IERange	Over	Temp
	#	s	V vs. Ref.	A	V	V	V	#	bits	deg C
	0	-0.4	-1.03548E-003	-7.98666E-006	0.00000E+000	-6.72489E-005	0.00000E+000	9	...........	1426.40
	1	-0.3	-3.69185E-004	-7.95923E-006	0.00000E+000	-6.72489E-005	0.00000E+000	9	...........	1426.40
	2	-0.2	-2.22242E-004	-7.93794E-006	0.00000E+000	-6.72489E-005	0.00000E+000	9	...........	1426.40
	3	-0.1	-2.09505E-004	-7.92476E-006	0.00000E+000	-6.72489E-005	0.00000E+000	9	...........	1426.40
	4	0	-2.10538E-004	-7.89466E-006	0.00000E+000	-6.72489E-005	0.00000E+000	9	...........	1426.40
	5	0.1	-3.29270E-002	-5.53079E-004	0.00000E+000	-2.00066E-001	0.00000E+000	9	.........v.	1426.40
	6	0.2	-2.00253E-001	-3.71000E-004	0.00000E+000	-2.00066E-001	0.00000E+000	9	...........	1426.40
	7	0.3	-2.00255E-001	-3.05697E-004	0.00000E+000	-2.00066E-001	0.00000E+000	9	...........	1426.40
	8	0.4	-2.00254E-001	-2.70192E-004	0.00000E+000	-2.00066E-001	0.00000E+000	9	...........	1426.40
	9	0.5	-2.00256E-001	-2.45513E-004	0.00000E+000	-2.00066E-001	0.00000E+000	9	...........	1426.40
	10	0.6	-2.00255E-001	-2.26316E-004	0.00000E+000	-2.00066E-001	0.00000E+000	9	...........	1426.40
	11	0.7	-2.00255E-001	-2.10561E-004	0.00000E+000	-2.00066E-001	0.00000E+000	9	...........	1426.40
	12	0.8	-2.00255E-001	-1.97251E-004	0.00000E+000	-2.00066E-001	0.00000E+000	9	...........	1426.40
	13	0.9	-2.00256E-001	-1.85778E-004	0.00000E+000	-2.00066E-001	0.00000E+000	9	...........	1426.40
	14	1	-2.00255E-001	-1.75798E-004	0.00000E+000	-2.00066E-001	0.00000E+000	9	...........	1426.40
	15	1.1	-2.00258E-001	-1.67006E-004	0.00000E+000	-2.00066E-001	0.00000E+000	9	...........	1426.40
	16	1.2	-2.00258E-001	-1.59200E-004	0.00000E+000	-2.00066E-001	0.00000E+000	9	...........	1426.40
	17	1.3	-2.00257E-001	-1.52201E-004	0.00000E+000	-2.00066E-001	0.00000E+000	9	...........	1426.40
	18	1.4	-2.00258E-001	-1.45916E-004	0.00000E+000	-2.00066E-001	0.00000E+000	9	...........	1426.49
	19	1.5	-2.00259E-001	-1.40236E-004	0.00000E+000	-2.00066E-001	0.00000E+000	9	...........	1426.49
	20	1.6	-2.00259E-001	-1.35041E-004	0.00000E+000	-2.00066E-001	0.00000E+000	9	...........	1426.49
	21	1.7	-2.00258E-001	-1.30371E-004	0.00000E+000	-2.00066E-001	0.00000E+000	9	...........	1426.49
	22	1.8	-2.00256E-001	-1.26025E-004	0.00000E+000	-2.00066E-001	0.00000E+000	9	...........	1426.49
	23	1.9	-2.00256E-001	-1.22061E-004	0.00000E+000	-2.00066E-001	0.00000E+000	9	...........	1426.49
	24	2	-2.00258E-001	-1.18401E-004	0.00000E+000	-2.00066E-001	0.00000E+000	9	...........	1426.49
	25	2.1	-2.00259E-001	-1.14996E-004	0.00000E+000	-2.00066E-001	0.00000E+000	9	...........	1426.49
	26	2.2	-2.00259E-001	-1.11828E-004	0.00000E+000	-2.00066E-001	0.00000E+000	9	...........	1426.49
	27	2.3	-2.00259E-001	-1.08902E-004	0.00000E+000	-2.00066E-001	0.00000E+000	9	...........	1426.49
	28	2.4	-2.00259E-001	-1.06137E-004	0.00000E+000	-2.00066E-001	0.00000E+000	9	...........	1426.13
	29	2.5	-2.00259E-001	-1.03575E-004	0.00000E+000	-2.00066E-001	0.00000E+000	9	...........	1426.13
	30	2.6	-2.00258E-001	-1.01138E-004	0.00000E+000	-2.00066E-001	0.00000E+000	9	...........	1426.13
	31	2.7	-2.00260E-001	-9.88803E-005	0.00000E+000	-2.00066E-001	0.00000E+000	9	...........	1426.13
	32	2.8	-2.00257E-001	-9.67185E-005	0.00000E+000	-2.00066E-001	0.00000E+000	9	...........	1426.13
	33	2.9	-2.00259E-001	-9.47300E-005	0.00000E+000	-2.00066E-001	0.00000E+000	9	...........	1426.13
	34	3	-2.00259E-001	-9.28167E-005	0.00000E+000	-2.00066E-001	0.00000E+000	9	...........	1426.13
	35	3.1	-2.00259E-001	-9.10130E-005	0.00000E+000	-2.00066E-001	0.00000E+000	9	...........	1426.13
	36	3.2	-2.00258E-001	-8.92927E-005	0.00000E+000	-2.00066E-001	0.00000E+000	9	...........	1426.13
	37	3.3	-2.00258E-001	-8.76600E-005	0.00000E+000	-2.00066E-001	0.00000E+000	9	...........	1426.13
	38	3.4	-2.00260E-001	-8.61133E-005	0.00000E+000	-2.00066E-001	0.00000E+000	9	...........	1426.49
	39	3.5	-2.00260E-001	-8.46203E-005	0.00000E+000	-2.00066E-001	0.00000E+000	9	...........	1426.49
	40	3.6	-2.00258E-001	-8.32321E-005	0.00000E+000	-2.00066E-001	0.00000E+000	9	...........	1426.49
	41	3.7	-2.00258E-001	-8.18827E-005	0.00000E+000	-2.00066E-001	0.00000E+000	9	...........	1426.49
	42	3.8	-2.00258E-001	-8.05575E-005	0.00000E+000	-2.00066E-001	0.00000E+000	9	...........	1426.49
	43	3.9	-2.00258E-001	-7.93592E-005	0.00000E+000	-2.00066E-001	0.00000E+000	9	...........	1426.49
	44	4	-2.00257E-001	-7.81727E-005	0.00000E+000	-2.00066E-001	0.00000E+000	9	...........	1426.49
	45	4.1	-2.00257E-001	-7.70851E-005	0.00000E+000	-2.00066E-001	0.00000E+000	9	...........	1426.49
	46	4.2	-2.00257E-001	-7.60002E-005	0.00000E+000	-2.00066E-001	0.00000E+000	9	...........	1426.49
	47	4.3	-2.00259E-001	-7.49739E-005	0.00000E+000	-2.00066E-001	0.00000E+000	9	...........	1426.49
	48	4.4	-2.00255E-001	-7.39355E-005	0.00000E+000	-2.00066E-001	0.00000E+000	9	...........	1426.40
	49	4.5	-2.00258E-001	-7.30152E-005	0.00000E+000	-2.00066E-001	0.00000E+000	9	...........	1426.40
	50	4.6	-2.00259E-001	-7.20768E-005	0.00000E+000	-2.00066E-001	0.00000E+000	9	...........	1426.40
	51	4.7	-2.00259E-001	-7.11788E-005	0.00000E+000	-2.00066E-001	0.00000E+000	9	...........	1426.40
	52	4.8	-2.00259E-001	-7.03656E-005	0.00000E+000	-2.00066E-001	0.00000E+000	9	...........	1426.40
	53	4.9	-2.00259E-001	-6.95176E-005	0.00000E+000	-2.00066E-001	0.00000E+000	9	...........	1426.40
	54	5	-2.00258E-001	-6.87242E-005	0.00000E+000	-2.00066E-001	0.00000E+000	9	...........	1426.40
	55	5.1	-2.00258E-001	-6.79131E-005	0.00000E+000	-2.00066E-001	0.00000E+000	9	...........	1426.40
	56	5.2	-2.00259E-001	-6.71582E-005	0.00000E+000	-2.00066E-001	0.00000E+000	9	...........	1426.40
	57	5.3	-2.00257E-001	-6.64090E-005	0.00000E+000	-2.00066E-001	0.00000E+000	9	...........	1426.40
	58	5.4	-2.00258E-001	-6.57095E-005	0.00000E+000	-2.00066E-001	0.00000E+000	9	...........	1426.04
	59	5.5	-2.00259E-001	-6.50327E-005	0.00000E+000	-2.00066E-001	0.00000E+000	9	...........	1426.04
	60	5.6	-2.00258E-001	-6.44052E-005	0.00000E+000	-2.00066E-001	0.00000E+000	9	...........	1426.04
	61	5.7	-2.00259E-001	-6.37692E-005	0.00000E+000	-2.00066E-001	0.00000E+000	9	...........	1426.04
	62	5.8	-2.00258E-001	-6.31408E-005	0.00000E+000	-2.00066E-001	0.00000E+000	9	...........	1426.04
	63	5.9	-2.00259E-001	-6.25239E-005	0.00000E+000	-2.00066E-001	0.00000E+000	9	...........	1426.04
	64	6	-2.00259E-001	-6.19407E-005	0.00000E+000	-2.00066E-001	0.00000E+000	9	...........	1426.04
	65	6.1	-2.00259E-001	-6.13687E-005	0.00000E+000	-2.00066E-001	0.00000E+000	9	...........	1426.04
	66	7.1	-2.00259E-001	-5.64786E-005	0.00000E+000	-2.00066E-001	0.00000E+000	9	...........	1426.49
	67	8.1	-2.00259E-001	-5.25942E-005	0.00000E+000	-2.00066E-001	0.00000E+000	9	...........	1426.49
	68	9.1	-2.00258E-001	-4.94515E-005	0.00000E+000	-2.00066E-001	0.00000E+000	9	...........	1426.49
	69	10.1	-2.00257E-001	-4.67962E-005	0.00000E+000	-2.00066E-001	0.00000E+000	9	...........	1426.57
	70	11.1	-2.00255E-001	-4.46562E-005	0.00000E+000	-2.00066E-001	0.00000E+000	9	...........	1426.57
	71	12.1	-2.00257E-001	-4.28660E-005	0.00000E+000	-2.00066E-001	0.00000E+000	9	...........	1426.57
	72	13.1	-2.00259E-001	-4.13321E-005	0.00000E+000	-2.00066E-001	0.00000E+000	9	...........	1426.57
	73	14.1	-2.00258E-001	-4.00237E-005	0.00000E+000	-2.00066E-001	0.00000E+000	9	...........	1426.57
	74	15.1	-2.00259E-001	-3.89533E-005	0.00000E+000	-2.00066E-001	0.00000E+000	9	...........	1426.57
	75	16.1	-2.00259E-001	-3.80195E-005	0.00000E+000	-2.00066E-001	0.00000E+000	9	...........	1426.57
	76	26.1	-2.00258E-001	-3.16222E-005	0.00000E+000	-2.00066E-001	0.00000E+000	9	...........	1426.57
	77	36.1	-2.00261E-001	-2.85361E-005	0.00000E+000	-2.00066E-001	0.00000E+000	9	...........	1426.57
	78	46.1	-2.00260E-001	-2.67259E-005	0.00000E+000	-2.00066E-001	0.00000E+000	9	...........	1426.49
	79	56.1	-2.00259E-001	-2.55310E-005	0.00000E+000	-2.00066E-001	0.00000E+000	9	...........	1426.57
	80	66.1	-2.00258E-001	-2.48544E-005	0.00000E+000	-2.00066E-001	0.00000E+000	9	...........	1426.49
	81	76.1	-2.00260E-001	-2.42384E-005	0.00000E+000	-2.00066E-001	0.00000E+000	9	...........	1426.57
	82	86.1	-2.00258E-001	-2.35867E-005	0.00000E+000	-2.00066E-001	0.00000E+000	9	...........	1426.57
	83	96.1	-2.00258E-001	-2.34885E-005	0.00000E+000	-2.00066E-001	0.00000E+000	9	...........	1426.57
	84	106.1	-2.00258E-001	-2.29652E-005	0.00000E+000	-2.00066E-001	0.00000E+000	9	...........	1426.49
	85	116.1	-2.00258E-001	-2.26525E-005	0.00000E+000	-2.00066E-001	0.00000E+000	9	...........	1426.57
	86	216.1	-2.00259E-001	-2.12482E-005	0.00000E+000	-2.00066E-001	0.00000E+000	9	...........	1426.57
	87	300	-2.00261E-001	-2.11659E-005	0.00000E+000	-2.00066E-001	0.00000E+000	9	...........	1426.57
	88	300.1	-3.00267E-001	-2.64327E-004	0.00000E+000	-3.00066E-001	0.00000E+000	9	...........	1426.57
	89	300.2	-3.00445E-001	-1.44824E-004	0.00000E+000	-3.00066E-001	0.00000E+000	9	...........	1426.57
	90	300.3	-3.00439E-001	-1.01971E-004	0.00000E+000	-3.00066E-001	0.00000E+000	9	...........	1426.57
	91	300.4	-3.00423E-001	-8.36259E-005	0.00000E+000	-3.00066E-001	0.00000E+000	9	...........	1426.57
	92	300.5	-3.00423E-001	-7.44399E-005	0.00000E+000	-3.00066E-001	0.00000E+000	9	...........	1426.57
	93	300.6	-3.00429E-001	-6.92451E-005	0.00000E+000	-3.00066E-001	0.00000E+000	9	...........	1426.57
	94	300.7	-3.00427E-001	-6.59224E-005	0.00000E+000	-3.00066E-001	0.00000E+000	9	...........	1426.57
	95	300.8	-3.00422E-001	-6.35164E-005	0.00000E+000	-3.00066E-001	0.00000E+000	9	...........	1426.57
	96	300.9	-3.00440E-001	-6.17854E-005	0.00000E+000	-3.00066E-001	0.00000E+000	9	...........	1426.57
	97	301	-3.00435E-001	-6.03421E-005	0.00000E+000	-3.00066E-001	0.00000E+000	9	...........	1426.57
