EXPLAIN
TAG	CHRONOA
TITLE	LABEL	Chronoamperometry Scan	Test Identifier
DATE	LABEL	21/2/2022	Date
TIME	LABEL	16:09:53	Time
NOTES	NOTES	1	Notes...
	
PSTAT	PSTAT	IFC1010-21051	Potentiostat
VPRESTEP	POTEN	1.00000E-001	F	Pre-step Voltage (V)
TPRESTEP	QUANT	5.00000E-001	Pre-step Delay Time (s)
VSTEP1	POTEN	0.00000E+000	F	Step 1 Voltage (V)
TSTEP1	QUANT	6.00000E+001	Step 1 Time (s)
VSTEP2	POTEN	1.00000E-001	F	Step 2 Voltage (V)
TSTEP2	QUANT	1.00000E+000	Step 2 Time (s)
SAMPLETIME	QUANT	1.00000E-002	Sample Period (s)
DECIMATE	TOGGLE	T	Decimate
ILIMIT	QUANT	1.00000E+000	Limit I (mA/cm^2)
IMODE	SELECTOR	1	I/E Range Mode
IRANGE	QUANT	3.00000E-001	Max Current (mA)
EQDELAY	QUANT	5.00000E+000	Equil. Time (s)
SAMPLINGMODE	SELECTOR	1	Sampling Mode
AREA	QUANT	1.00000E+000	Sample Area (cm^2)
IRCOMP	SELECTOR	0	IRComp
PFCOR	QUANT	5.00000E+001	PF Corr. (ohm)
SEQUENCER	TOGGLE	TRUE	Run as Sequence
PSTATMODEL	IQUANT	64	Pstat Model
PSTATSECTION	LABEL	IFC1010-21051	Pstat Section
PSTATSERIALNO	LABEL	21051	Pstat Serial Number
CTRLMODE	IQUANT	1	Control Mode
ELECTROMETER	IQUANT	0	RE=0 or CS=1
IESTAB	IQUANT	0	I/E Stability
CASPEED	IQUANT	4	Control Amp Speed
CONVENTION	IQUANT	1	Current Convention
ICHRANGE	IQUANT	2	Ich Range
ICHRANGEMODE	TOGGLE	T	Ich Auto Range
ICHOFFSETENABLE	TOGGLE	F	Ich Offset Enable
ICHOFFSET	QUANT	0	Ich Offset (V)
ICHFILTER	IQUANT	3	Ich Filter
VCHRANGE	IQUANT	3	Vch Range
VCHRANGEMODE	TOGGLE	T	Vch Auto Range
VCHOFFSETENABLE	TOGGLE	F	Vch Offset Enable
VCHOFFSET	QUANT	0	Vch Offset (V)
VCHFILTER	IQUANT	3	Vch Filter
IERANGELOWERLIMIT	IQUANT	4	I/E Range Lower Limit
IERANGEMODE	TOGGLE	F	I/E AutoRange
IERANGE	IQUANT	9	I/E Range
ACHSELECT	IQUANT	0	Ach Select
ACHRANGE	IQUANT	2	Ach Range
ACHOFFSETENABLE	TOGGLE	F	Ach Offset Enable
ACHOFFSET	QUANT	0	Ach Offset (V)
ACHFILTER	IQUANT	1	Ach Filter
SENSECABLEID	IQUANT	14	Sense Cable ID
PWRCABLEID	IQUANT	14	Power Cable ID
DCCALDATE	LABEL	1/24/2022	DC Calibration Date
ACCALDATE	LABEL	4/2/2018	AC Calibration Date
FRAMEWORKVERSION	QUANT	7.06	Framework Version
INSTRUMENTVERSION	LABEL	4.30	Instrument Version
CURVE	TABLE	201
	Pt	T	Vf	Im	Vu	Sig	Ach	IERange	Over	Temp
	#	s	V vs. Ref.	A	V	V	V	#	bits	deg C
	0	-0.49	9.90908E-002	-7.68400E-005	0.00000E+000	9.99387E-002	0.00000E+000	9	...........	1426.40
	1	-0.48	9.97777E-002	-7.60703E-005	0.00000E+000	9.99387E-002	0.00000E+000	9	...........	1426.40
	2	-0.47	9.99493E-002	-7.66801E-005	0.00000E+000	9.99387E-002	0.00000E+000	9	...........	1426.40
	3	-0.46	9.99486E-002	-7.58798E-005	0.00000E+000	9.99387E-002	0.00000E+000	9	...........	1426.40
	4	-0.45	9.99513E-002	-7.65224E-005	0.00000E+000	9.99387E-002	0.00000E+000	9	...........	1426.40
	5	-0.44	9.99502E-002	-7.57052E-005	0.00000E+000	9.99387E-002	0.00000E+000	9	...........	1426.40
	6	-0.43	9.99500E-002	-7.63750E-005	0.00000E+000	9.99387E-002	0.00000E+000	9	...........	1426.40
	7	-0.42	9.99465E-002	-7.55275E-005	0.00000E+000	9.99387E-002	0.00000E+000	9	...........	1426.40
	8	-0.41	9.99496E-002	-7.62210E-005	0.00000E+000	9.99387E-002	0.00000E+000	9	...........	1426.40
	9	-0.4	9.99493E-002	-7.53415E-005	0.00000E+000	9.99387E-002	0.00000E+000	9	...........	1426.40
	10	-0.39	9.99470E-002	-7.60845E-005	0.00000E+000	9.99387E-002	0.00000E+000	9	...........	1426.40
	11	-0.38	9.99472E-002	-7.51744E-005	0.00000E+000	9.99387E-002	0.00000E+000	9	...........	1426.40
	12	-0.37	9.99493E-002	-7.59007E-005	0.00000E+000	9.99387E-002	0.00000E+000	9	...........	1426.40
	13	-0.36	9.99480E-002	-7.49917E-005	0.00000E+000	9.99387E-002	0.00000E+000	9	...........	1426.40
	14	-0.35	9.99507E-002	-7.57502E-005	0.00000E+000	9.99387E-002	0.00000E+000	9	...........	1426.40
	15	-0.34	9.99464E-002	-7.48287E-005	0.00000E+000	9.99387E-002	0.00000E+000	9	...........	1426.40
	16	-0.33	9.99476E-002	-7.56053E-005	0.00000E+000	9.99387E-002	0.00000E+000	9	...........	1426.40
	17	-0.32	9.99464E-002	-7.46416E-005	0.00000E+000	9.99387E-002	0.00000E+000	9	...........	1426.40
	18	-0.31	9.99483E-002	-7.54460E-005	0.00000E+000	9.99387E-002	0.00000E+000	9	...........	1426.40
	19	-0.3	9.99461E-002	-7.44745E-005	0.00000E+000	9.99387E-002	0.00000E+000	9	...........	1426.40
	20	-0.29	9.99508E-002	-7.52831E-005	0.00000E+000	9.99387E-002	0.00000E+000	9	...........	1426.40
	21	-0.28	9.99481E-002	-7.43079E-005	0.00000E+000	9.99387E-002	0.00000E+000	9	...........	1426.40
	22	-0.27	9.99507E-002	-7.51229E-005	0.00000E+000	9.99387E-002	0.00000E+000	9	...........	1426.40
	23	-0.26	9.99462E-002	-7.41680E-005	0.00000E+000	9.99387E-002	0.00000E+000	9	...........	1426.40
	24	-0.25	9.99466E-002	-7.49691E-005	0.00000E+000	9.99387E-002	0.00000E+000	9	...........	1426.40
	25	-0.24	9.99473E-002	-7.39876E-005	0.00000E+000	9.99387E-002	0.00000E+000	9	...........	1426.40
	26	-0.23	9.99492E-002	-7.48234E-005	0.00000E+000	9.99387E-002	0.00000E+000	9	...........	1426.40
	27	-0.22	9.99488E-002	-7.38271E-005	0.00000E+000	9.99387E-002	0.00000E+000	9	...........	1426.40
	28	-0.21	9.99477E-002	-7.46708E-005	0.00000E+000	9.99387E-002	0.00000E+000	9	...........	1426.40
	29	-0.2	9.99484E-002	-7.36650E-005	0.00000E+000	9.99387E-002	0.00000E+000	9	...........	1426.40
	30	-0.19	9.99488E-002	-7.45217E-005	0.00000E+000	9.99387E-002	0.00000E+000	9	...........	1426.40
	31	-0.18	9.99456E-002	-7.35243E-005	0.00000E+000	9.99387E-002	0.00000E+000	9	...........	1426.40
	32	-0.17	9.99504E-002	-7.43727E-005	0.00000E+000	9.99387E-002	0.00000E+000	9	...........	1426.40
	33	-0.16	9.99496E-002	-7.33597E-005	0.00000E+000	9.99387E-002	0.00000E+000	9	...........	1426.40
	34	-0.15	9.99463E-002	-7.42111E-005	0.00000E+000	9.99387E-002	0.00000E+000	9	...........	1426.40
	35	-0.14	9.99471E-002	-7.32051E-005	0.00000E+000	9.99387E-002	0.00000E+000	9	...........	1426.40
	36	-0.13	9.99466E-002	-7.40546E-005	0.00000E+000	9.99387E-002	0.00000E+000	9	...........	1426.40
	37	-0.12	9.99459E-002	-7.30433E-005	0.00000E+000	9.99387E-002	0.00000E+000	9	...........	1426.40
	38	-0.11	9.99506E-002	-7.39005E-005	0.00000E+000	9.99387E-002	0.00000E+000	9	...........	1426.40
	39	-0.1	9.99490E-002	-7.28720E-005	0.00000E+000	9.99387E-002	0.00000E+000	9	...........	1426.40
	40	-0.09	9.99456E-002	-7.37604E-005	0.00000E+000	9.99387E-002	0.00000E+000	9	...........	1426.40
	41	-0.08	9.99474E-002	-7.27185E-005	0.00000E+000	9.99387E-002	0.00000E+000	9	...........	1426.40
	42	-0.07	9.99464E-002	-7.36291E-005	0.00000E+000	9.99387E-002	0.00000E+000	9	...........	1426.40
	43	-0.06	9.99504E-002	-7.25667E-005	0.00000E+000	9.99387E-002	0.00000E+000	9	...........	1426.40
	44	-0.05	9.99451E-002	-7.34740E-005	0.00000E+000	9.99387E-002	0.00000E+000	9	...........	1426.40
	45	-0.04	9.99488E-002	-7.24365E-005	0.00000E+000	9.99387E-002	0.00000E+000	9	...........	1426.40
	46	-0.03	9.99469E-002	-7.33458E-005	0.00000E+000	9.99387E-002	0.00000E+000	9	...........	1426.40
	47	-0.02	9.99449E-002	-7.22836E-005	0.00000E+000	9.99387E-002	0.00000E+000	9	...........	1426.40
	48	-0.01	9.99444E-002	-7.32137E-005	0.00000E+000	9.99387E-002	0.00000E+000	9	...........	1426.40
	49	0	9.99469E-002	-7.21223E-005	0.00000E+000	9.99387E-002	0.00000E+000	9	...........	1426.40
	50	0.01	-6.96224E-005	-6.23553E-004	0.00000E+000	-6.08154E-005	0.00000E+000	9	...........	1426.40
	51	0.02	-6.20618E-005	-5.69226E-004	0.00000E+000	-6.08154E-005	0.00000E+000	9	...........	1426.40
	52	0.03	-5.75812E-005	-5.30075E-004	0.00000E+000	-6.08154E-005	0.00000E+000	9	...........	1426.40
	53	0.04	-5.61211E-005	-4.95363E-004	0.00000E+000	-6.08154E-005	0.00000E+000	9	...........	1426.40
	54	0.05	-5.60627E-005	-4.67308E-004	0.00000E+000	-6.08154E-005	0.00000E+000	9	...........	1426.40
	55	0.06	-5.95003E-005	-4.40809E-004	0.00000E+000	-6.08154E-005	0.00000E+000	9	...........	1426.40
	56	0.07	-5.93167E-005	-4.19349E-004	0.00000E+000	-6.08154E-005	0.00000E+000	9	...........	1426.40
	57	0.08	-5.84740E-005	-3.98326E-004	0.00000E+000	-6.08154E-005	0.00000E+000	9	...........	1426.40
	58	0.09	-5.91665E-005	-3.81537E-004	0.00000E+000	-6.08154E-005	0.00000E+000	9	...........	1426.40
	59	0.1	-6.04681E-005	-3.64459E-004	0.00000E+000	-6.08154E-005	0.00000E+000	9	...........	1426.40
	60	0.11	-5.96338E-005	-3.51134E-004	0.00000E+000	-6.08154E-005	0.00000E+000	9	...........	1426.40
	61	0.12	-6.08519E-005	-3.37070E-004	0.00000E+000	-6.08154E-005	0.00000E+000	9	...........	1426.40
	62	0.13	-5.83906E-005	-3.26342E-004	0.00000E+000	-6.08154E-005	0.00000E+000	9	...........	1426.40
	63	0.14	-5.94836E-005	-3.14564E-004	0.00000E+000	-6.08154E-005	0.00000E+000	9	...........	1426.40
	64	0.15	-5.54703E-005	-3.05843E-004	0.00000E+000	-6.08154E-005	0.00000E+000	9	...........	1426.40
	65	0.16	-5.83906E-005	-2.95882E-004	0.00000E+000	-6.08154E-005	0.00000E+000	9	...........	1426.40
	66	0.17	-5.73393E-005	-2.88754E-004	0.00000E+000	-6.08154E-005	0.00000E+000	9	...........	1426.40
	67	0.18	-5.78566E-005	-2.80178E-004	0.00000E+000	-6.08154E-005	0.00000E+000	9	...........	1426.40
	68	0.19	-5.73893E-005	-2.74340E-004	0.00000E+000	-6.08154E-005	0.00000E+000	9	...........	1426.40
	69	0.2	-5.96922E-005	-2.66887E-004	0.00000E+000	-6.08154E-005	0.00000E+000	9	...........	1426.40
	70	0.21	-5.89162E-005	-2.62053E-004	0.00000E+000	-6.08154E-005	0.00000E+000	9	...........	1426.40
	71	0.22	-6.07351E-005	-2.55524E-004	0.00000E+000	-6.08154E-005	0.00000E+000	9	...........	1426.40
	72	0.23	-5.80902E-005	-2.51497E-004	0.00000E+000	-6.08154E-005	0.00000E+000	9	...........	1426.40
	73	0.24	-6.07685E-005	-2.45711E-004	0.00000E+000	-6.08154E-005	0.00000E+000	9	...........	1426.40
	74	0.25	-5.83822E-005	-2.42352E-004	0.00000E+000	-6.08154E-005	0.00000E+000	9	...........	1426.40
	75	0.26	-5.71057E-005	-2.37136E-004	0.00000E+000	-6.08154E-005	0.00000E+000	9	...........	1426.40
	76	0.27	-5.98006E-005	-2.34366E-004	0.00000E+000	-6.08154E-005	0.00000E+000	9	...........	1426.40
	77	0.28	-5.89162E-005	-2.29687E-004	0.00000E+000	-6.08154E-005	0.00000E+000	9	...........	1426.40
	78	0.29	-6.25874E-005	-2.27378E-004	0.00000E+000	-6.08154E-005	0.00000E+000	9	...........	1426.40
	79	0.3	-5.94001E-005	-2.23088E-004	0.00000E+000	-6.08154E-005	0.00000E+000	9	...........	1426.40
	80	0.31	-6.01678E-005	-2.21133E-004	0.00000E+000	-6.08154E-005	0.00000E+000	9	...........	1426.40
	81	0.32	-5.77231E-005	-2.17215E-004	0.00000E+000	-6.08154E-005	0.00000E+000	9	...........	1426.40
	82	0.33	-5.98090E-005	-2.15598E-004	0.00000E+000	-6.08154E-005	0.00000E+000	9	...........	1426.40
	83	0.34	-5.69888E-005	-2.11969E-004	0.00000E+000	-6.08154E-005	0.00000E+000	9	...........	1426.40
	84	0.35	-5.76647E-005	-2.10628E-004	0.00000E+000	-6.08154E-005	0.00000E+000	9	...........	1426.40
	85	0.36	-5.79650E-005	-2.07282E-004	0.00000E+000	-6.08154E-005	0.00000E+000	9	...........	1426.40
	86	0.37	-6.03013E-005	-2.06150E-004	0.00000E+000	-6.08154E-005	0.00000E+000	9	...........	1426.40
	87	0.38	-5.95837E-005	-2.03038E-004	0.00000E+000	-6.08154E-005	0.00000E+000	9	...........	1426.40
	88	0.39	-5.94669E-005	-2.02097E-004	0.00000E+000	-6.08154E-005	0.00000E+000	9	...........	1426.40
	89	0.4	-5.64465E-005	-1.99166E-004	0.00000E+000	-6.08154E-005	0.00000E+000	9	...........	1426.40
	90	0.41	-5.85157E-005	-1.98384E-004	0.00000E+000	-6.08154E-005	0.00000E+000	9	...........	1426.40
	91	0.42	-6.19032E-005	-1.95646E-004	0.00000E+000	-6.08154E-005	0.00000E+000	9	...........	1426.40
	92	0.43	-5.75061E-005	-1.94985E-004	0.00000E+000	-6.08154E-005	0.00000E+000	9	...........	1426.40
	93	0.44	-5.71891E-005	-1.92385E-004	0.00000E+000	-6.08154E-005	0.00000E+000	9	...........	1426.40
	94	0.45	-6.07601E-005	-1.91871E-004	0.00000E+000	-6.08154E-005	0.00000E+000	9	...........	1426.40
	95	0.46	-5.73059E-005	-1.89385E-004	0.00000E+000	-6.08154E-005	0.00000E+000	9	...........	1426.40
	96	0.47	-5.92166E-005	-1.88966E-004	0.00000E+000	-6.08154E-005	0.00000E+000	9	...........	1426.40
	97	0.48	-5.88912E-005	-1.86636E-004	0.00000E+000	-6.08154E-005	0.00000E+000	9	...........	1426.40
	98	0.49	-5.90247E-005	-1.86285E-004	0.00000E+000	-6.08154E-005	0.00000E+000	9	...........	1426.40
	99	0.5	-5.96588E-005	-1.84070E-004	0.00000E+000	-6.08154E-005	0.00000E+000	9	...........	1426.40
	100	0.51	-5.76563E-005	-1.83768E-004	0.00000E+000	-6.08154E-005	0.00000E+000	9	...........	1426.40
	101	0.52	-5.95837E-005	-1.81652E-004	0.00000E+000	-6.08154E-005	0.00000E+000	9	...........	1426.40
	102	0.53	-5.85908E-005	-1.81423E-004	0.00000E+000	-6.08154E-005	0.00000E+000	9	...........	1426.40
	103	0.54	-5.64549E-005	-1.79399E-004	0.00000E+000	-6.08154E-005	0.00000E+000	9	...........	1426.40
	104	0.55	-6.00927E-005	-1.79235E-004	0.00000E+000	-6.08154E-005	0.00000E+000	9	...........	1426.40
	105	0.56	-5.58041E-005	-1.77293E-004	0.00000E+000	-6.08154E-005	0.00000E+000	9	...........	1426.40
	106	0.57	-5.93835E-005	-1.77168E-004	0.00000E+000	-6.08154E-005	0.00000E+000	9	...........	1426.40
	107	0.58	-6.00343E-005	-1.75310E-004	0.00000E+000	-6.08154E-005	0.00000E+000	9	...........	1426.40
	108	0.59	-6.06350E-005	-1.75215E-004	0.00000E+000	-6.08154E-005	0.00000E+000	9	...........	1426.40
	109	0.6	-5.81236E-005	-1.73424E-004	0.00000E+000	-6.08154E-005	0.00000E+000	9	...........	1426.40
	110	0.61	-5.84740E-005	-1.73374E-004	0.00000E+000	-6.08154E-005	0.00000E+000	9	...........	1426.40
	111	0.71	-6.12858E-005	-1.65455E-004	0.00000E+000	-6.08154E-005	0.00000E+000	9	...........	1426.40
	112	0.81	-5.88828E-005	-1.59108E-004	0.00000E+000	-6.08154E-005	0.00000E+000	9	...........	1426.40
	113	0.91	-6.03680E-005	-1.53874E-004	0.00000E+000	-6.08154E-005	0.00000E+000	9	...........	1426.40
	114	1.01	-5.69722E-005	-1.49371E-004	0.00000E+000	-6.08154E-005	0.00000E+000	9	...........	1426.22
	115	1.11	-5.74978E-005	-1.45473E-004	0.00000E+000	-6.08154E-005	0.00000E+000	9	...........	1426.22
	116	1.21	-5.90998E-005	-1.41970E-004	0.00000E+000	-6.08154E-005	0.00000E+000	9	...........	1426.22
	117	1.31	-5.70139E-005	-1.38788E-004	0.00000E+000	-6.08154E-005	0.00000E+000	9	...........	1426.22
	118	1.41	-5.97339E-005	-1.35877E-004	0.00000E+000	-6.08154E-005	0.00000E+000	9	...........	1426.22
	119	1.51	-5.75145E-005	-1.33230E-004	0.00000E+000	-6.08154E-005	0.00000E+000	9	...........	1426.22
	120	1.61	-5.86325E-005	-1.30763E-004	0.00000E+000	-6.08154E-005	0.00000E+000	9	...........	1426.22
	121	2.61	-5.92917E-005	-1.05308E-004	0.00000E+000	-6.08154E-005	0.00000E+000	9	...........	1426.66
	122	3.61	-6.22870E-005	-8.03191E-005	0.00000E+000	-6.08154E-005	0.00000E+000	9	...........	1426.75
	123	4.61	-6.12941E-005	-6.20058E-005	0.00000E+000	-6.08154E-005	0.00000E+000	9	...........	1426.75
	124	5.61	-5.83071E-005	-5.07024E-005	0.00000E+000	-6.08154E-005	0.00000E+000	9	...........	1426.75
	125	6.61	-6.17697E-005	-4.28816E-005	0.00000E+000	-6.08154E-005	0.00000E+000	9	...........	1426.75
	126	7.61	-6.08519E-005	-3.80116E-005	0.00000E+000	-6.08154E-005	0.00000E+000	9	...........	1426.75
	127	8.61	-6.15528E-005	-3.45905E-005	0.00000E+000	-6.08154E-005	0.00000E+000	9	...........	1426.75
	128	9.61	-6.15361E-005	-3.13786E-005	0.00000E+000	-6.08154E-005	0.00000E+000	9	...........	1426.75
	129	10.61	-6.07685E-005	-2.92222E-005	0.00000E+000	-6.08154E-005	0.00000E+000	9	...........	1426.75
	130	11.61	-6.07852E-005	-2.67750E-005	0.00000E+000	-6.08154E-005	0.00000E+000	9	...........	1426.75
	131	21.61	-5.95086E-005	-1.68350E-005	0.00000E+000	-6.08154E-005	0.00000E+000	9	...........	1426.75
	132	31.61	-6.31881E-005	-1.24096E-005	0.00000E+000	-6.08154E-005	0.00000E+000	9	...........	1426.75
	133	41.61	-6.31715E-005	-9.55998E-006	0.00000E+000	-6.08154E-005	0.00000E+000	9	...........	1426.75
	134	51.61	-6.41143E-005	-8.45245E-006	0.00000E+000	-6.08154E-005	0.00000E+000	9	...........	1426.75
	135	60	-6.01928E-005	-8.09319E-006	0.00000E+000	-6.08154E-005	0.00000E+000	9	...........	1426.75
	136	60.01	3.26887E-002	5.33200E-004	0.00000E+000	9.99387E-002	0.00000E+000	9	.........v.	1426.75
	137	60.02	9.88044E-002	4.66687E-004	0.00000E+000	9.99387E-002	0.00000E+000	9	...........	1426.75
	138	60.03	9.97393E-002	4.17052E-004	0.00000E+000	9.99387E-002	0.00000E+000	9	...........	1426.75
	139	60.04	9.98986E-002	3.75062E-004	0.00000E+000	9.99387E-002	0.00000E+000	9	...........	1426.75
	140	60.05	9.99242E-002	3.38869E-004	0.00000E+000	9.99387E-002	0.00000E+000	9	...........	1426.75
	141	60.06	9.99313E-002	3.06928E-004	0.00000E+000	9.99387E-002	0.00000E+000	9	...........	1426.75
	142	60.07	9.99362E-002	2.79009E-004	0.00000E+000	9.99387E-002	0.00000E+000	9	...........	1426.75
	143	60.08	9.99411E-002	2.54019E-004	0.00000E+000	9.99387E-002	0.00000E+000	9	...........	1426.75
	144	60.09	9.99414E-002	2.32083E-004	0.00000E+000	9.99387E-002	0.00000E+000	9	...........	1426.75
	145	60.1	9.99421E-002	2.12245E-004	0.00000E+000	9.99387E-002	0.00000E+000	9	...........	1426.75
	146	60.11	9.99434E-002	1.94842E-004	0.00000E+000	9.99387E-002	0.00000E+000	9	...........	1426.75
	147	60.12	9.99437E-002	1.78930E-004	0.00000E+000	9.99387E-002	0.00000E+000	9	...........	1426.75
	148	60.13	9.99438E-002	1.65020E-004	0.00000E+000	9.99387E-002	0.00000E+000	9	...........	1426.75
	149	60.14	9.99427E-002	1.52121E-004	0.00000E+000	9.99387E-002	0.00000E+000	9	...........	1426.75
	150	60.15	9.99444E-002	1.40990E-004	0.00000E+000	9.99387E-002	0.00000E+000	9	...........	1426.75
	151	60.16	9.99453E-002	1.30427E-004	0.00000E+000	9.99387E-002	0.00000E+000	9	...........	1426.75
	152	60.17	9.99434E-002	1.21414E-004	0.00000E+000	9.99387E-002	0.00000E+000	9	...........	1426.75
	153	60.18	9.99474E-002	1.12736E-004	0.00000E+000	9.99387E-002	0.00000E+000	9	...........	1426.75
	154	60.19	9.99488E-002	1.05415E-004	0.00000E+000	9.99387E-002	0.00000E+000	9	...........	1426.75
	155	60.2	9.99446E-002	9.81915E-005	0.00000E+000	9.99387E-002	0.00000E+000	9	...........	1426.75
	156	60.21	9.99500E-002	9.22281E-005	0.00000E+000	9.99387E-002	0.00000E+000	9	...........	1426.75
	157	60.22	9.99511E-002	8.61727E-005	0.00000E+000	9.99387E-002	0.00000E+000	9	...........	1426.75
	158	60.23	9.99481E-002	8.12813E-005	0.00000E+000	9.99387E-002	0.00000E+000	9	...........	1426.75
	159	60.24	9.99480E-002	7.61593E-005	0.00000E+000	9.99387E-002	0.00000E+000	9	...........	1426.75
	160	60.25	9.99445E-002	7.21532E-005	0.00000E+000	9.99387E-002	0.00000E+000	9	...........	1426.75
	161	60.26	9.99462E-002	6.77971E-005	0.00000E+000	9.99387E-002	0.00000E+000	9	...........	1426.75
	162	60.27	9.99463E-002	6.45151E-005	0.00000E+000	9.99387E-002	0.00000E+000	9	...........	1426.75
	163	60.28	9.99475E-002	6.07506E-005	0.00000E+000	9.99387E-002	0.00000E+000	9	...........	1426.75
	164	60.29	9.99464E-002	5.80481E-005	0.00000E+000	9.99387E-002	0.00000E+000	9	...........	1426.75
	165	60.3	9.99467E-002	5.47714E-005	0.00000E+000	9.99387E-002	0.00000E+000	9	...........	1426.75
	166	60.31	9.99460E-002	5.25872E-005	0.00000E+000	9.99387E-002	0.00000E+000	9	...........	1426.75
	167	60.32	9.99454E-002	4.96959E-005	0.00000E+000	9.99387E-002	0.00000E+000	9	...........	1426.75
	168	60.33	9.99447E-002	4.79060E-005	0.00000E+000	9.99387E-002	0.00000E+000	9	...........	1426.75
	169	60.34	9.99473E-002	4.53545E-005	0.00000E+000	9.99387E-002	0.00000E+000	9	...........	1426.75
	170	60.35	9.99454E-002	4.38938E-005	0.00000E+000	9.99387E-002	0.00000E+000	9	...........	1426.75
	171	60.36	9.99449E-002	4.15956E-005	0.00000E+000	9.99387E-002	0.00000E+000	9	...........	1426.75
	172	60.37	9.99457E-002	4.04327E-005	0.00000E+000	9.99387E-002	0.00000E+000	9	...........	1426.75
	173	60.38	9.99480E-002	3.83675E-005	0.00000E+000	9.99387E-002	0.00000E+000	9	...........	1426.75
	174	60.39	9.99472E-002	3.74343E-005	0.00000E+000	9.99387E-002	0.00000E+000	9	...........	1426.75
	175	60.4	9.99496E-002	3.55407E-005	0.00000E+000	9.99387E-002	0.00000E+000	9	...........	1426.75
	176	60.41	9.99445E-002	3.48086E-005	0.00000E+000	9.99387E-002	0.00000E+000	9	...........	1426.75
	177	60.42	9.99461E-002	3.30601E-005	0.00000E+000	9.99387E-002	0.00000E+000	9	...........	1426.75
	178	60.43	9.99469E-002	3.25195E-005	0.00000E+000	9.99387E-002	0.00000E+000	9	...........	1426.75
	179	60.44	9.99463E-002	3.08959E-005	0.00000E+000	9.99387E-002	0.00000E+000	9	...........	1426.75
	180	60.45	9.99444E-002	3.04752E-005	0.00000E+000	9.99387E-002	0.00000E+000	9	...........	1426.75
	181	60.46	9.99436E-002	2.89447E-005	0.00000E+000	9.99387E-002	0.00000E+000	9	...........	1426.75
	182	60.47	9.99475E-002	2.86789E-005	0.00000E+000	9.99387E-002	0.00000E+000	9	...........	1426.75
	183	60.48	9.99461E-002	2.72324E-005	0.00000E+000	9.99387E-002	0.00000E+000	9	...........	1426.75
	184	60.49	9.99499E-002	2.70823E-005	0.00000E+000	9.99387E-002	0.00000E+000	9	...........	1426.75
	185	60.5	9.99457E-002	2.56967E-005	0.00000E+000	9.99387E-002	0.00000E+000	9	...........	1426.75
	186	60.51	9.99495E-002	2.56452E-005	0.00000E+000	9.99387E-002	0.00000E+000	9	...........	1426.75
	187	60.52	9.99464E-002	2.43169E-005	0.00000E+000	9.99387E-002	0.00000E+000	9	...........	1426.75
	188	60.53	9.99449E-002	2.43300E-005	0.00000E+000	9.99387E-002	0.00000E+000	9	...........	1426.75
	189	60.54	9.99474E-002	2.30929E-005	0.00000E+000	9.99387E-002	0.00000E+000	9	...........	1426.75
	190	60.55	9.99498E-002	2.31643E-005	0.00000E+000	9.99387E-002	0.00000E+000	9	...........	1426.75
	191	60.56	9.99478E-002	2.19384E-005	0.00000E+000	9.99387E-002	0.00000E+000	9	...........	1426.75
	192	60.57	9.99471E-002	2.21080E-005	0.00000E+000	9.99387E-002	0.00000E+000	9	...........	1426.75
	193	60.58	9.99476E-002	2.09395E-005	0.00000E+000	9.99387E-002	0.00000E+000	9	...........	1426.75
	194	60.59	9.99480E-002	2.11475E-005	0.00000E+000	9.99387E-002	0.00000E+000	9	...........	1426.75
	195	60.6	9.99480E-002	2.00047E-005	0.00000E+000	9.99387E-002	0.00000E+000	9	...........	1426.75
	196	60.61	9.99439E-002	2.02663E-005	0.00000E+000	9.99387E-002	0.00000E+000	9	...........	1426.75
	197	60.71	9.99461E-002	1.68006E-005	0.00000E+000	9.99387E-002	0.00000E+000	9	...........	1426.75
	198	60.81	9.99436E-002	1.43561E-005	0.00000E+000	9.99387E-002	0.00000E+000	9	...........	1426.75
	199	60.91	9.99419E-002	1.25470E-005	0.00000E+000	9.99387E-002	0.00000E+000	9	...........	1426.75
	200	61	9.99420E-002	1.02532E-005	0.00000E+000	9.99387E-002	0.00000E+000	9	...........	1426.75
