EXPLAIN
TAG	CHRONOA
TITLE	LABEL	Chronoamperometry Scan	Test Identifier
DATE	LABEL	21/2/2022	Date
TIME	LABEL	17:39:23	Time
NOTES	NOTES	1	Notes...
	
PSTAT	PSTAT	IFC1010-21051	Potentiostat
VPRESTEP	POTEN	0.00000E+000	F	Pre-step Voltage (V)
TPRESTEP	QUANT	5.00000E-001	Pre-step Delay Time (s)
VSTEP1	POTEN	-2.00000E-001	F	Step 1 Voltage (V)
TSTEP1	QUANT	3.00000E+002	Step 1 Time (s)
VSTEP2	POTEN	-3.00000E-001	F	Step 2 Voltage (V)
TSTEP2	QUANT	1.00000E+000	Step 2 Time (s)
SAMPLETIME	QUANT	1.00000E-001	Sample Period (s)
DECIMATE	TOGGLE	T	Decimate
ILIMIT	QUANT	1.00000E+000	Limit I (mA/cm^2)
IMODE	SELECTOR	1	I/E Range Mode
IRANGE	QUANT	3.00000E-001	Max Current (mA)
EQDELAY	QUANT	5.00000E+000	Equil. Time (s)
SAMPLINGMODE	SELECTOR	1	Sampling Mode
AREA	QUANT	1.00000E+000	Sample Area (cm^2)
IRCOMP	SELECTOR	0	IRComp
PFCOR	QUANT	5.00000E+001	PF Corr. (ohm)
SEQUENCER	TOGGLE	TRUE	Run as Sequence
PSTATMODEL	IQUANT	64	Pstat Model
PSTATSECTION	LABEL	IFC1010-21051	Pstat Section
PSTATSERIALNO	LABEL	21051	Pstat Serial Number
CTRLMODE	IQUANT	1	Control Mode
ELECTROMETER	IQUANT	0	RE=0 or CS=1
IESTAB	IQUANT	0	I/E Stability
CASPEED	IQUANT	4	Control Amp Speed
CONVENTION	IQUANT	1	Current Convention
ICHRANGE	IQUANT	2	Ich Range
ICHRANGEMODE	TOGGLE	T	Ich Auto Range
ICHOFFSETENABLE	TOGGLE	F	Ich Offset Enable
ICHOFFSET	QUANT	0	Ich Offset (V)
ICHFILTER	IQUANT	3	Ich Filter
VCHRANGE	IQUANT	3	Vch Range
VCHRANGEMODE	TOGGLE	T	Vch Auto Range
VCHOFFSETENABLE	TOGGLE	F	Vch Offset Enable
VCHOFFSET	QUANT	0	Vch Offset (V)
VCHFILTER	IQUANT	3	Vch Filter
IERANGELOWERLIMIT	IQUANT	4	I/E Range Lower Limit
IERANGEMODE	TOGGLE	F	I/E AutoRange
IERANGE	IQUANT	9	I/E Range
ACHSELECT	IQUANT	0	Ach Select
ACHRANGE	IQUANT	2	Ach Range
ACHOFFSETENABLE	TOGGLE	F	Ach Offset Enable
ACHOFFSET	QUANT	0	Ach Offset (V)
ACHFILTER	IQUANT	1	Ach Filter
SENSECABLEID	IQUANT	14	Sense Cable ID
PWRCABLEID	IQUANT	14	Power Cable ID
DCCALDATE	LABEL	1/24/2022	DC Calibration Date
ACCALDATE	LABEL	4/2/2018	AC Calibration Date
FRAMEWORKVERSION	QUANT	7.06	Framework Version
INSTRUMENTVERSION	LABEL	4.30	Instrument Version
CURVE	TABLE	98
	Pt	T	Vf	Im	Vu	Sig	Ach	IERange	Over	Temp
	#	s	V vs. Ref.	A	V	V	V	#	bits	deg C
	0	-0.4	-1.08633E-003	-8.62211E-006	0.00000E+000	-6.72489E-005	0.00000E+000	9	...........	1426.40
	1	-0.3	-3.74190E-004	-8.59138E-006	0.00000E+000	-6.72489E-005	0.00000E+000	9	...........	1426.40
	2	-0.2	-2.26558E-004	-8.59472E-006	0.00000E+000	-6.72489E-005	0.00000E+000	9	...........	1426.40
	3	-0.1	-2.10643E-004	-8.60743E-006	0.00000E+000	-6.72489E-005	0.00000E+000	9	...........	1426.40
	4	0	-2.12181E-004	-8.54967E-006	0.00000E+000	-6.72489E-005	0.00000E+000	9	...........	1426.40
	5	0.1	-3.29270E-002	-1.62330E-004	0.00000E+000	-2.00066E-001	0.00000E+000	9	.........v.	1426.40
	6	0.2	-2.00260E-001	-1.36204E-004	0.00000E+000	-2.00066E-001	0.00000E+000	9	...........	1426.40
	7	0.3	-2.00257E-001	-1.22522E-004	0.00000E+000	-2.00066E-001	0.00000E+000	9	...........	1426.40
	8	0.4	-2.00256E-001	-1.13301E-004	0.00000E+000	-2.00066E-001	0.00000E+000	9	...........	1426.40
	9	0.5	-2.00259E-001	-1.07657E-004	0.00000E+000	-2.00066E-001	0.00000E+000	9	...........	1426.40
	10	0.6	-2.00257E-001	-1.02707E-004	0.00000E+000	-2.00066E-001	0.00000E+000	9	...........	1426.40
	11	0.7	-2.00259E-001	-9.94357E-005	0.00000E+000	-2.00066E-001	0.00000E+000	9	...........	1426.40
	12	0.8	-2.00257E-001	-9.61607E-005	0.00000E+000	-2.00066E-001	0.00000E+000	9	...........	1426.40
	13	0.9	-2.00256E-001	-9.52996E-005	0.00000E+000	-2.00066E-001	0.00000E+000	9	...........	1426.40
	14	1	-2.00256E-001	-9.34254E-005	0.00000E+000	-2.00066E-001	0.00000E+000	9	...........	1426.40
	15	1.1	-2.00258E-001	-9.16685E-005	0.00000E+000	-2.00066E-001	0.00000E+000	9	...........	1426.84
	16	1.2	-2.00256E-001	-9.12042E-005	0.00000E+000	-2.00066E-001	0.00000E+000	9	...........	1426.84
	17	1.3	-2.00259E-001	-9.01951E-005	0.00000E+000	-2.00066E-001	0.00000E+000	9	...........	1426.84
	18	1.4	-2.00256E-001	-8.88130E-005	0.00000E+000	-2.00066E-001	0.00000E+000	9	...........	1426.84
	19	1.5	-2.00256E-001	-8.81817E-005	0.00000E+000	-2.00066E-001	0.00000E+000	9	...........	1426.84
	20	1.6	-2.00258E-001	-8.68464E-005	0.00000E+000	-2.00066E-001	0.00000E+000	9	...........	1426.84
	21	1.7	-2.00258E-001	-8.68315E-005	0.00000E+000	-2.00066E-001	0.00000E+000	9	...........	1426.84
	22	1.8	-2.00257E-001	-8.57889E-005	0.00000E+000	-2.00066E-001	0.00000E+000	9	...........	1426.84
	23	1.9	-2.00258E-001	-8.52014E-005	0.00000E+000	-2.00066E-001	0.00000E+000	9	...........	1426.84
	24	2	-2.00258E-001	-8.44555E-005	0.00000E+000	-2.00066E-001	0.00000E+000	9	...........	1426.84
	25	2.1	-2.00256E-001	-8.41690E-005	0.00000E+000	-2.00066E-001	0.00000E+000	9	...........	1426.40
	26	2.2	-2.00257E-001	-8.43354E-005	0.00000E+000	-2.00066E-001	0.00000E+000	9	...........	1426.40
	27	2.3	-2.00256E-001	-8.37058E-005	0.00000E+000	-2.00066E-001	0.00000E+000	9	...........	1426.40
	28	2.4	-2.00255E-001	-8.31396E-005	0.00000E+000	-2.00066E-001	0.00000E+000	9	...........	1426.40
	29	2.5	-2.00260E-001	-8.21899E-005	0.00000E+000	-2.00066E-001	0.00000E+000	9	...........	1426.40
	30	2.6	-2.00260E-001	-8.18051E-005	0.00000E+000	-2.00066E-001	0.00000E+000	9	...........	1426.40
	31	2.7	-2.00257E-001	-8.12241E-005	0.00000E+000	-2.00066E-001	0.00000E+000	9	...........	1426.40
	32	2.8	-2.00259E-001	-8.03747E-005	0.00000E+000	-2.00066E-001	0.00000E+000	9	...........	1426.40
	33	2.9	-2.00259E-001	-8.02651E-005	0.00000E+000	-2.00066E-001	0.00000E+000	9	...........	1426.40
	34	3	-2.00258E-001	-7.98300E-005	0.00000E+000	-2.00066E-001	0.00000E+000	9	...........	1426.40
	35	3.1	-2.00257E-001	-7.92045E-005	0.00000E+000	-2.00066E-001	0.00000E+000	9	...........	1426.49
	36	3.2	-2.00257E-001	-7.85254E-005	0.00000E+000	-2.00066E-001	0.00000E+000	9	...........	1426.49
	37	3.3	-2.00257E-001	-7.82207E-005	0.00000E+000	-2.00066E-001	0.00000E+000	9	...........	1426.49
	38	3.4	-2.00256E-001	-7.81342E-005	0.00000E+000	-2.00066E-001	0.00000E+000	9	...........	1426.49
	39	3.5	-2.00257E-001	-7.76600E-005	0.00000E+000	-2.00066E-001	0.00000E+000	9	...........	1426.49
	40	3.6	-2.00257E-001	-7.73094E-005	0.00000E+000	-2.00066E-001	0.00000E+000	9	...........	1426.49
	41	3.7	-2.00258E-001	-7.70954E-005	0.00000E+000	-2.00066E-001	0.00000E+000	9	...........	1426.49
	42	3.8	-2.00258E-001	-7.63096E-005	0.00000E+000	-2.00066E-001	0.00000E+000	9	...........	1426.49
	43	3.9	-2.00257E-001	-7.63481E-005	0.00000E+000	-2.00066E-001	0.00000E+000	9	...........	1426.49
	44	4	-2.00258E-001	-7.56582E-005	0.00000E+000	-2.00066E-001	0.00000E+000	9	...........	1426.49
	45	4.1	-2.00258E-001	-7.51526E-005	0.00000E+000	-2.00066E-001	0.00000E+000	9	...........	1426.49
	46	4.2	-2.00257E-001	-7.46548E-005	0.00000E+000	-2.00066E-001	0.00000E+000	9	...........	1426.49
	47	4.3	-2.00260E-001	-7.37466E-005	0.00000E+000	-2.00066E-001	0.00000E+000	9	...........	1426.49
	48	4.4	-2.00257E-001	-7.36807E-005	0.00000E+000	-2.00066E-001	0.00000E+000	9	...........	1426.49
	49	4.5	-2.00260E-001	-7.39337E-005	0.00000E+000	-2.00066E-001	0.00000E+000	9	...........	1426.49
	50	4.6	-2.00260E-001	-7.34024E-005	0.00000E+000	-2.00066E-001	0.00000E+000	9	...........	1426.49
	51	4.7	-2.00260E-001	-7.29953E-005	0.00000E+000	-2.00066E-001	0.00000E+000	9	...........	1426.49
	52	4.8	-2.00259E-001	-7.23471E-005	0.00000E+000	-2.00066E-001	0.00000E+000	9	...........	1426.49
	53	4.9	-2.00259E-001	-7.19873E-005	0.00000E+000	-2.00066E-001	0.00000E+000	9	...........	1426.49
	54	5	-2.00260E-001	-7.20913E-005	0.00000E+000	-2.00066E-001	0.00000E+000	9	...........	1426.49
	55	5.1	-2.00261E-001	-7.18030E-005	0.00000E+000	-2.00066E-001	0.00000E+000	9	...........	1426.49
	56	5.2	-2.00259E-001	-7.20555E-005	0.00000E+000	-2.00066E-001	0.00000E+000	9	...........	1426.49
	57	5.3	-2.00259E-001	-7.12285E-005	0.00000E+000	-2.00066E-001	0.00000E+000	9	...........	1426.49
	58	5.4	-2.00259E-001	-7.11893E-005	0.00000E+000	-2.00066E-001	0.00000E+000	9	...........	1426.49
	59	5.5	-2.00257E-001	-7.09505E-005	0.00000E+000	-2.00066E-001	0.00000E+000	9	...........	1426.49
	60	5.6	-2.00258E-001	-7.04109E-005	0.00000E+000	-2.00066E-001	0.00000E+000	9	...........	1426.49
	61	5.7	-2.00260E-001	-6.99876E-005	0.00000E+000	-2.00066E-001	0.00000E+000	9	...........	1426.49
	62	5.8	-2.00259E-001	-7.00396E-005	0.00000E+000	-2.00066E-001	0.00000E+000	9	...........	1426.49
	63	5.9	-2.00260E-001	-6.94052E-005	0.00000E+000	-2.00066E-001	0.00000E+000	9	...........	1426.49
	64	6	-2.00258E-001	-6.86163E-005	0.00000E+000	-2.00066E-001	0.00000E+000	9	...........	1426.49
	65	6.1	-2.00260E-001	-6.83282E-005	0.00000E+000	-2.00066E-001	0.00000E+000	9	...........	1426.49
	66	7.1	-2.00259E-001	-6.55531E-005	0.00000E+000	-2.00066E-001	0.00000E+000	9	...........	1426.49
	67	8.1	-2.00260E-001	-6.32868E-005	0.00000E+000	-2.00066E-001	0.00000E+000	9	...........	1426.49
	68	9.1	-2.00258E-001	-6.10561E-005	0.00000E+000	-2.00066E-001	0.00000E+000	9	...........	1426.57
	69	10.1	-2.00260E-001	-5.93543E-005	0.00000E+000	-2.00066E-001	0.00000E+000	9	...........	1426.57
	70	11.1	-2.00258E-001	-5.78548E-005	0.00000E+000	-2.00066E-001	0.00000E+000	9	...........	1426.57
	71	12.1	-2.00260E-001	-5.58146E-005	0.00000E+000	-2.00066E-001	0.00000E+000	9	...........	1426.57
	72	13.1	-2.00258E-001	-5.48947E-005	0.00000E+000	-2.00066E-001	0.00000E+000	9	...........	1426.57
	73	14.1	-2.00260E-001	-5.37003E-005	0.00000E+000	-2.00066E-001	0.00000E+000	9	...........	1426.57
	74	15.1	-2.00259E-001	-5.19277E-005	0.00000E+000	-2.00066E-001	0.00000E+000	9	...........	1426.57
	75	16.1	-2.00261E-001	-5.01382E-005	0.00000E+000	-2.00066E-001	0.00000E+000	9	...........	1426.57
	76	26.1	-2.00259E-001	-3.91058E-005	0.00000E+000	-2.00066E-001	0.00000E+000	9	...........	1426.57
	77	36.1	-2.00260E-001	-3.33351E-005	0.00000E+000	-2.00066E-001	0.00000E+000	9	...........	1426.57
	78	46.1	-2.00258E-001	-2.95877E-005	0.00000E+000	-2.00066E-001	0.00000E+000	9	...........	1426.57
	79	56.1	-2.00259E-001	-2.82047E-005	0.00000E+000	-2.00066E-001	0.00000E+000	9	...........	1426.57
	80	66.1	-2.00258E-001	-2.69258E-005	0.00000E+000	-2.00066E-001	0.00000E+000	9	...........	1426.57
	81	76.1	-2.00259E-001	-2.54123E-005	0.00000E+000	-2.00066E-001	0.00000E+000	9	...........	1426.57
	82	86.1	-2.00259E-001	-2.48678E-005	0.00000E+000	-2.00066E-001	0.00000E+000	9	...........	1426.49
	83	96.1	-2.00259E-001	-2.44730E-005	0.00000E+000	-2.00066E-001	0.00000E+000	9	...........	1426.57
	84	106.1	-2.00258E-001	-2.38458E-005	0.00000E+000	-2.00066E-001	0.00000E+000	9	...........	1426.57
	85	116.1	-2.00259E-001	-2.34865E-005	0.00000E+000	-2.00066E-001	0.00000E+000	9	...........	1426.57
	86	216.1	-2.00259E-001	-2.22732E-005	0.00000E+000	-2.00066E-001	0.00000E+000	9	...........	1426.57
	87	300	-2.00259E-001	-2.22761E-005	0.00000E+000	-2.00066E-001	0.00000E+000	9	...........	1426.57
	88	300.1	-3.00262E-001	-1.34420E-004	0.00000E+000	-3.00066E-001	0.00000E+000	9	...........	1426.57
	89	300.2	-3.00419E-001	-1.20243E-004	0.00000E+000	-3.00066E-001	0.00000E+000	9	...........	1426.57
	90	300.3	-3.00430E-001	-1.10211E-004	0.00000E+000	-3.00066E-001	0.00000E+000	9	...........	1426.57
	91	300.4	-3.00422E-001	-1.02078E-004	0.00000E+000	-3.00066E-001	0.00000E+000	9	...........	1426.57
	92	300.5	-3.00418E-001	-9.59534E-005	0.00000E+000	-3.00066E-001	0.00000E+000	9	...........	1426.57
	93	300.6	-3.00424E-001	-9.10442E-005	0.00000E+000	-3.00066E-001	0.00000E+000	9	...........	1426.57
	94	300.7	-3.00424E-001	-8.68314E-005	0.00000E+000	-3.00066E-001	0.00000E+000	9	...........	1426.57
	95	300.8	-3.00422E-001	-8.30454E-005	0.00000E+000	-3.00066E-001	0.00000E+000	9	...........	1426.57
	96	300.9	-3.00424E-001	-7.96578E-005	0.00000E+000	-3.00066E-001	0.00000E+000	9	...........	1426.57
	97	301	-3.00441E-001	-7.73651E-005	0.00000E+000	-3.00066E-001	0.00000E+000	9	...........	1426.57
