Data from AgNPs_FTO_APTES_UA_20uM_CRN_2uM_R6G_10uM_NaF_0.1M_Addition_RamanShift__30__13-15-32-107.txt Node

Date: Thu Feb 17 13:15:32 GMT 2022
User: TCL
Spectrometer: QEP01345
Trigger mode: 4
Integration Time (sec): 7.000000E0
Scans to average: 10
Electric dark correction enabled: true
Nonlinearity correction enabled: false
Boxcar width: 0
XAxis mode: Raman Shifts
Number of Pixels in Spectrum: 1044
>>>>>Begin Spectral Data<<<<<
46.04893	-0.6375
50.45542	-0.8375
54.85868	-2.2375
59.25871	-0.0375
63.6555	79.8625
68.04907	80.8625
72.43941	85.2625
76.82654	86.1625
81.21044	87.9625
85.59113	94.8625
89.96862	94.0625
94.34289	98.0625
98.71396	97.7625
103.08183	101.5625
107.4465	109.1625
111.80798	107.4625
116.16626	111.4625
120.52136	117.3625
124.87327	118.7625
129.222	128.7625
133.56755	136.9625
137.90993	142.3625
142.24913	157.7625
146.58517	182.0625
150.91804	210.9625
155.24774	245.7625
159.57429	310.0625
163.89768	393.7625
168.21792	529.6625
172.53501	718.8625
176.84895	1007.7625
181.15975	1407.6625
185.46741	1984.1625
189.77193	2726.4625
194.07331	3653.6625
198.37157	4709.7625
202.6667	5843.9625
206.9587	6991.0625
211.24758	8088.3625
215.53334	9225.9625
219.81599	10515.8625
224.09553	11946.9625
228.37195	13610.2625
232.64527	15352.5625
236.91549	17181.3625
241.18261	18970.3625
245.44663	20519.2625
249.70755	21748.9625
253.96539	22796.8625
258.22014	23758.7625
262.4718	24539.7625
266.72039	25178.3625
270.96589	25571.1625
275.20832	25657.3625
279.44768	25523.0625
283.68397	25335.7625
287.91719	25106.6625
292.14735	25184.0625
296.37445	25496.5625
300.59849	26176.4625
304.81948	26889.9625
309.03742	27439.1625
313.25231	27253.3625
317.46415	26128.7625
321.67296	24577.2625
325.87872	23254.5625
330.08145	22641.4625
334.28114	22634.6625
338.47781	22953.7625
342.67145	23575.1625
346.86207	24417.8625
351.04966	25578.6625
355.23424	26860.8625
359.4158	27915.2625
363.59435	28491.8625
367.76989	28788.4625
371.94243	28837.0625
376.11196	28833.8625
380.27849	28799.9625
384.44203	28700.3625
388.60257	28451.1625
392.76012	28420.5625
396.91468	28694.2625
401.06626	29304.5625
405.21485	29866.6625
409.36047	29610.2625
413.50311	28496.1625
417.64277	27450.9625
421.77947	26893.6625
425.9132	26796.5625
430.04396	26863.7625
434.17176	27074.2625
438.2966	27409.7625
442.41849	27963.1625
446.53742	28722.3625
450.6534	29514.9625
454.76644	30149.1625
458.87653	30402.6625
462.98368	30169.5625
467.08789	29690.5625
471.18916	29021.3625
475.2875	28345.4625
479.38291	27716.2625
483.4754	27343.8625
487.56496	26975.5625
491.6516	26722.1625
495.73531	26542.7625
499.81612	26580.4625
503.89401	26892.1625
507.96899	27146.4625
512.04106	27410.2625
516.11023	27680.3625
520.1765	27901.1625
524.23987	27769.3625
528.30034	27397.1625
532.35792	26964.5625
536.41261	26498.0625
540.46441	26099.5625
544.51333	25963.4625
548.55936	26188.4625
552.60252	26807.0625
556.64279	27445.9625
560.6802	27808.1625
564.71473	28052.1625
568.7464	28927.8625
572.7752	29671.2625
576.80114	29421.7625
580.82422	28963.2625
584.84444	28772.0625
588.86181	28803.8625
592.87633	28875.2625
596.888	29049.1625
600.89682	29760.6625
604.9028	32547.0625
608.90594	39863.1625
612.90624	49100.6625
616.90371	46986.4625
620.89834	34780.3625
624.89015	29136.7625
628.87913	28162.9625
632.86528	28205.0625
636.84862	28427.5625
640.82913	27970.5625
644.80683	26930.6625
648.78172	26177.0625
652.75379	26284.1625
656.72306	27233.2625
660.68952	28416.1625
664.65319	28244.6625
668.61405	27135.0625
672.57211	26584.0625
676.52738	26548.8625
680.47986	26577.1625
684.42955	26462.6625
688.37646	26439.4625
692.32058	26576.4625
696.26192	26809.7625
700.20048	27213.0625
704.13626	27525.8625
708.06928	27558.6625
711.99952	27383.5625
715.927	27257.1625
719.85171	27277.6625
723.77365	27226.2625
727.69284	27018.1625
731.60928	26804.3625
735.52295	26770.9625
739.43388	26888.2625
743.34206	27148.8625
747.24749	27399.4625
751.15017	27705.0625
755.05012	28345.2625
758.94733	29566.5625
762.8418	32126.1625
766.73354	36428.4625
770.62254	40922.3625
774.50882	42857.6625
778.39237	40709.5625
782.27321	35863.7625
786.15132	31521.9625
790.02671	29095.3625
793.89938	27981.4625
797.76935	27498.2625
801.6366	27336.3625
805.50115	27168.0625
809.36299	27059.4625
813.22213	26963.5625
817.07857	26944.8625
820.93231	26979.1625
824.78336	27066.5625
828.63172	27215.5625
832.47738	27333.5625
836.32036	27300.8625
840.16066	27313.6625
843.99827	27295.9625
847.8332	27246.8625
851.66546	27154.0625
855.49504	27129.1625
859.32195	27117.1625
863.1462	27021.9625
866.96777	26917.1625
870.78668	26927.4625
874.60293	26972.9625
878.41652	27090.1625
882.22745	27232.8625
886.03573	27315.5625
889.84136	27291.8625
893.64433	27133.0625
897.44466	27091.9625
901.24235	27136.2625
905.0374	27101.3625
908.8298	27094.7625
912.61957	27109.1625
916.40671	27327.8625
920.19121	27694.7625
923.97308	27995.8625
927.75233	28174.1625
931.52895	28178.2625
935.30295	27867.6625
939.07433	27265.5625
942.84309	26836.0625
946.60924	26587.9625
950.37278	26421.8625
954.13371	26321.1625
957.89203	26188.8625
961.64774	26105.0625
965.40086	26055.7625
969.15137	25998.8625
972.89929	25922.1625
976.64461	25865.9625
980.38733	25907.8625
984.12747	25950.2625
987.86502	26128.2625
991.59999	26384.5625
995.33237	26847.7625
999.06217	27653.8625
1002.78939	28582.8625
1006.51404	29328.4625
1010.23611	29936.9625
1013.95561	30328.2625
1017.67255	30276.5625
1021.38692	29965.4625
1025.09872	29625.4625
1028.80796	29768.6625
1032.51465	30453.1625
1036.21877	31039.3625
1039.92035	31230.5625
1043.61937	31003.9625
1047.31584	30426.2625
1051.00976	29720.6625
1054.70114	29436.0625
1058.38998	29353.7625
1062.07627	29534.5625
1065.76003	29715.6625
1069.44126	29937.4625
1073.11995	30259.1625
1076.79611	30464.3625
1080.46974	30722.8625
1084.14085	31218.6625
1087.80943	31842.8625
1091.47549	32113.9625
1095.13903	31695.1625
1098.80005	30897.1625
1102.45857	30150.0625
1106.11456	29799.0625
1109.76805	29868.5625
1113.41903	30344.8625
1117.06751	31044.6625
1120.71348	31979.1625
1124.35696	32865.7625
1127.99793	33603.0625
1131.63641	33438.2625
1135.2724	32364.6625
1138.90589	31404.4625
1142.5369	30826.1625
1146.16542	30393.6625
1149.79145	30258.3625
1153.415	30386.3625
1157.03607	30683.3625
1160.65467	31237.0625
1164.27079	32158.2625
1167.88443	33556.7625
1171.49561	35775.0625
1175.10432	39352.0625
1178.71056	44062.1625
1182.31434	47902.0625
1185.91565	49169.3625
1189.51451	48210.4625
1193.11091	45576.7625
1196.70485	42503.4625
1200.29634	40205.4625
1203.88538	38577.0625
1207.47197	36878.5625
1211.05612	35435.3625
1214.63782	34669.4625
1218.21708	34527.4625
1221.79391	34656.4625
1225.36829	34765.4625
1228.94024	34668.2625
1232.50976	34454.7625
1236.07685	34449.5625
1239.6415	34566.0625
1243.20374	34776.7625
1246.76355	35081.8625
1250.32093	35636.5625
1253.8759	36481.1625
1257.42845	37655.8625
1260.97859	38656.8625
1264.52631	39369.1625
1268.07163	40197.6625
1271.61453	41032.8625
1275.15503	41914.4625
1278.69312	42586.0625
1282.22882	43192.1625
1285.76211	44077.3625
1289.29301	45094.6625
1292.82151	46226.8625
1296.34761	47654.9625
1299.87133	49834.9625
1303.39266	53187.4625
1306.9116	58140.1625
1310.42815	63311.2625
1313.94233	66082.6625
1317.45412	65020.9625
1320.96354	61742.0625
1324.47058	58108.6625
1327.97525	55075.4625
1331.47754	53316.8625
1334.97747	53112.9625
1338.47502	54092.2625
1341.97022	55635.5625
1345.46305	57040.8625
1348.95352	58370.3625
1352.44163	60023.8625
1355.92738	63541.7625
1359.41078	70012.8625
1362.89183	76224.8625
1366.37053	74273.1625
1369.84688	64792.4625
1373.32088	55311.6625
1376.79254	49178.9625
1380.26186	45967.6625
1383.72883	44442.1625
1387.19347	43497.3625
1390.65578	42610.9625
1394.11575	41971.6625
1397.57339	41783.6625
1401.0287	42175.7625
1404.48168	43038.8625
1407.93234	44131.3625
1411.38068	45205.9625
1414.82669	45520.6625
1418.27039	44739.7625
1421.71177	43339.1625
1425.15083	41955.6625
1428.58758	41227.1625
1432.02203	41271.4625
1435.45416	41566.8625
1438.88399	41722.8625
1442.31151	41803.0625
1445.73673	42129.8625
1449.15965	42489.4625
1452.58027	42428.5625
1455.9986	42096.4625
1459.41463	42005.3625
1462.82837	42286.7625
1466.23982	43024.6625
1469.64898	43905.2625
1473.05586	44692.7625
1476.46045	45259.2625
1479.86276	46089.3625
1483.26279	47086.4625
1486.66054	48174.7625
1490.05602	49672.8625
1493.44922	51634.9625
1496.84016	54012.7625
1500.22882	57492.7625
1503.61521	62117.8625
1506.99934	67469.5625
1510.38121	71864.4625
1513.76081	72982.5625
1517.13816	69398.3625
1520.51324	62812.6625
1523.88607	56761.3625
1527.25665	52620.1625
1530.62498	50191.4625
1533.99105	48761.3625
1537.35488	47800.2625
1540.71647	47216.2625
1544.07581	46873.9625
1547.4329	46534.1625
1550.78776	46026.4625
1554.14038	45688.7625
1557.49077	45754.1625
1560.83892	46226.4625
1564.18484	46920.4625
1567.52853	47598.3625
1570.86999	47950.2625
1574.20922	48206.4625
1577.54624	47836.6625
1580.88103	46186.6625
1584.2136	44353.6625
1587.54395	43970.1625
1590.87208	45436.1625
1594.19801	48565.5625
1597.52172	52214.2625
1600.84321	53833.8625
1604.16251	52129.7625
1607.47959	48658.6625
1610.79447	44798.0625
1614.10715	41319.3625
1617.41763	38607.4625
1620.7259	36948.3625
1624.03199	36228.8625
1627.33587	36341.0625
1630.63757	37228.4625
1633.93707	38957.2625
1637.23439	41418.0625
1640.52951	44709.6625
1643.82246	48665.8625
1647.11321	52844.9625
1650.40179	55435.7625
1653.68819	53597.5625
1656.97241	47623.9625
1660.25446	41124.3625
1663.53433	36463.7625
1666.81203	33575.8625
1670.08756	31880.7625
1673.36092	30815.4625
1676.63211	30103.9625
1679.90115	29627.0625
1683.16801	29189.1625
1686.43272	28971.1625
1689.69527	28788.0625
1692.95567	28666.3625
1696.2139	28621.1625
1699.46999	28607.5625
1702.72392	28542.8625
1705.97571	28527.2625
1709.22535	28456.5625
1712.47284	28471.5625
1715.71819	28538.7625
1718.96139	28492.7625
1722.20246	28408.7625
1725.44139	28363.6625
1728.67818	28202.4625
1731.91284	28008.3625
1735.14537	27882.3625
1738.37576	27768.1625
1741.60403	27730.0625
1744.83017	27636.2625
1748.05418	27540.7625
1751.27607	27559.8625
1754.49584	27476.3625
1757.71349	27505.0625
1760.92903	27471.7625
1764.14244	27487.9625
1767.35375	27476.7625
1770.56294	27386.4625
1773.77002	27411.7625
1776.97499	27358.0625
1780.17785	27358.0625
1783.37861	27291.7625
1786.57727	27266.5625
1789.77382	27238.8625
1792.96828	27218.4625
1796.16064	27214.0625
1799.3509	27242.4625
1802.53907	27173.1625
1805.72514	27148.1625
1808.90913	27052.2625
1812.09102	27000.2625
1815.27083	26969.4625
1818.44856	26945.7625
1821.6242	26872.3625
1824.79776	26855.1625
1827.96924	26863.2625
1831.13864	26842.4625
1834.30597	26836.1625
1837.47122	26843.4625
1840.6344	26816.8625
1843.7955	26797.4625
1846.95454	26840.4625
1850.11151	26856.3625
1853.26642	26821.9625
1856.41926	26830.6625
1859.57004	26801.5625
1862.71876	26824.5625
1865.86542	26842.8625
1869.01003	26855.3625
1872.15258	26853.0625
1875.29308	26866.1625
1878.43152	26847.4625
1881.56792	26911.2625
1884.70227	26916.5625
1887.83457	26880.5625
1890.96482	26955.5625
1894.09304	26925.5625
1897.21921	26889.7625
1900.34335	26856.3625
1903.46544	26880.0625
1906.58551	26940.9625
1909.70353	26893.9625
1912.81953	26914.1625
1915.93349	26928.4625
1919.04543	26885.2625
1922.15534	26889.0625
1925.26322	26842.2625
1928.36908	26830.5625
1931.47292	26746.4625
1934.57473	26658.1625
1937.67453	26595.9625
1940.77232	26534.8625
1943.86808	26414.5625
1946.96184	26360.9625
1950.05358	26250.0625
1953.14331	26165.5625
1956.23103	26045.7625
1959.31675	26031.9625
1962.40046	25898.5625
1965.48217	25868.5625
1968.56188	25787.3625
1971.63959	25699.7625
1974.7153	25689.0625
1977.78901	25601.8625
1980.86073	25517.3625
1983.93046	25439.8625
1986.99819	25378.2625
1990.06394	25338.7625
1993.1277	25297.6625
1996.18947	25147.5625
1999.24925	25108.3625
2002.30706	25057.9625
2005.36288	24983.8625
2008.41672	24902.7625
2011.46859	24842.1625
2014.51848	24765.1625
2017.56639	24756.6625
2020.61233	24657.9625
2023.6563	24628.0625
2026.6983	24557.1625
2029.73833	24535.7625
2032.7764	24442.0625
2035.8125	24413.2625
2038.84664	24381.0625
2041.87881	24315.7625
2044.90903	24346.4625
2047.93729	24279.4625
2050.96359	24247.2625
2053.98794	24223.2625
2057.01034	24222.0625
2060.03078	24212.6625
2063.04927	24187.9625
2066.06582	24182.2625
2069.08042	24151.3625
2072.09307	24152.0625
2075.10378	24094.7625
2078.11255	24067.6625
2081.11938	24105.9625
2084.12426	24051.1625
2087.12722	24039.1625
2090.12824	24004.0625
2093.12732	24012.4625
2096.12447	24001.8625
2099.11969	23984.1625
2102.11299	24015.9625
2105.10435	24019.7625
2108.09379	24035.7625
2111.08131	24081.9625
2114.0669	24055.7625
2117.05057	24028.9625
2120.03233	24090.4625
2123.01216	24118.9625
2125.99008	24174.1625
2128.96609	24157.3625
2131.94018	24187.3625
2134.91236	24220.6625
2137.88263	24205.8625
2140.851	24238.8625
2143.81746	24281.8625
2146.78201	24277.8625
2149.74466	24285.0625
2152.7054	24301.9625
2155.66425	24281.3625
2158.6212	24284.3625
2161.57625	24240.7625
2164.52941	24246.6625
2167.48067	24255.3625
2170.43004	24226.0625
2173.37752	24210.6625
2176.32311	24224.8625
2179.26681	24276.2625
2182.20863	24312.0625
2185.14856	24315.0625
2188.08661	24277.1625
2191.02278	24286.0625
2193.95707	24249.8625
2196.88948	24261.6625
2199.82001	24252.3625
2202.74867	24243.5625
2205.67545	24220.2625
2208.60037	24188.7625
2211.52341	24197.2625
2214.44458	24171.5625
2217.36388	24134.0625
2220.28132	24112.5625
2223.1969	24042.9625
2226.11061	24013.0625
2229.02246	23930.6625
2231.93245	23892.1625
2234.84058	23862.1625
2237.74686	23847.2625
2240.65128	23820.7625
2243.55385	23780.7625
2246.45456	23766.0625
2249.35343	23750.4625
2252.25044	23735.1625
2255.14561	23724.1625
2258.03893	23719.7625
2260.93041	23688.5625
2263.82004	23635.5625
2266.70783	23594.4625
2269.59378	23492.8625
2272.4779	23479.9625
2275.36017	23421.9625
2278.24061	23366.0625
2281.11922	23336.2625
2283.996	23312.6625
2286.87094	23223.6625
2289.74405	23226.1625
2292.61534	23255.5625
2295.4848	23193.2625
2298.35243	23241.9625
2301.21824	23174.3625
2304.08223	23198.0625
2306.94439	23187.2625
2309.80474	23202.8625
2312.66327	23233.1625
2315.51999	23182.8625
2318.37489	23189.3625
2321.22797	23182.2625
2324.07925	23147.0625
2326.92871	23137.3625
2329.77637	23110.4625
2332.62222	23065.5625
2335.46626	23090.0625
2338.3085	23078.2625
2341.14893	23090.6625
2343.98756	23123.4625
2346.8244	23144.3625
2349.65943	23155.1625
2352.49267	23145.1625
2355.32411	23203.8625
2358.15376	23174.0625
2360.98161	23190.6625
2363.80768	23173.0625
2366.63195	23141.7625
2369.45444	23101.0625
2372.27514	23096.8625
2375.09405	23024.0625
2377.91118	22972.9625
2380.72652	22906.1625
2383.54009	22823.7625
2386.35187	22746.7625
2389.16188	22700.0625
2391.97011	22627.5625
2394.77657	22630.8625
2397.58125	22603.9625
2400.38416	22572.6625
2403.18529	22462.6625
2405.98466	22461.2625
2408.78226	22362.9625
2411.57809	22354.9625
2414.37216	22299.3625
2417.16446	22293.8625
2419.955	22284.1625
2422.74378	22247.9625
2425.5308	22270.9625
2428.31606	22232.6625
2431.09956	22272.1625
2433.88131	22231.8625
2436.6613	22234.7625
2439.43954	22238.4625
2442.21603	22185.0625
2444.99077	22169.9625
2447.76377	22178.9625
2450.53501	22151.8625
2453.30451	22152.1625
2456.07226	22127.2625
2458.83827	22108.0625
2461.60254	22070.9625
2464.36507	22101.2625
2467.12586	22085.0625
2469.88492	22098.2625
2472.64224	22120.2625
2475.39782	22129.2625
2478.15167	22146.9625
2480.90379	22163.7625
2483.65417	22201.5625
2486.40283	22222.8625
2489.14976	22244.9625
2491.89497	22255.1625
2494.63845	22286.7625
2497.3802	22263.7625
2500.12024	22253.9625
2502.85855	22251.1625
2505.59514	22220.5625
2508.33002	22142.8625
2511.06318	22122.6625
2513.79462	22067.5625
2516.52435	21985.7625
2519.25237	21963.3625
2521.97867	21954.0625
2524.70327	21908.8625
2527.42616	21870.9625
2530.14734	21878.8625
2532.86681	21814.0625
2535.58458	21845.7625
2538.30065	21805.2625
2541.01501	21843.6625
2543.72768	21841.5625
2546.43864	21828.4625
2549.14791	21794.5625
2551.85548	21779.6625
2554.56136	21726.0625
2557.26554	21645.0625
2559.96803	21664.6625
2562.66883	21639.5625
2565.36794	21608.0625
2568.06536	21609.2625
2570.7611	21556.2625
2573.45514	21512.3625
2576.14751	21537.8625
2578.83819	21497.9625
2581.52719	21483.7625
2584.21451	21432.5625
2586.90015	21444.7625
2589.58411	21408.0625
2592.2664	21423.1625
2594.94701	21377.2625
2597.62594	21399.7625
2600.30321	21408.3625
2602.9788	21436.4625
2605.65273	21400.8625
2608.32498	21389.1625
2610.99557	21387.6625
2613.66449	21402.0625
2616.33175	21398.9625
2618.99734	21395.1625
2621.66128	21367.1625
2624.32355	21352.9625
2626.98416	21361.4625
2629.64311	21343.0625
2632.30041	21329.2625
2634.95605	21295.3625
2637.61004	21264.9625
2640.26238	21199.2625
2642.91306	21216.4625
2645.56209	21153.9625
2648.20948	21134.7625
2650.85521	21160.3625
2653.4993	21097.2625
2656.14175	21130.0625
2658.78255	21162.2625
2661.42171	21140.6625
2664.05923	21189.2625
2666.6951	21245.3625
2669.32934	21241.2625
2671.96194	21283.9625
2674.59291	21275.6625
2677.22224	21307.7625
2679.84993	21344.2625
2682.476	21290.2625
2685.10043	21293.3625
2687.72324	21270.3625
2690.34441	21263.1625
2692.96396	21245.8625
2695.58188	21291.5625
2698.19818	21198.6625
2700.81285	21223.1625
2703.4259	21199.0625
2706.03733	21259.7625
2708.64714	21228.2625
2711.25533	21243.8625
2713.86191	21244.9625
2716.46687	21270.8625
2719.07021	21235.5625
2721.67194	21261.9625
2724.27206	21231.2625
2726.87057	21236.9625
2729.46747	21249.9625
2732.06276	21268.5625
2734.65644	21259.8625
2737.24852	21258.2625
2739.83899	21242.9625
2742.42786	21265.8625
2745.01513	21220.3625
2747.60079	21208.7625
2750.18486	21231.8625
2752.76733	21233.6625
2755.3482	21241.5625
2757.92747	21157.6625
2760.50515	21166.9625
2763.08123	21149.2625
2765.65573	21105.4625
2768.22863	21108.3625
2770.79994	21030.8625
2773.36967	21067.9625
2775.9378	21087.9625
2778.50435	21114.5625
2781.06932	21096.9625
2783.6327	21069.0625
2786.1945	21036.5625
2788.75471	21011.8625
2791.31335	20985.6625
2793.87041	20948.9625
2796.42589	20927.6625
2798.97979	20914.1625
2801.53212	20825.8625
2804.08288	20800.7625
2806.63206	20782.9625
2809.17967	20796.1625
2811.72571	20727.4625
2814.27018	20687.5625
2816.81308	20640.9625
2819.35442	20653.0625
2821.89419	20651.3625
2824.43239	20653.2625
2826.96904	20632.5625
2829.50412	20691.7625
2832.03763	20638.5625
2834.56959	20659.7625
2837.1	20630.3625
2839.62884	20602.2625
2842.15613	20615.5625
2844.68186	20618.4625
2847.20604	20591.8625
2849.72867	20582.2625
2852.24974	20549.5625
2854.76927	20529.5625
2857.28724	20513.9625
2859.80367	20509.7625
2862.31855	20471.6625
2864.83189	20440.1625
2867.34368	20446.8625
2869.85393	20445.9625
2872.36264	20421.1625
2874.8698	20397.0625
2877.37543	20348.1625
2879.87952	20332.2625
2882.38207	20346.0625
2884.88308	20332.8625
2887.38256	20349.5625
2889.88051	20304.1625
2892.37692	20352.2625
2894.8718	20354.2625
2897.36515	20350.4625
2899.85698	20353.5625
2902.34727	20384.7625
2904.83604	20368.5625
2907.32328	20396.5625
2909.809	20399.0625
2912.29319	20417.5625
2914.77587	20436.5625
2917.25702	20372.3625
2919.73665	20351.4625
2922.21476	20347.6625
2924.69136	20308.1625
2927.16644	20316.8625
2929.64	20283.7625
2932.11205	20279.7625
2934.58258	20213.4625
2937.05161	20253.8625
2939.51912	20246.7625
2941.98513	20203.5625
2944.44962	20165.8625
2946.91261	20088.5625
2949.37409	20151.2625
2951.83407	20145.4625
2954.29254	20103.6625
2956.74951	20096.7625
2959.20498	20059.2625
2961.65895	20072.9625
2964.11142	20045.2625
2966.56239	20023.1625
2969.01186	19981.6625
2971.45984	19923.6625
2973.90632	19882.4625
2976.35131	19847.3625
2978.7948	19817.5625
2981.23681	19792.5625
2983.67732	19761.7625
2986.11635	19694.7625
2988.55388	19671.3625
2990.98993	19629.7625
2993.4245	19602.6625
2995.85758	19579.4625
2998.28917	19472.6625
3000.71928	19463.4625
3003.14791	19388.1625
3005.57506	19416.1625
3008.00073	19337.1625
3010.42493	19333.7625
3012.84764	19283.7625
3015.26888	19313.6625
3017.68865	19214.6625
3020.10694	19192.3625
3022.52376	19138.9625
3024.9391	19146.9625
3027.35298	19085.5625
3029.76539	19075.8625
3032.17632	19054.9625
3034.5858	19062.5625
3036.9938	19012.2625
3039.40034	18981.9625
3041.80542	19007.6625
3044.20903	18955.1625
3046.61118	18951.1625
3049.01187	18861.7625
3051.4111	18822.5625
3053.80888	18788.6625
3056.20519	18694.9625
3058.60005	18651.6625
3060.99345	18669.2625
3063.3854	18586.2625
3065.7759	18519.7625
3068.16494	18442.1625
3070.55254	18388.1625
3072.93868	18318.8625
3075.32338	18290.1625
3077.70662	18225.6625
3080.08842	18149.5625
3082.46878	18109.3625
3084.84769	18044.0625
3087.22515	18068.4625
3089.60118	18026.8625
3091.97576	18041.8625
3094.3489	18010.3625
3096.72061	18009.5625
3099.09087	17991.1625
3101.4597	17998.0625
3103.82709	18000.9625
3106.19305	17972.0625
3108.55757	17947.8625
3110.92066	17921.5625
3113.28232	17875.3625
3115.64255	17821.5625
3118.00134	17771.9625
3120.35871	17685.2625
3122.71466	17649.9625
3125.06917	17626.3625
3127.42226	17621.1625
3129.77393	17591.2625
3132.12417	17573.0625
3134.47299	17555.6625
3136.82039	17495.8625
3139.16636	17528.0625
3141.51092	17486.0625
3143.85406	17518.1625
3146.19579	17454.7625
3148.53609	17485.8625
3150.87499	17487.1625
3153.21246	17470.8625
3155.54853	17507.0625
3157.88318	17437.3625
3160.21642	17495.2625
3162.54826	17455.7625
3164.87868	17427.3625
3167.2077	17385.9625
3169.5353	17367.2625
3171.86151	17369.7625
3174.18631	17348.6625
3176.5097	17360.1625
3178.83169	17299.4625
3181.15228	17318.4625
3183.47147	17236.7625
3185.78926	17251.1625
3188.10565	17217.1625
3190.42065	17193.6625
3192.73424	17169.8625
3195.04645	17172.9625
3197.35725	17150.2625
3199.66667	17119.9625
3201.97469	17144.9625
3204.28132	17126.5625
3206.58656	17153.1625
3208.8904	17164.9625
3211.19287	17160.4625
3213.49394	17151.4625
3215.79363	17142.0625
3218.09193	17179.4625
3220.38884	17134.0625
3222.68438	17174.2625
3224.97853	17130.2625
3227.2713	17117.6625
3229.56269	17105.9625
3231.8527	17119.8625
3234.14133	17044.8625
3236.42858	17004.5625
3238.71446	16995.5625
3240.99896	16931.4625
3243.28209	16940.5625
3245.56384	16874.8625
3247.84423	16893.9625
3250.12324	16832.5625
3252.40088	16838.6625
3254.67715	16832.0625
3256.95205	16768.8625
3259.22558	16806.7625
3261.49775	16801.8625
3263.76855	16761.6625
3266.03799	16728.7625
3268.30606	16706.9625
3270.57277	16652.8625
3272.83812	16624.1625
3275.10211	16600.4625
3277.36474	16595.4625
3279.62601	16572.3625
3281.88593	16532.8625
3284.14448	16566.9625
3286.40168	16536.3625
3288.65753	16531.6625
3290.91202	16511.0625
3293.16516	16481.9625
3295.41695	16468.6625
3297.66738	16347.7625
3299.91647	16241.5625
3302.16421	16134.0625
3304.4106	16064.4625
3306.65564	15975.3625
3308.89933	15843.5625
3311.14169	15762.4625
3313.38269	15629.8625
3315.62236	15533.0625
3317.86068	15367.8625
3320.09766	15238.5625
3322.3333	15172.8625
3324.5676	15108.8625
3326.80056	14886.0625
3329.03219	14764.7625
3331.26248	5.1625
3333.49143	0.7625
3335.71905	-1.5375
