Data from AgNPs_FTO_APTES_UA_20uM_CRN_500uM_R6G_10uM_NaF_0.1M_Addition_RamanShift__32__19-09-25-000.txt Node

Date: Thu Feb 17 19:09:25 GMT 2022
User: TCL
Spectrometer: QEP01345
Trigger mode: 4
Integration Time (sec): 1.000000E1
Scans to average: 7
Electric dark correction enabled: true
Nonlinearity correction enabled: false
Boxcar width: 0
XAxis mode: Raman Shifts
Number of Pixels in Spectrum: 1044
>>>>>Begin Spectral Data<<<<<
46.04893	0.41071
50.45542	0.41071
54.85868	-0.30357
59.25871	-0.875
63.6555	64.83929
68.04907	63.98214
72.43941	71.98214
76.82654	76.83929
81.21044	77.98214
85.59113	79.41071
89.96862	85.55357
94.34289	81.26786
98.71396	88.55357
103.08183	88.69643
107.4465	94.98214
111.80798	92.41071
116.16626	96.55357
120.52136	99.98214
124.87327	110.26786
129.222	112.98214
133.56755	114.26786
137.90993	130.98214
142.24913	138.41071
146.58517	148.83929
150.91804	176.26786
155.24774	211.41071
159.57429	259.69643
163.89768	339.98214
168.21792	454.69643
172.53501	618.98214
176.84895	864.26786
181.15975	1202.55357
185.46741	1705.69643
189.77193	2348.83929
194.07331	3186.41071
198.37157	4119.83929
202.6667	5094.83929
206.9587	6147.125
211.24758	7182.98214
215.53334	8295.41071
219.81599	9538.125
224.09553	10984.125
228.37195	12664.41071
232.64527	14474.98214
236.91549	16224.41071
241.18261	17789.98214
245.44663	18933.55357
249.70755	19916.41071
253.96539	20558.26786
258.22014	20991.98214
262.4718	21259.125
266.72039	21365.41071
270.96589	21172.125
275.20832	20786.69643
279.44768	20135.69643
283.68397	19450.26786
287.91719	19105.83929
292.14735	19262.41071
296.37445	20078.125
300.59849	21571.69643
304.81948	23479.98214
309.03742	25025.69643
313.25231	25355.125
317.46415	23872.41071
321.67296	21090.125
325.87872	18725.69643
330.08145	17549.98214
334.28114	17472.41071
338.47781	18005.55357
342.67145	18812.41071
346.86207	20083.69643
351.04966	22086.83929
355.23424	24440.41071
359.4158	26153.41071
363.59435	26876.125
367.76989	26933.98214
371.94243	26594.69643
376.11196	26304.41071
380.27849	25889.26786
384.44203	25294.55357
388.60257	24531.69643
392.76012	23929.26786
396.91468	23991.26786
401.06626	24615.55357
405.21485	25136.26786
409.36047	24311.41071
413.50311	22142.83929
417.64277	19953.125
421.77947	18610.26786
425.9132	17945.83929
430.04396	17764.98214
434.17176	17896.98214
438.2966	18260.26786
442.41849	18987.41071
446.53742	19832.125
450.6534	20561.98214
454.76644	20935.69643
458.87653	20778.83929
462.98368	20370.98214
467.08789	19765.98214
471.18916	19034.26786
475.2875	18232.69643
479.38291	17489.26786
483.4754	16960.125
487.56496	16581.55357
491.6516	16421.41071
495.73531	16384.98214
499.81612	16491.125
503.89401	16851.98214
507.96899	17355.83929
512.04106	18069.55357
516.11023	18842.69643
520.1765	19458.55357
524.23987	19530.83929
528.30034	18993.98214
532.35792	18374.125
536.41261	17710.69643
540.46441	17084.98214
544.51333	16590.125
548.55936	16523.98214
552.60252	16966.41071
556.64279	17614.26786
560.6802	17917.69643
564.71473	18512.69643
568.7464	19975.26786
572.7752	20746.125
576.80114	19379.69643
580.82422	17616.41071
584.84444	16743.83929
588.86181	16612.125
592.87633	16871.26786
596.888	17252.83929
600.89682	18321.41071
604.9028	22245.125
608.90594	33435.83929
612.90624	49394.41071
616.90371	48543.125
620.89834	29286.55357
624.89015	19516.98214
628.87913	17628.41071
632.86528	17978.55357
636.84862	18688.55357
640.82913	18244.41071
644.80683	16725.125
648.78172	15605.98214
652.75379	15657.41071
656.72306	16924.98214
660.68952	18495.98214
664.65319	18066.26786
668.61405	16287.55357
672.57211	15417.55357
676.52738	15358.83929
680.47986	15370.98214
684.42955	15071.125
688.37646	14898.69643
692.32058	14918.26786
696.26192	15119.125
700.20048	15534.69643
704.13626	15716.41071
708.06928	15577.55357
711.99952	15301.69643
715.927	15243.98214
719.85171	15492.55357
723.77365	15652.83929
727.69284	15473.69643
731.60928	15275.69643
735.52295	15255.55357
739.43388	15282.69643
743.34206	15369.125
747.24749	15375.41071
751.15017	15387.55357
755.05012	15822.55357
758.94733	17249.55357
762.8418	20769.83929
766.73354	26674.41071
770.62254	32742.83929
774.50882	36785.83929
778.39237	36059.55357
782.27321	29669.98214
786.15132	22488.26786
790.02671	18227.26786
793.89938	16429.98214
797.76935	15678.69643
801.6366	15346.26786
805.50115	15190.98214
809.36299	15113.26786
813.22213	15065.83929
817.07857	14981.83929
820.93231	14930.69643
824.78336	14939.26786
828.63172	15113.41071
832.47738	15146.26786
836.32036	15016.69643
840.16066	14809.83929
843.99827	14648.69643
847.8332	14570.69643
851.66546	14593.69643
855.49504	14585.83929
859.32195	14566.26786
863.1462	14451.98214
866.96777	14396.83929
870.78668	14432.83929
874.60293	14507.98214
878.41652	14641.41071
882.22745	14851.83929
886.03573	14983.41071
889.84136	14964.69643
893.64433	14823.125
897.44466	14807.41071
901.24235	14772.98214
905.0374	14684.41071
908.8298	14439.83929
912.61957	14287.69643
916.40671	14234.125
920.19121	14297.41071
923.97308	14504.55357
927.75233	14884.26786
931.52895	15414.69643
935.30295	15249.83929
939.07433	14516.69643
942.84309	13816.69643
946.60924	13398.83929
950.37278	13210.55357
954.13371	13120.26786
957.89203	13041.125
961.64774	13041.83929
965.40086	13018.41071
969.15137	12961.98214
972.89929	12915.69643
976.64461	12936.41071
980.38733	12938.98214
984.12747	12950.125
987.86502	12996.41071
991.59999	13101.83929
995.33237	13306.41071
999.06217	13609.41071
1002.78939	14016.98214
1006.51404	14503.26786
1010.23611	14957.83929
1013.95561	15244.55357
1017.67255	15184.83929
1021.38692	14930.98214
1025.09872	14491.26786
1028.80796	14243.26786
1032.51465	14226.69643
1036.21877	14340.98214
1039.92035	14516.98214
1043.61937	14630.55357
1047.31584	14693.98214
1051.00976	14687.69643
1054.70114	14548.41071
1058.38998	14420.98214
1062.07627	14433.98214
1065.76003	14473.98214
1069.44126	14477.98214
1073.11995	14679.83929
1076.79611	15165.125
1080.46974	15859.98214
1084.14085	16829.83929
1087.80943	17703.69643
1091.47549	17912.98214
1095.13903	17337.69643
1098.80005	16280.41071
1102.45857	15560.41071
1106.11456	15452.125
1109.76805	15873.98214
1113.41903	16795.69643
1117.06751	18147.55357
1120.71348	19937.125
1124.35696	21952.55357
1127.99793	23136.125
1131.63641	22404.125
1135.2724	20178.69643
1138.90589	18308.69643
1142.5369	17151.69643
1146.16542	16352.69643
1149.79145	15924.98214
1153.415	15756.26786
1157.03607	15911.26786
1160.65467	16362.125
1164.27079	17222.125
1167.88443	18619.98214
1171.49561	20949.26786
1175.10432	24889.26786
1178.71056	30397.69643
1182.31434	34729.125
1185.91565	35718.125
1189.51451	33927.26786
1193.11091	30664.41071
1196.70485	27256.125
1200.29634	24989.41071
1203.88538	23288.125
1207.47197	20952.26786
1211.05612	18901.55357
1214.63782	17703.125
1218.21708	17151.83929
1221.79391	16995.98214
1225.36829	16927.41071
1228.94024	16842.98214
1232.50976	16836.125
1236.07685	16904.41071
1239.6415	17169.98214
1243.20374	17486.125
1246.76355	17673.69643
1250.32093	17920.98214
1253.8759	18464.83929
1257.42845	19298.69643
1260.97859	20250.98214
1264.52631	21365.41071
1268.07163	22315.55357
1271.61453	23076.125
1275.15503	23320.41071
1278.69312	23220.125
1282.22882	23293.55357
1285.76211	24068.41071
1289.29301	25317.83929
1292.82151	26563.41071
1296.34761	27957.41071
1299.87133	30200.55357
1303.39266	34311.125
1306.9116	40591.98214
1310.42815	47167.55357
1313.94233	49386.98214
1317.45412	45765.83929
1320.96354	39686.55357
1324.47058	33933.26786
1327.97525	29437.41071
1331.47754	27034.41071
1334.97747	26383.98214
1338.47502	27206.41071
1341.97022	29213.41071
1345.46305	32280.98214
1348.95352	36497.125
1352.44163	41849.55357
1355.92738	49542.26786
1359.41078	60217.98214
1362.89183	68109.69643
1366.37053	63282.69643
1369.84688	50515.41071
1373.32088	39288.125
1376.79254	32140.41071
1380.26186	28106.125
1383.72883	25592.98214
1387.19347	23665.41071
1390.65578	21880.125
1394.11575	20526.69643
1397.57339	19819.69643
1401.0287	19633.125
1404.48168	19813.69643
1407.93234	20109.98214
1411.38068	20575.98214
1414.82669	20993.55357
1418.27039	21025.69643
1421.71177	20800.69643
1425.15083	20492.26786
1428.58758	20505.41071
1432.02203	20813.125
1435.45416	21121.125
1438.88399	21137.98214
1442.31151	21024.98214
1445.73673	21114.98214
1449.15965	21160.55357
1452.58027	20954.69643
1455.9986	20487.125
1459.41463	20323.41071
1462.82837	20655.26786
1466.23982	21355.98214
1469.64898	22118.55357
1473.05586	22597.55357
1476.46045	23054.83929
1479.86276	23719.69643
1483.26279	24665.41071
1486.66054	25833.26786
1490.05602	27444.55357
1493.44922	29665.125
1496.84016	33196.41071
1500.22882	39021.26786
1503.61521	47125.125
1506.99934	56446.98214
1510.38121	63906.55357
1513.76081	64926.55357
1517.13816	58124.55357
1520.51324	47016.98214
1523.88607	37196.83929
1527.25665	31081.41071
1530.62498	27788.69643
1533.99105	25976.26786
1537.35488	24966.69643
1540.71647	24533.98214
1544.07581	24587.98214
1547.4329	24888.98214
1550.78776	25082.26786
1554.14038	25151.55357
1557.49077	25356.83929
1560.83892	25875.69643
1564.18484	27116.83929
1567.52853	28808.98214
1570.86999	30279.55357
1574.20922	30985.41071
1577.54624	30478.26786
1580.88103	27922.26786
1584.2136	24473.41071
1587.54395	22345.26786
1590.87208	22140.83929
1594.19801	23715.41071
1597.52172	26151.55357
1600.84321	27364.41071
1604.16251	26619.41071
1607.47959	24744.69643
1610.79447	22446.98214
1614.10715	20178.41071
1617.41763	18463.98214
1620.7259	17492.55357
1624.03199	17006.41071
1627.33587	17077.41071
1630.63757	17593.55357
1633.93707	18695.26786
1637.23439	20726.41071
1640.52951	24020.98214
1643.82246	29080.83929
1647.11321	35349.125
1650.40179	39843.26786
1653.68819	38393.69643
1656.97241	31672.41071
1660.25446	24570.41071
1663.53433	19803.83929
1666.81203	17114.69643
1670.08756	15630.41071
1673.36092	14701.55357
1676.63211	14086.69643
1679.90115	13655.26786
1683.16801	13319.26786
1686.43272	13073.26786
1689.69527	12924.69643
1692.95567	12806.125
1696.2139	12698.83929
1699.46999	12659.98214
1702.72392	12644.41071
1705.97571	12621.98214
1709.22535	12617.125
1712.47284	12611.55357
1715.71819	12665.41071
1718.96139	12596.83929
1722.20246	12532.98214
1725.44139	12405.41071
1728.67818	12288.98214
1731.91284	12161.83929
1735.14537	12017.69643
1738.37576	11947.98214
1741.60403	11869.26786
1744.83017	11810.55357
1748.05418	11733.41071
1751.27607	11717.83929
1754.49584	11652.41071
1757.71349	11604.26786
1760.92903	11585.98214
1764.14244	11531.41071
1767.35375	11484.55357
1770.56294	11421.55357
1773.77002	11363.69643
1776.97499	11285.26786
1780.17785	11244.69643
1783.37861	11231.125
1786.57727	11171.55357
1789.77382	11154.26786
1792.96828	11116.83929
1796.16064	11102.83929
1799.3509	11066.98214
1802.53907	11044.83929
1805.72514	10983.69643
1808.90913	10969.98214
1812.09102	10904.26786
1815.27083	10870.125
1818.44856	10832.98214
1821.6242	10814.125
1824.79776	10766.26786
1827.96924	10762.69643
1831.13864	10747.55357
1834.30597	10700.55357
1837.47122	10673.98214
1840.6344	10667.26786
1843.7955	10652.55357
1846.95454	10621.69643
1850.11151	10600.41071
1853.26642	10626.55357
1856.41926	10581.69643
1859.57004	10589.55357
1862.71876	10581.55357
1865.86542	10616.125
1869.01003	10594.83929
1872.15258	10583.55357
1875.29308	10623.55357
1878.43152	10587.55357
1881.56792	10590.83929
1884.70227	10617.69643
1887.83457	10566.69643
1890.96482	10553.26786
1894.09304	10576.83929
1897.21921	10518.83929
1900.34335	10532.69643
1903.46544	10534.55357
1906.58551	10517.69643
1909.70353	10515.125
1912.81953	10496.55357
1915.93349	10507.83929
1919.04543	10483.98214
1922.15534	10458.83929
1925.26322	10429.55357
1928.36908	10388.69643
1931.47292	10333.125
1934.57473	10322.41071
1937.67453	10281.125
1940.77232	10225.83929
1943.86808	10189.125
1946.96184	10163.26786
1950.05358	10124.55357
1953.14331	10108.98214
1956.23103	10054.69643
1959.31675	10082.125
1962.40046	10056.98214
1965.48217	10030.55357
1968.56188	10021.69643
1971.63959	10010.98214
1974.7153	9998.41071
1977.78901	9953.125
1980.86073	9890.55357
1983.93046	9866.55357
1986.99819	9810.98214
1990.06394	9757.83929
1993.1277	9725.125
1996.18947	9691.125
1999.24925	9634.125
2002.30706	9566.98214
2005.36288	9567.125
2008.41672	9535.41071
2011.46859	9499.55357
2014.51848	9443.125
2017.56639	9428.98214
2020.61233	9417.41071
2023.6563	9350.41071
2026.6983	9329.69643
2029.73833	9306.69643
2032.7764	9324.26786
2035.8125	9256.41071
2038.84664	9260.41071
2041.87881	9237.125
2044.90903	9241.125
2047.93729	9229.125
2050.96359	9238.69643
2053.98794	9198.98214
2057.01034	9187.69643
2060.03078	9164.98214
2063.04927	9115.26786
2066.06582	9128.69643
2069.08042	9117.83929
2072.09307	9098.83929
2075.10378	9073.69643
2078.11255	9066.41071
2081.11938	9077.98214
2084.12426	9066.83929
2087.12722	9080.83929
2090.12824	9086.26786
2093.12732	9083.125
2096.12447	9088.98214
2099.11969	9071.55357
2102.11299	9081.83929
2105.10435	9066.125
2108.09379	9071.26786
2111.08131	9083.26786
2114.0669	9111.83929
2117.05057	9122.125
2120.03233	9119.98214
2123.01216	9117.26786
2125.99008	9128.98214
2128.96609	9164.125
2131.94018	9182.55357
2134.91236	9163.55357
2137.88263	9143.26786
2140.851	9175.55357
2143.81746	9138.83929
2146.78201	9137.41071
2149.74466	9098.98214
2152.7054	9094.55357
2155.66425	9087.26786
2158.6212	9055.26786
2161.57625	9047.26786
2164.52941	9038.98214
2167.48067	9053.125
2170.43004	9030.55357
2173.37752	9050.125
2176.32311	9029.83929
2179.26681	9074.125
2182.20863	9046.55357
2185.14856	9040.41071
2188.08661	9040.69643
2191.02278	9027.69643
2193.95707	9014.26786
2196.88948	8981.98214
2199.82001	8968.41071
2202.74867	8988.98214
2205.67545	8966.98214
2208.60037	8954.41071
2211.52341	8957.41071
2214.44458	8933.55357
2217.36388	8884.41071
2220.28132	8863.125
2223.1969	8858.125
2226.11061	8856.26786
2229.02246	8795.55357
2231.93245	8809.41071
2234.84058	8764.83929
2237.74686	8753.83929
2240.65128	8776.69643
2243.55385	8776.83929
2246.45456	8745.98214
2249.35343	8771.83929
2252.25044	8754.26786
2255.14561	8768.125
2258.03893	8805.26786
2260.93041	8784.55357
2263.82004	8774.83929
2266.70783	8756.41071
2269.59378	8710.69643
2272.4779	8681.41071
2275.36017	8697.83929
2278.24061	8675.41071
2281.11922	8632.41071
2283.996	8612.41071
2286.87094	8601.125
2289.74405	8573.26786
2292.61534	8550.125
2295.4848	8548.69643
2298.35243	8521.98214
2301.21824	8493.41071
2304.08223	8493.69643
2306.94439	8478.41071
2309.80474	8479.69643
2312.66327	8475.125
2315.51999	8466.41071
2318.37489	8471.83929
2321.22797	8460.41071
2324.07925	8448.125
2326.92871	8445.83929
2329.77637	8431.83929
2332.62222	8405.55357
2335.46626	8412.98214
2338.3085	8408.41071
2341.14893	8402.41071
2343.98756	8423.125
2346.8244	8418.69643
2349.65943	8445.83929
2352.49267	8446.125
2355.32411	8481.69643
2358.15376	8498.55357
2360.98161	8504.69643
2363.80768	8547.69643
2366.63195	8571.55357
2369.45444	8560.83929
2372.27514	8570.83929
2375.09405	8548.83929
2377.91118	8528.69643
2380.72652	8496.83929
2383.54009	8425.55357
2386.35187	8406.69643
2389.16188	8345.26786
2391.97011	8307.69643
2394.77657	8257.98214
2397.58125	8239.98214
2400.38416	8212.125
2403.18529	8201.83929
2405.98466	8183.69643
2408.78226	8128.55357
2411.57809	8114.41071
2414.37216	8126.125
2417.16446	8120.83929
2419.955	8102.26786
2422.74378	8087.125
2425.5308	8109.55357
2428.31606	8116.125
2431.09956	8121.41071
2433.88131	8085.98214
2436.6613	8086.55357
2439.43954	8100.55357
2442.21603	8125.41071
2444.99077	8133.26786
2447.76377	8136.26786
2450.53501	8154.125
2453.30451	8144.55357
2456.07226	8142.41071
2458.83827	8139.69643
2461.60254	8138.69643
2464.36507	8093.98214
2467.12586	8087.26786
2469.88492	8104.41071
2472.64224	8111.98214
2475.39782	8151.125
2478.15167	8131.83929
2480.90379	8196.55357
2483.65417	8220.98214
2486.40283	8237.125
2489.14976	8305.98214
2491.89497	8315.55357
2494.63845	8325.69643
2497.3802	8302.69643
2500.12024	8290.26786
2502.85855	8216.83929
2505.59514	8204.125
2508.33002	8128.69643
2511.06318	8084.125
2513.79462	8033.83929
2516.52435	7980.98214
2519.25237	7961.55357
2521.97867	7908.125
2524.70327	7892.83929
2527.42616	7865.69643
2530.14734	7858.83929
2532.86681	7857.41071
2535.58458	7845.55357
2538.30065	7859.69643
2541.01501	7879.26786
2543.72768	7860.83929
2546.43864	7861.26786
2549.14791	7860.83929
2551.85548	7874.26786
2554.56136	7837.98214
2557.26554	7866.69643
2559.96803	7853.98214
2562.66883	7839.125
2565.36794	7806.55357
2568.06536	7817.26786
2570.7611	7793.83929
2573.45514	7778.55357
2576.14751	7761.69643
2578.83819	7745.26786
2581.52719	7721.26786
2584.21451	7724.69643
2586.90015	7693.41071
2589.58411	7701.125
2592.2664	7698.69643
2594.94701	7662.26786
2597.62594	7647.41071
2600.30321	7653.55357
2602.9788	7665.83929
2605.65273	7634.83929
2608.32498	7651.26786
2610.99557	7658.55357
2613.66449	7659.83929
2616.33175	7680.41071
2618.99734	7663.41071
2621.66128	7626.98214
2624.32355	7626.26786
2626.98416	7608.83929
2629.64311	7593.83929
2632.30041	7571.98214
2634.95605	7556.26786
2637.61004	7532.69643
2640.26238	7547.125
2642.91306	7521.125
2645.56209	7503.83929
2648.20948	7524.26786
2650.85521	7495.69643
2653.4993	7526.41071
2656.14175	7525.83929
2658.78255	7557.98214
2661.42171	7547.83929
2664.05923	7577.55357
2666.6951	7596.125
2669.32934	7579.41071
2671.96194	7600.98214
2674.59291	7608.41071
2677.22224	7601.26786
2679.84993	7613.98214
2682.476	7606.69643
2685.10043	7601.83929
2687.72324	7594.41071
2690.34441	7597.69643
2692.96396	7587.41071
2695.58188	7628.125
2698.19818	7600.69643
2700.81285	7600.125
2703.4259	7579.69643
2706.03733	7608.55357
2708.64714	7621.83929
2711.25533	7622.125
2713.86191	7628.125
2716.46687	7672.98214
2719.07021	7641.98214
2721.67194	7639.41071
2724.27206	7669.41071
2726.87057	7648.83929
2729.46747	7635.41071
2732.06276	7628.26786
2734.65644	7629.41071
2737.24852	7606.69643
2739.83899	7596.69643
2742.42786	7606.125
2745.01513	7556.26786
2747.60079	7544.125
2750.18486	7578.41071
2752.76733	7546.69643
2755.3482	7537.125
2757.92747	7528.41071
2760.50515	7518.98214
2763.08123	7492.69643
2765.65573	7502.83929
2768.22863	7458.83929
2770.79994	7470.69643
2773.36967	7478.83929
2775.9378	7487.41071
2778.50435	7464.69643
2781.06932	7462.41071
2783.6327	7472.125
2786.1945	7477.69643
2788.75471	7461.83929
2791.31335	7484.125
2793.87041	7466.69643
2796.42589	7462.83929
2798.97979	7484.55357
2801.53212	7466.69643
2804.08288	7504.41071
2806.63206	7471.83929
2809.17967	7477.125
2811.72571	7483.41071
2814.27018	7501.125
2816.81308	7524.69643
2819.35442	7518.83929
2821.89419	7528.125
2824.43239	7544.41071
2826.96904	7557.125
2829.50412	7586.55357
2832.03763	7567.55357
2834.56959	7560.55357
2837.1	7552.26786
2839.62884	7585.125
2842.15613	7593.98214
2844.68186	7613.83929
2847.20604	7669.83929
2849.72867	7692.69643
2852.24974	7704.26786
2854.76927	7717.125
2857.28724	7712.98214
2859.80367	7697.69643
2862.31855	7685.41071
2864.83189	7690.69643
2867.34368	7695.41071
2869.85393	7711.41071
2872.36264	7680.125
2874.8698	7716.98214
2877.37543	7684.83929
2879.87952	7673.26786
2882.38207	7624.55357
2884.88308	7632.125
2887.38256	7615.125
2889.88051	7610.83929
2892.37692	7611.26786
2894.8718	7596.26786
2897.36515	7603.69643
2899.85698	7588.125
2902.34727	7607.83929
2904.83604	7633.83929
2907.32328	7600.83929
2909.809	7629.41071
2912.29319	7599.83929
2914.77587	7605.125
2917.25702	7616.83929
2919.73665	7571.125
2922.21476	7566.98214
2924.69136	7559.41071
2927.16644	7553.41071
2929.64	7532.98214
2932.11205	7509.125
2934.58258	7470.41071
2937.05161	7449.125
2939.51912	7471.41071
2941.98513	7419.83929
2944.44962	7381.98214
2946.91261	7349.55357
2949.37409	7371.98214
2951.83407	7302.69643
2954.29254	7307.69643
2956.74951	7291.41071
2959.20498	7285.69643
2961.65895	7260.41071
2964.11142	7259.69643
2966.56239	7245.125
2969.01186	7229.125
2971.45984	7209.83929
2973.90632	7191.26786
2976.35131	7186.83929
2978.7948	7161.83929
2981.23681	7128.41071
2983.67732	7112.83929
2986.11635	7082.125
2988.55388	7077.41071
2990.98993	7064.83929
2993.4245	7061.55357
2995.85758	7063.125
2998.28917	7019.55357
3000.71928	7031.69643
3003.14791	7005.26786
3005.57506	7007.26786
3008.00073	7000.69643
3010.42493	6986.69643
3012.84764	6983.98214
3015.26888	6981.41071
3017.68865	6975.83929
3020.10694	6944.125
3022.52376	6925.26786
3024.9391	6928.98214
3027.35298	6893.83929
3029.76539	6900.125
3032.17632	6875.125
3034.5858	6867.41071
3036.9938	6835.83929
3039.40034	6844.69643
3041.80542	6812.41071
3044.20903	6798.55357
3046.61118	6791.69643
3049.01187	6784.98214
3051.4111	6763.41071
3053.80888	6754.55357
3056.20519	6755.69643
3058.60005	6709.69643
3060.99345	6710.55357
3063.3854	6681.55357
3065.7759	6643.41071
3068.16494	6647.41071
3070.55254	6612.55357
3072.93868	6619.55357
3075.32338	6589.26786
3077.70662	6563.125
3080.08842	6547.26786
3082.46878	6541.69643
3084.84769	6525.55357
3087.22515	6532.55357
3089.60118	6508.98214
3091.97576	6499.83929
3094.3489	6516.55357
3096.72061	6514.83929
3099.09087	6513.69643
3101.4597	6497.125
3103.82709	6490.98214
3106.19305	6492.69643
3108.55757	6508.83929
3110.92066	6462.83929
3113.28232	6429.26786
3115.64255	6460.41071
3118.00134	6450.69643
3120.35871	6437.55357
3122.71466	6424.125
3125.06917	6432.98214
3127.42226	6435.55357
3129.77393	6442.41071
3132.12417	6426.83929
3134.47299	6425.83929
3136.82039	6418.98214
3139.16636	6438.125
3141.51092	6433.69643
3143.85406	6458.83929
3146.19579	6472.69643
3148.53609	6445.69643
3150.87499	6455.69643
3153.21246	6469.26786
3155.54853	6477.98214
3157.88318	6480.69643
3160.21642	6487.55357
3162.54826	6511.125
3164.87868	6499.98214
3167.2077	6498.26786
3169.5353	6476.41071
3171.86151	6481.55357
3174.18631	6497.98214
3176.5097	6489.83929
3178.83169	6470.98214
3181.15228	6469.125
3183.47147	6467.69643
3185.78926	6480.69643
3188.10565	6478.98214
3190.42065	6496.26786
3192.73424	6504.125
3195.04645	6500.41071
3197.35725	6507.26786
3199.66667	6499.55357
3201.97469	6519.83929
3204.28132	6520.83929
3206.58656	6569.55357
3208.8904	6561.26786
3211.19287	6558.41071
3213.49394	6562.55357
3215.79363	6580.83929
3218.09193	6593.83929
3220.38884	6584.83929
3222.68438	6630.69643
3224.97853	6592.41071
3227.2713	6597.41071
3229.56269	6582.41071
3231.8527	6607.55357
3234.14133	6573.98214
3236.42858	6542.98214
3238.71446	6565.41071
3240.99896	6529.83929
3243.28209	6525.125
3245.56384	6525.69643
3247.84423	6531.98214
3250.12324	6519.98214
3252.40088	6499.41071
3254.67715	6500.55357
3256.95205	6495.26786
3259.22558	6482.41071
3261.49775	6474.41071
3263.76855	6486.98214
3266.03799	6465.83929
3268.30606	6494.83929
3270.57277	6475.69643
3272.83812	6433.55357
3275.10211	6424.69643
3277.36474	6393.26786
3279.62601	6409.55357
3281.88593	6419.41071
3284.14448	6398.98214
3286.40168	6415.69643
3288.65753	6415.125
3290.91202	6432.55357
3293.16516	6393.41071
3295.41695	6402.98214
3297.66738	6379.26786
3299.91647	6327.55357
3302.16421	6281.83929
3304.4106	6274.69643
3306.65564	6217.69643
3308.89933	6174.41071
3311.14169	6100.55357
3313.38269	6066.69643
3315.62236	6013.26786
3317.86068	5964.98214
3320.09766	5908.55357
3322.3333	5871.69643
3324.5676	5850.26786
3326.80056	5756.69643
3329.03219	5734.125
3331.26248	2.41071
3333.49143	-0.875
3335.71905	0.83929
