Data from AgNPs_FTO_APTES_UA_20uM_CRN_1uM_R6G_10uM_NaF_0.1M_Addition_RamanShift__20__12-25-22-042.txt Node

Date: Thu Feb 17 12:25:22 GMT 2022
User: TCL
Spectrometer: QEP01345
Trigger mode: 4
Integration Time (sec): 7.000000E0
Scans to average: 10
Electric dark correction enabled: true
Nonlinearity correction enabled: false
Boxcar width: 0
XAxis mode: Raman Shifts
Number of Pixels in Spectrum: 1044
>>>>>Begin Spectral Data<<<<<
46.04893	0.2875
50.45542	-1.2125
54.85868	-3.3125
59.25871	-1.2125
63.6555	119.8875
68.04907	120.8875
72.43941	128.9875
76.82654	132.7875
81.21044	137.3875
85.59113	144.3875
89.96862	144.1875
94.34289	147.6875
98.71396	151.0875
103.08183	161.2875
107.4465	162.0875
111.80798	165.2875
116.16626	170.8875
120.52136	181.8875
124.87327	187.8875
129.222	199.5875
133.56755	215.6875
137.90993	231.2875
142.24913	256.0875
146.58517	288.0875
150.91804	346.3875
155.24774	412.0875
159.57429	523.3875
163.89768	668.5875
168.21792	905.0875
172.53501	1245.7875
176.84895	1737.0875
181.15975	2468.7875
185.46741	3480.7875
189.77193	4806.4875
194.07331	6436.5875
198.37157	8317.8875
202.6667	10267.6875
206.9587	12211.0875
211.24758	14167.9875
215.53334	16094.5875
219.81599	18159.5875
224.09553	20383.3875
228.37195	22939.9875
232.64527	25723.2875
236.91549	28672.8875
241.18261	31633.7875
245.44663	34414.8875
249.70755	36933.1875
253.96539	39069.3875
258.22014	40973.4875
262.4718	42496.9875
266.72039	43643.5875
270.96589	44306.7875
275.20832	44351.4875
279.44768	44183.9875
283.68397	43786.4875
287.91719	43478.8875
292.14735	43259.4875
296.37445	43186.1875
300.59849	43295.0875
304.81948	43452.8875
309.03742	43476.4875
313.25231	43151.9875
317.46415	42378.9875
321.67296	41416.3875
325.87872	40585.9875
330.08145	40299.7875
334.28114	40369.8875
338.47781	40724.1875
342.67145	41322.0875
346.86207	42042.2875
351.04966	42972.5875
355.23424	43895.6875
359.4158	44671.6875
363.59435	45371.0875
367.76989	45769.3875
371.94243	46076.4875
376.11196	46346.2875
380.27849	46626.7875
384.44203	46841.4875
388.60257	47071.5875
392.76012	47417.6875
396.91468	47941.4875
401.06626	48620.2875
405.21485	49221.9875
409.36047	49173.1875
413.50311	48653.8875
417.64277	48180.7875
421.77947	48212.0875
425.9132	48410.9875
430.04396	48740.1875
434.17176	49077.2875
438.2966	49625.4875
442.41849	50516.1875
446.53742	51842.3875
450.6534	53309.1875
454.76644	54534.9875
458.87653	54923.3875
462.98368	54646.5875
467.08789	53879.3875
471.18916	52965.5875
475.2875	52117.7875
479.38291	51576.4875
483.4754	51191.5875
487.56496	50667.0875
491.6516	50117.2875
495.73531	49593.4875
499.81612	49323.9875
503.89401	49621.8875
507.96899	49779.3875
512.04106	49620.2875
516.11023	49477.6875
520.1765	49207.6875
524.23987	49034.2875
528.30034	48830.0875
532.35792	48491.7875
536.41261	48034.5875
540.46441	47581.0875
544.51333	47561.4875
548.55936	47990.1875
552.60252	48917.6875
556.64279	50027.0875
560.6802	50735.5875
564.71473	51152.9875
568.7464	51869.2875
572.7752	52972.6875
576.80114	53743.6875
580.82422	54395.0875
584.84444	55041.5875
588.86181	55889.1875
592.87633	56784.2875
596.888	57074.7875
600.89682	56697.8875
604.9028	58103.6875
608.90594	62864.2875
612.90624	67779.3875
616.90371	64153.8875
620.89834	55000.8875
624.89015	51002.9875
628.87913	50499.5875
632.86528	50347.0875
636.84862	50082.2875
640.82913	49344.9875
644.80683	48279.7875
648.78172	47512.8875
652.75379	47439.5875
656.72306	48137.3875
660.68952	49041.6875
664.65319	48985.4875
668.61405	48192.9875
672.57211	48028.0875
676.52738	48095.5875
680.47986	48040.3875
684.42955	47875.1875
688.37646	47876.3875
692.32058	48138.4875
696.26192	48684.2875
700.20048	49277.9875
704.13626	49560.0875
708.06928	49407.4875
711.99952	49068.2875
715.927	48971.6875
719.85171	49150.7875
723.77365	49027.3875
727.69284	48625.0875
731.60928	48223.1875
735.52295	48113.7875
739.43388	48263.4875
743.34206	48508.0875
747.24749	48752.5875
751.15017	49125.4875
755.05012	49845.7875
758.94733	51116.4875
762.8418	53461.3875
766.73354	56926.1875
770.62254	60286.9875
774.50882	60968.2875
778.39237	58480.5875
782.27321	54705.2875
786.15132	51566.0875
790.02671	49712.6875
793.89938	48807.7875
797.76935	48466.3875
801.6366	48436.3875
805.50115	48278.6875
809.36299	48129.4875
813.22213	47831.2875
817.07857	47640.8875
820.93231	47595.7875
824.78336	47467.8875
828.63172	47472.8875
832.47738	47509.1875
836.32036	47656.4875
840.16066	47777.3875
843.99827	48034.6875
847.8332	47964.8875
851.66546	47818.0875
855.49504	47748.4875
859.32195	47734.5875
863.1462	47598.8875
866.96777	47553.5875
870.78668	47466.7875
874.60293	47449.8875
878.41652	47483.9875
882.22745	47695.6875
886.03573	47783.8875
889.84136	47755.5875
893.64433	47607.5875
897.44466	47459.6875
901.24235	47281.0875
905.0374	47083.4875
908.8298	47019.7875
912.61957	47114.0875
916.40671	47444.4875
920.19121	48041.4875
923.97308	48555.1875
927.75233	48740.8875
931.52895	48511.4875
935.30295	48047.1875
939.07433	47353.3875
942.84309	46923.6875
946.60924	46762.6875
950.37278	46680.2875
954.13371	46590.7875
957.89203	46334.2875
961.64774	46189.5875
965.40086	46021.9875
969.15137	45976.2875
972.89929	45832.5875
976.64461	45741.3875
980.38733	45810.4875
984.12747	45990.8875
987.86502	46467.3875
991.59999	47158.2875
995.33237	48077.3875
999.06217	49503.7875
1002.78939	51060.9875
1006.51404	52204.5875
1010.23611	52804.4875
1013.95561	53245.8875
1017.67255	53315.5875
1021.38692	52730.7875
1025.09872	52223.3875
1028.80796	52494.3875
1032.51465	53678.8875
1036.21877	54792.0875
1039.92035	54951.0875
1043.61937	54272.4875
1047.31584	52987.7875
1051.00976	51692.1875
1054.70114	50946.4875
1058.38998	50728.5875
1062.07627	50936.3875
1065.76003	51254.5875
1069.44126	51551.0875
1073.11995	52069.0875
1076.79611	52555.0875
1080.46974	52990.0875
1084.14085	53495.0875
1087.80943	54087.2875
1091.47549	54377.2875
1095.13903	54053.8875
1098.80005	53413.6875
1102.45857	52645.7875
1106.11456	52108.1875
1109.76805	52102.4875
1113.41903	52444.7875
1117.06751	52872.3875
1120.71348	53404.1875
1124.35696	53798.3875
1127.99793	54216.6875
1131.63641	54220.6875
1135.2724	53863.7875
1138.90589	53417.7875
1142.5369	53156.7875
1146.16542	53079.5875
1149.79145	53156.2875
1153.415	53571.3875
1157.03607	54164.9875
1160.65467	55290.5875
1164.27079	57044.5875
1167.88443	59660.7875
1171.49561	62921.5875
1175.10432	67320.1875
1178.71056	72762.8875
1182.31434	77879.8875
1185.91565	80502.5875
1189.51451	80230.9875
1193.11091	77919.1875
1196.70485	74568.0875
1200.29634	71587.1875
1203.88538	69279.4875
1207.47197	67587.0875
1211.05612	66076.9875
1214.63782	65036.8875
1218.21708	64601.5875
1221.79391	64744.9875
1225.36829	64656.5875
1228.94024	63984.0875
1232.50976	62705.7875
1236.07685	61585.4875
1239.6415	61173.2875
1243.20374	61065.7875
1246.76355	61507.0875
1250.32093	62391.0875
1253.8759	63586.3875
1257.42845	65191.5875
1260.97859	66793.7875
1264.52631	68269.5875
1268.07163	69995.1875
1271.61453	71805.5875
1275.15503	73781.6875
1278.69312	75778.6875
1282.22882	77435.3875
1285.76211	78963.5875
1289.29301	80518.4875
1292.82151	82644.2875
1296.34761	85626.3875
1299.87133	89650.2875
1303.39266	94761.3875
1306.9116	100702.1875
1310.42815	106700.1875
1313.94233	110609.7875
1317.45412	110979.3875
1320.96354	108959.9875
1324.47058	106185.4875
1327.97525	103633.9875
1331.47754	102125.4875
1334.97747	101568.4875
1338.47502	102088.5875
1341.97022	102520.3875
1345.46305	101917.8875
1348.95352	100613.6875
1352.44163	99507.0875
1355.92738	100621.3875
1359.41078	104379.8875
1362.89183	107872.9875
1366.37053	105533.1875
1369.84688	97161.6875
1373.32088	87675.2875
1376.79254	81232.1875
1380.26186	78351.1875
1383.72883	77556.3875
1387.19347	77299.9875
1390.65578	76657.6875
1394.11575	76767.2875
1397.57339	77756.9875
1401.0287	79468.1875
1404.48168	81386.1875
1407.93234	82654.8875
1411.38068	82936.5875
1414.82669	81759.6875
1418.27039	79297.7875
1421.71177	76192.8875
1425.15083	73519.5875
1428.58758	72125.8875
1432.02203	72305.1875
1435.45416	73390.8875
1438.88399	74898.5875
1442.31151	76210.3875
1445.73673	77127.1875
1449.15965	77893.2875
1452.58027	78322.5875
1455.9986	78272.9875
1459.41463	78646.7875
1462.82837	79694.6875
1466.23982	81139.1875
1469.64898	82688.4875
1473.05586	83694.7875
1476.46045	83895.7875
1479.86276	83672.9875
1483.26279	83223.1875
1486.66054	82956.0875
1490.05602	83370.6875
1493.44922	83783.9875
1496.84016	84120.0875
1500.22882	84935.5875
1503.61521	86550.7875
1506.99934	88864.2875
1510.38121	90981.0875
1513.76081	91301.6875
1517.13816	89027.7875
1520.51324	85499.5875
1523.88607	82471.2875
1527.25665	80884.4875
1530.62498	80276.7875
1533.99105	80189.6875
1537.35488	79924.5875
1540.71647	79533.4875
1544.07581	78787.8875
1547.4329	77792.5875
1550.78776	76488.9875
1554.14038	75421.8875
1557.49077	74793.2875
1560.83892	74452.7875
1564.18484	74274.8875
1567.52853	74042.4875
1570.86999	74112.8875
1574.20922	74490.8875
1577.54624	74999.3875
1580.88103	74777.9875
1584.2136	74908.0875
1587.54395	76759.7875
1590.87208	80709.6875
1594.19801	86313.2875
1597.52172	92217.5875
1600.84321	94678.3875
1604.16251	91792.3875
1607.47959	85492.0875
1610.79447	78447.7875
1614.10715	71916.5875
1617.41763	66598.1875
1620.7259	63030.8875
1624.03199	61207.9875
1627.33587	61117.3875
1630.63757	62624.7875
1633.93707	65999.3875
1637.23439	71346.6875
1640.52951	78609.8875
1643.82246	86600.1875
1647.11321	92316.5875
1650.40179	92637.7875
1653.68819	86447.1875
1656.97241	76280.9875
1660.25446	66670.0875
1663.53433	59654.9875
1666.81203	55233.4875
1670.08756	52397.6875
1673.36092	50606.5875
1676.63211	49392.9875
1679.90115	48579.6875
1683.16801	47883.7875
1686.43272	47456.4875
1689.69527	47043.1875
1692.95567	46773.3875
1696.2139	46621.0875
1699.46999	46532.5875
1702.72392	46426.1875
1705.97571	46332.2875
1709.22535	46269.9875
1712.47284	46195.5875
1715.71819	46264.3875
1718.96139	46130.6875
1722.20246	45991.3875
1725.44139	45812.2875
1728.67818	45617.0875
1731.91284	45385.0875
1735.14537	45180.6875
1738.37576	45006.2875
1741.60403	44826.8875
1744.83017	44697.7875
1748.05418	44546.9875
1751.27607	44501.3875
1754.49584	44522.6875
1757.71349	44482.6875
1760.92903	44469.9875
1764.14244	44405.0875
1767.35375	44403.2875
1770.56294	44367.1875
1773.77002	44345.2875
1776.97499	44311.6875
1780.17785	44229.4875
1783.37861	44208.6875
1786.57727	44051.4875
1789.77382	44012.7875
1792.96828	44029.6875
1796.16064	43970.5875
1799.3509	43902.9875
1802.53907	43879.5875
1805.72514	43754.3875
1808.90913	43724.3875
1812.09102	43607.2875
1815.27083	43503.6875
1818.44856	43470.3875
1821.6242	43404.6875
1824.79776	43360.0875
1827.96924	43327.6875
1831.13864	43420.3875
1834.30597	43385.0875
1837.47122	43331.1875
1840.6344	43218.3875
1843.7955	43274.9875
1846.95454	43303.0875
1850.11151	43285.2875
1853.26642	43279.1875
1856.41926	43341.8875
1859.57004	43306.1875
1862.71876	43245.3875
1865.86542	43275.8875
1869.01003	43223.2875
1872.15258	43210.1875
1875.29308	43208.5875
1878.43152	43194.4875
1881.56792	43201.6875
1884.70227	43266.1875
1887.83457	43228.5875
1890.96482	43181.7875
1894.09304	43182.6875
1897.21921	43057.2875
1900.34335	43052.5875
1903.46544	43022.9875
1906.58551	43030.1875
1909.70353	43033.2875
1912.81953	42980.3875
1915.93349	42976.7875
1919.04543	42811.2875
1922.15534	42791.0875
1925.26322	42711.8875
1928.36908	42665.2875
1931.47292	42595.0875
1934.57473	42411.4875
1937.67453	42370.0875
1940.77232	42235.4875
1943.86808	42080.1875
1946.96184	41957.8875
1950.05358	41812.1875
1953.14331	41662.5875
1956.23103	41558.4875
1959.31675	41493.3875
1962.40046	41374.2875
1965.48217	41183.1875
1968.56188	41088.9875
1971.63959	41003.8875
1974.7153	40940.0875
1977.78901	40797.3875
1980.86073	40664.5875
1983.93046	40595.0875
1986.99819	40470.8875
1990.06394	40400.0875
1993.1277	40325.8875
1996.18947	40195.9875
1999.24925	40047.0875
2002.30706	39980.6875
2005.36288	39849.8875
2008.41672	39743.6875
2011.46859	39653.4875
2014.51848	39524.1875
2017.56639	39463.6875
2020.61233	39362.6875
2023.6563	39285.1875
2026.6983	39185.1875
2029.73833	39121.8875
2032.7764	39060.2875
2035.8125	38980.5875
2038.84664	38945.8875
2041.87881	38954.9875
2044.90903	38805.6875
2047.93729	38751.6875
2050.96359	38777.8875
2053.98794	38678.3875
2057.01034	38712.4875
2060.03078	38751.2875
2063.04927	38725.0875
2066.06582	38653.2875
2069.08042	38627.5875
2072.09307	38634.0875
2075.10378	38523.9875
2078.11255	38458.4875
2081.11938	38478.4875
2084.12426	38446.7875
2087.12722	38439.8875
2090.12824	38398.7875
2093.12732	38423.1875
2096.12447	38408.2875
2099.11969	38337.8875
2102.11299	38410.0875
2105.10435	38439.0875
2108.09379	38413.3875
2111.08131	38466.9875
2114.0669	38496.1875
2117.05057	38420.7875
2120.03233	38456.0875
2123.01216	38537.4875
2125.99008	38597.5875
2128.96609	38651.2875
2131.94018	38708.4875
2134.91236	38711.0875
2137.88263	38775.5875
2140.851	38796.9875
2143.81746	38780.9875
2146.78201	38802.9875
2149.74466	38837.6875
2152.7054	38863.4875
2155.66425	38848.8875
2158.6212	38837.4875
2161.57625	38819.0875
2164.52941	38868.9875
2167.48067	38821.3875
2170.43004	38759.9875
2173.37752	38801.2875
2176.32311	38853.1875
2179.26681	38875.7875
2182.20863	38885.1875
2185.14856	38905.0875
2188.08661	38863.2875
2191.02278	38942.7875
2193.95707	38846.7875
2196.88948	38828.1875
2199.82001	38861.8875
2202.74867	38837.1875
2205.67545	38815.2875
2208.60037	38768.5875
2211.52341	38737.7875
2214.44458	38726.3875
2217.36388	38713.0875
2220.28132	38689.2875
2223.1969	38590.0875
2226.11061	38523.4875
2229.02246	38360.9875
2231.93245	38329.5875
2234.84058	38278.3875
2237.74686	38237.0875
2240.65128	38240.0875
2243.55385	38142.8875
2246.45456	38105.8875
2249.35343	38069.0875
2252.25044	38056.8875
2255.14561	37983.8875
2258.03893	37941.2875
2260.93041	37886.3875
2263.82004	37779.7875
2266.70783	37735.9875
2269.59378	37624.4875
2272.4779	37513.4875
2275.36017	37434.7875
2278.24061	37409.8875
2281.11922	37339.8875
2283.996	37295.0875
2286.87094	37273.4875
2289.74405	37217.5875
2292.61534	37206.4875
2295.4848	37233.1875
2298.35243	37233.3875
2301.21824	37222.7875
2304.08223	37202.0875
2306.94439	37194.0875
2309.80474	37243.2875
2312.66327	37309.2875
2315.51999	37289.9875
2318.37489	37212.9875
2321.22797	37212.5875
2324.07925	37257.1875
2326.92871	37130.7875
2329.77637	37101.7875
2332.62222	37051.2875
2335.46626	37067.7875
2338.3085	37060.0875
2341.14893	37065.8875
2343.98756	37134.0875
2346.8244	37135.6875
2349.65943	37147.4875
2352.49267	37156.1875
2355.32411	37145.8875
2358.15376	37107.1875
2360.98161	37088.2875
2363.80768	37031.0875
2366.63195	36991.0875
2369.45444	36937.2875
2372.27514	36862.9875
2375.09405	36816.6875
2377.91118	36741.1875
2380.72652	36620.1875
2383.54009	36558.2875
2386.35187	36492.9875
2389.16188	36342.6875
2391.97011	36340.6875
2394.77657	36289.3875
2397.58125	36262.6875
2400.38416	36210.0875
2403.18529	36181.6875
2405.98466	36139.3875
2408.78226	36027.4875
2411.57809	35951.4875
2414.37216	35903.5875
2417.16446	35896.2875
2419.955	35833.1875
2422.74378	35854.1875
2425.5308	35812.6875
2428.31606	35808.0875
2431.09956	35843.7875
2433.88131	35827.3875
2436.6613	35808.7875
2439.43954	35803.8875
2442.21603	35778.8875
2444.99077	35733.7875
2447.76377	35743.7875
2450.53501	35715.6875
2453.30451	35711.9875
2456.07226	35686.4875
2458.83827	35674.0875
2461.60254	35597.8875
2464.36507	35622.2875
2467.12586	35653.2875
2469.88492	35674.2875
2472.64224	35682.0875
2475.39782	35677.9875
2478.15167	35687.3875
2480.90379	35716.1875
2483.65417	35740.2875
2486.40283	35783.4875
2489.14976	35798.9875
2491.89497	35786.3875
2494.63845	35817.0875
2497.3802	35793.4875
2500.12024	35810.2875
2502.85855	35816.7875
2505.59514	35780.5875
2508.33002	35735.1875
2511.06318	35669.4875
2513.79462	35660.1875
2516.52435	35637.2875
2519.25237	35571.6875
2521.97867	35619.1875
2524.70327	35528.8875
2527.42616	35488.3875
2530.14734	35534.5875
2532.86681	35478.4875
2535.58458	35493.1875
2538.30065	35500.2875
2541.01501	35503.6875
2543.72768	35481.0875
2546.43864	35478.2875
2549.14791	35370.7875
2551.85548	35364.4875
2554.56136	35271.8875
2557.26554	35232.4875
2559.96803	35238.6875
2562.66883	35156.3875
2565.36794	35153.8875
2568.06536	35118.6875
2570.7611	35108.3875
2573.45514	35024.6875
2576.14751	35025.4875
2578.83819	34991.1875
2581.52719	35032.0875
2584.21451	34984.4875
2586.90015	35012.7875
2589.58411	34926.6875
2592.2664	34992.9875
2594.94701	34974.3875
2597.62594	34978.9875
2600.30321	34974.2875
2602.9788	35004.5875
2605.65273	34989.1875
2608.32498	34951.8875
2610.99557	34999.2875
2613.66449	35038.5875
2616.33175	34954.1875
2618.99734	34923.0875
2621.66128	34971.2875
2624.32355	34962.7875
2626.98416	34899.3875
2629.64311	34899.6875
2632.30041	34921.0875
2634.95605	34892.5875
2637.61004	34890.5875
2640.26238	34848.8875
2642.91306	34787.2875
2645.56209	34708.9875
2648.20948	34696.7875
2650.85521	34729.4875
2653.4993	34743.9875
2656.14175	34713.5875
2658.78255	34735.3875
2661.42171	34809.2875
2664.05923	34865.8875
2666.6951	34835.2875
2669.32934	34894.9875
2671.96194	34904.1875
2674.59291	34906.4875
2677.22224	34891.9875
2679.84993	34909.0875
2682.476	34871.8875
2685.10043	34825.6875
2687.72324	34758.6875
2690.34441	34754.5875
2692.96396	34760.5875
2695.58188	34819.2875
2698.19818	34736.9875
2700.81285	34726.9875
2703.4259	34697.6875
2706.03733	34753.2875
2708.64714	34748.3875
2711.25533	34798.4875
2713.86191	34810.2875
2716.46687	34871.2875
2719.07021	34834.1875
2721.67194	34863.9875
2724.27206	34813.7875
2726.87057	34865.5875
2729.46747	34935.0875
2732.06276	34905.8875
2734.65644	34889.7875
2737.24852	34914.8875
2739.83899	34906.3875
2742.42786	34872.8875
2745.01513	34875.1875
2747.60079	34843.8875
2750.18486	34880.1875
2752.76733	34866.6875
2755.3482	34867.6875
2757.92747	34812.3875
2760.50515	34776.7875
2763.08123	34746.4875
2765.65573	34713.4875
2768.22863	34734.4875
2770.79994	34692.9875
2773.36967	34730.5875
2775.9378	34751.9875
2778.50435	34725.8875
2781.06932	34755.3875
2783.6327	34748.2875
2786.1945	34681.8875
2788.75471	34685.4875
2791.31335	34541.4875
2793.87041	34541.3875
2796.42589	34478.8875
2798.97979	34488.0875
2801.53212	34328.0875
2804.08288	34309.9875
2806.63206	34256.5875
2809.17967	34225.2875
2811.72571	34122.0875
2814.27018	34060.4875
2816.81308	33947.2875
2819.35442	33939.6875
2821.89419	33894.3875
2824.43239	33925.9875
2826.96904	33896.4875
2829.50412	33887.6875
2832.03763	33838.5875
2834.56959	33794.3875
2837.1	33769.3875
2839.62884	33761.4875
2842.15613	33671.1875
2844.68186	33706.1875
2847.20604	33671.8875
2849.72867	33643.7875
2852.24974	33613.6875
2854.76927	33589.7875
2857.28724	33555.9875
2859.80367	33543.1875
2862.31855	33480.4875
2864.83189	33461.9875
2867.34368	33404.2875
2869.85393	33430.4875
2872.36264	33335.6875
2874.8698	33357.9875
2877.37543	33326.4875
2879.87952	33278.9875
2882.38207	33323.7875
2884.88308	33321.4875
2887.38256	33375.8875
2889.88051	33361.1875
2892.37692	33387.8875
2894.8718	33383.7875
2897.36515	33437.6875
2899.85698	33436.1875
2902.34727	33498.7875
2904.83604	33512.2875
2907.32328	33477.2875
2909.809	33526.1875
2912.29319	33599.7875
2914.77587	33589.4875
2917.25702	33604.4875
2919.73665	33481.4875
2922.21476	33549.1875
2924.69136	33452.1875
2927.16644	33474.1875
2929.64	33451.1875
2932.11205	33444.7875
2934.58258	33278.6875
2937.05161	33350.7875
2939.51912	33345.8875
2941.98513	33279.7875
2944.44962	33282.8875
2946.91261	33198.4875
2949.37409	33248.9875
2951.83407	33225.3875
2954.29254	33202.3875
2956.74951	33182.2875
2959.20498	33197.5875
2961.65895	33127.5875
2964.11142	33185.7875
2966.56239	33118.9875
2969.01186	33121.7875
2971.45984	32939.3875
2973.90632	32929.4875
2976.35131	32882.7875
2978.7948	32835.9875
2981.23681	32796.1875
2983.67732	32714.1875
2986.11635	32605.7875
2988.55388	32536.0875
2990.98993	32489.7875
2993.4245	32495.6875
2995.85758	32386.0875
2998.28917	32242.0875
3000.71928	32185.0875
3003.14791	32130.5875
3005.57506	32142.0875
3008.00073	32068.7875
3010.42493	32040.6875
3012.84764	31956.0875
3015.26888	31927.7875
3017.68865	31876.1875
3020.10694	31817.0875
3022.52376	31744.2875
3024.9391	31687.0875
3027.35298	31623.0875
3029.76539	31643.5875
3032.17632	31601.8875
3034.5858	31589.3875
3036.9938	31572.1875
3039.40034	31524.7875
3041.80542	31527.4875
3044.20903	31506.7875
3046.61118	31427.7875
3049.01187	31398.1875
3051.4111	31358.9875
3053.80888	31252.5875
3056.20519	31201.3875
3058.60005	31141.8875
3060.99345	31071.5875
3063.3854	30965.8875
3065.7759	30893.4875
3068.16494	30841.0875
3070.55254	30701.9875
3072.93868	30611.3875
3075.32338	30522.4875
3077.70662	30491.2875
3080.08842	30362.0875
3082.46878	30291.4875
3084.84769	30245.0875
3087.22515	30235.9875
3089.60118	30237.7875
3091.97576	30178.5875
3094.3489	30178.7875
3096.72061	30223.4875
3099.09087	30173.6875
3101.4597	30155.3875
3103.82709	30156.1875
3106.19305	30114.9875
3108.55757	30122.4875
3110.92066	30062.6875
3113.28232	29988.0875
3115.64255	29903.0875
3118.00134	29865.5875
3120.35871	29736.2875
3122.71466	29693.9875
3125.06917	29613.6875
3127.42226	29568.7875
3129.77393	29582.3875
3132.12417	29508.5875
3134.47299	29478.9875
3136.82039	29476.9875
3139.16636	29465.3875
3141.51092	29394.1875
3143.85406	29401.6875
3146.19579	29414.6875
3148.53609	29392.9875
3150.87499	29399.6875
3153.21246	29404.0875
3155.54853	29451.3875
3157.88318	29330.5875
3160.21642	29410.9875
3162.54826	29351.5875
3164.87868	29344.8875
3167.2077	29262.1875
3169.5353	29244.4875
3171.86151	29266.1875
3174.18631	29260.8875
3176.5097	29231.1875
3178.83169	29179.4875
3181.15228	29192.1875
3183.47147	29065.7875
3185.78926	29097.1875
3188.10565	29028.3875
3190.42065	29031.5875
3192.73424	28969.2875
3195.04645	28960.8875
3197.35725	28920.1875
3199.66667	28910.2875
3201.97469	28931.2875
3204.28132	28873.8875
3206.58656	28884.3875
3208.8904	28827.8875
3211.19287	28891.3875
3213.49394	28909.9875
3215.79363	28922.0875
3218.09193	28950.4875
3220.38884	28951.6875
3222.68438	28947.4875
3224.97853	28875.1875
3227.2713	28860.1875
3229.56269	28838.3875
3231.8527	28831.3875
3234.14133	28748.7875
3236.42858	28737.6875
3238.71446	28625.4875
3240.99896	28582.2875
3243.28209	28626.8875
3245.56384	28619.4875
3247.84423	28545.9875
3250.12324	28497.3875
3252.40088	28519.9875
3254.67715	28487.7875
3256.95205	28401.6875
3259.22558	28404.4875
3261.49775	28381.9875
3263.76855	28376.7875
3266.03799	28258.4875
3268.30606	28250.4875
3270.57277	28205.6875
3272.83812	28137.0875
3275.10211	28097.9875
3277.36474	28049.2875
3279.62601	28032.7875
3281.88593	28015.9875
3284.14448	28069.3875
3286.40168	28020.8875
3288.65753	27987.0875
3290.91202	27973.2875
3293.16516	27953.4875
3295.41695	27881.9875
3297.66738	27718.5875
3299.91647	27591.7875
3302.16421	27392.3875
3304.4106	27272.0875
3306.65564	27100.6875
3308.89933	26928.0875
3311.14169	26746.7875
3313.38269	26550.6875
3315.62236	26410.4875
3317.86068	26146.7875
3320.09766	25909.9875
3322.3333	25781.7875
3324.5676	25653.8875
3326.80056	25236.3875
3329.03219	25146.9875
3331.26248	5.5875
3333.49143	0.1875
3335.71905	-0.8125
