Data from AgNPs_FTO_APTES_UA_20uM_CRN_100uM_R6G_10uM_NaF_0.1M_Addition_RamanShift__4__17-23-14-867.txt Node

Date: Thu Feb 17 17:23:14 GMT 2022
User: TCL
Spectrometer: QEP01345
Trigger mode: 4
Integration Time (sec): 1.000000E1
Scans to average: 7
Electric dark correction enabled: true
Nonlinearity correction enabled: false
Boxcar width: 0
XAxis mode: Raman Shifts
Number of Pixels in Spectrum: 1044
>>>>>Begin Spectral Data<<<<<
46.04893	0.125
50.45542	-1.73214
54.85868	-0.30357
59.25871	-0.73214
63.6555	78.41071
68.04907	78.69643
72.43941	86.26786
76.82654	87.26786
81.21044	94.69643
85.59113	95.98214
89.96862	100.55357
94.34289	101.41071
98.71396	108.69643
103.08183	104.83929
107.4465	113.55357
111.80798	112.55357
116.16626	117.41071
120.52136	124.26786
124.87327	131.125
129.222	128.98214
133.56755	132.55357
137.90993	149.98214
142.24913	159.98214
146.58517	172.55357
150.91804	199.125
155.24774	236.55357
159.57429	290.41071
163.89768	370.26786
168.21792	493.55357
172.53501	669.98214
176.84895	936.41071
181.15975	1319.83929
185.46741	1866.41071
189.77193	2596.69643
194.07331	3497.98214
198.37157	4540.83929
202.6667	5609.26786
206.9587	6687.55357
211.24758	7793.69643
215.53334	8780.98214
219.81599	9894.41071
224.09553	11098.125
228.37195	12393.83929
232.64527	13886.41071
236.91549	15408.69643
241.18261	16982.55357
245.44663	18491.98214
249.70755	19862.55357
253.96539	21084.69643
258.22014	22103.41071
262.4718	22875.98214
266.72039	23430.69643
270.96589	23752.55357
275.20832	23769.98214
279.44768	23563.26786
283.68397	23261.41071
287.91719	23002.69643
292.14735	22698.69643
296.37445	22669.83929
300.59849	22730.98214
304.81948	22826.55357
309.03742	22913.98214
313.25231	22867.26786
317.46415	22723.26786
321.67296	22400.41071
325.87872	22124.83929
330.08145	22033.41071
334.28114	22066.125
338.47781	22223.83929
342.67145	22553.98214
346.86207	22918.26786
351.04966	23381.83929
355.23424	23775.55357
359.4158	24189.98214
363.59435	24515.98214
367.76989	24733.83929
371.94243	24902.55357
376.11196	25022.83929
380.27849	25137.125
384.44203	25304.83929
388.60257	25441.125
392.76012	25614.26786
396.91468	25837.69643
401.06626	26104.125
405.21485	26368.41071
409.36047	26306.125
413.50311	26054.125
417.64277	25808.55357
421.77947	25680.55357
425.9132	25789.26786
430.04396	25891.69643
434.17176	26035.125
438.2966	26228.55357
442.41849	26488.125
446.53742	26896.55357
450.6534	27341.69643
454.76644	27640.83929
458.87653	27741.83929
462.98368	27729.26786
467.08789	27667.55357
471.18916	27492.69643
475.2875	27194.41071
479.38291	26950.41071
483.4754	26737.69643
487.56496	26610.125
491.6516	26578.55357
495.73531	26531.55357
499.81612	26599.41071
503.89401	26731.26786
507.96899	26846.83929
512.04106	26944.26786
516.11023	27003.69643
520.1765	27051.98214
524.23987	27041.26786
528.30034	27041.98214
532.35792	26991.83929
536.41261	26923.83929
540.46441	26749.69643
544.51333	26652.26786
548.55936	26773.69643
552.60252	26953.41071
556.64279	27263.98214
560.6802	27457.26786
564.71473	27476.41071
568.7464	27483.83929
572.7752	27650.69643
576.80114	27761.98214
580.82422	27929.98214
584.84444	28232.98214
588.86181	28773.41071
592.87633	29373.83929
596.888	29679.125
600.89682	29569.26786
604.9028	30053.125
608.90594	31894.41071
612.90624	34375.26786
616.90371	33466.98214
620.89834	29741.125
624.89015	27898.98214
628.87913	27679.69643
632.86528	27771.69643
636.84862	27954.83929
640.82913	27907.125
644.80683	27519.98214
648.78172	27238.98214
652.75379	27263.98214
656.72306	27562.69643
660.68952	27902.69643
664.65319	27864.41071
668.61405	27578.55357
672.57211	27551.83929
676.52738	27709.26786
680.47986	27706.83929
684.42955	27623.83929
688.37646	27590.26786
692.32058	27622.98214
696.26192	27768.125
700.20048	28001.98214
704.13626	28165.69643
708.06928	28106.41071
711.99952	27938.69643
715.927	27927.98214
719.85171	28006.98214
723.77365	27971.69643
727.69284	27860.125
731.60928	27695.125
735.52295	27696.83929
739.43388	27711.98214
743.34206	27763.83929
747.24749	27856.83929
751.15017	27898.55357
755.05012	28056.125
758.94733	28372.98214
762.8418	29176.83929
766.73354	30496.69643
770.62254	31948.69643
774.50882	32533.125
778.39237	31932.26786
782.27321	30635.83929
786.15132	29313.69643
790.02671	28475.55357
793.89938	28001.83929
797.76935	27814.69643
801.6366	27735.83929
805.50115	27694.41071
809.36299	27612.41071
813.22213	27562.26786
817.07857	27504.125
820.93231	27511.83929
824.78336	27511.69643
828.63172	27571.26786
832.47738	27607.125
836.32036	27547.26786
840.16066	27594.83929
843.99827	27587.26786
847.8332	27598.55357
851.66546	27649.83929
855.49504	27661.125
859.32195	27715.125
863.1462	27711.83929
866.96777	27758.55357
870.78668	27766.83929
874.60293	27853.69643
878.41652	27915.41071
882.22745	28000.69643
886.03573	28024.69643
889.84136	28010.41071
893.64433	27966.26786
897.44466	27865.41071
901.24235	27839.41071
905.0374	27756.69643
908.8298	27696.83929
912.61957	27648.83929
916.40671	27681.55357
920.19121	27746.125
923.97308	27867.83929
927.75233	27933.55357
931.52895	27925.55357
935.30295	27801.26786
939.07433	27648.55357
942.84309	27485.125
946.60924	27361.69643
950.37278	27264.83929
954.13371	27223.98214
957.89203	27149.125
961.64774	27209.55357
965.40086	27185.98214
969.15137	27129.26786
972.89929	27134.98214
976.64461	27156.41071
980.38733	27169.26786
984.12747	27194.41071
987.86502	27291.55357
991.59999	27403.55357
995.33237	27543.125
999.06217	27766.55357
1002.78939	27971.41071
1006.51404	28230.55357
1010.23611	28528.69643
1013.95561	28726.55357
1017.67255	28842.41071
1021.38692	28750.125
1025.09872	28574.98214
1028.80796	28358.98214
1032.51465	28321.125
1036.21877	28414.83929
1039.92035	28449.83929
1043.61937	28483.125
1047.31584	28474.125
1051.00976	28453.125
1054.70114	28469.83929
1058.38998	28475.41071
1062.07627	28576.125
1065.76003	28781.83929
1069.44126	28929.83929
1073.11995	29122.69643
1076.79611	29436.26786
1080.46974	29635.41071
1084.14085	29762.41071
1087.80943	29863.83929
1091.47549	29951.98214
1095.13903	29925.125
1098.80005	29656.83929
1102.45857	29410.98214
1106.11456	29249.26786
1109.76805	29151.98214
1113.41903	29212.98214
1117.06751	29293.55357
1120.71348	29522.55357
1124.35696	29820.41071
1127.99793	30031.69643
1131.63641	30140.55357
1135.2724	29953.55357
1138.90589	29722.98214
1142.5369	29540.98214
1146.16542	29434.26786
1149.79145	29324.69643
1153.415	29249.125
1157.03607	29230.41071
1160.65467	29469.69643
1164.27079	29923.55357
1167.88443	30593.26786
1171.49561	31402.125
1175.10432	32612.125
1178.71056	34088.83929
1182.31434	35604.26786
1185.91565	36395.98214
1189.51451	36487.98214
1193.11091	35980.69643
1196.70485	35236.26786
1200.29634	34479.83929
1203.88538	33644.41071
1207.47197	32883.26786
1211.05612	32105.125
1214.63782	31654.41071
1218.21708	31327.55357
1221.79391	31100.125
1225.36829	31052.83929
1228.94024	31092.55357
1232.50976	31006.125
1236.07685	30877.55357
1239.6415	30832.55357
1243.20374	30892.98214
1246.76355	30976.98214
1250.32093	31099.69643
1253.8759	31372.26786
1257.42845	31787.41071
1260.97859	32213.69643
1264.52631	32682.41071
1268.07163	33124.69643
1271.61453	33525.69643
1275.15503	33827.26786
1278.69312	34087.98214
1282.22882	34296.98214
1285.76211	34684.69643
1289.29301	35157.125
1292.82151	35712.83929
1296.34761	36347.98214
1299.87133	37325.26786
1303.39266	38477.69643
1306.9116	39953.83929
1310.42815	41433.55357
1313.94233	42293.26786
1317.45412	41975.41071
1320.96354	40934.26786
1324.47058	39755.83929
1327.97525	38776.41071
1331.47754	38073.41071
1334.97747	37811.125
1338.47502	37905.41071
1341.97022	38210.83929
1345.46305	38812.55357
1348.95352	39679.26786
1352.44163	40691.41071
1355.92738	42007.83929
1359.41078	43691.98214
1362.89183	45079.26786
1366.37053	44402.41071
1369.84688	41368.55357
1373.32088	37990.55357
1376.79254	35622.98214
1380.26186	34433.98214
1383.72883	33877.41071
1387.19347	33406.83929
1390.65578	32815.83929
1394.11575	32430.41071
1397.57339	32208.125
1401.0287	32138.26786
1404.48168	32088.55357
1407.93234	32061.41071
1411.38068	32056.41071
1414.82669	32049.41071
1418.27039	31914.83929
1421.71177	31722.41071
1425.15083	31364.98214
1428.58758	31238.41071
1432.02203	31256.69643
1435.45416	31484.55357
1438.88399	31748.125
1442.31151	31741.125
1445.73673	31857.69643
1449.15965	31829.26786
1452.58027	31828.98214
1455.9986	31723.55357
1459.41463	31811.125
1462.82837	32031.55357
1466.23982	32456.83929
1469.64898	32858.98214
1473.05586	33251.41071
1476.46045	33528.69643
1479.86276	33718.83929
1483.26279	33843.83929
1486.66054	34081.83929
1490.05602	34489.69643
1493.44922	35103.26786
1496.84016	35820.83929
1500.22882	37005.125
1503.61521	38545.26786
1506.99934	40185.26786
1510.38121	41237.69643
1513.76081	41033.125
1517.13816	39690.26786
1520.51324	37692.55357
1523.88607	36059.41071
1527.25665	35090.69643
1530.62498	34598.83929
1533.99105	34303.41071
1537.35488	34073.55357
1540.71647	33825.83929
1544.07581	33574.55357
1547.4329	33349.26786
1550.78776	33128.98214
1554.14038	32936.55357
1557.49077	32852.125
1560.83892	32979.41071
1564.18484	33105.26786
1567.52853	33341.69643
1570.86999	33619.55357
1574.20922	33872.41071
1577.54624	33924.125
1580.88103	33484.98214
1584.2136	32910.125
1587.54395	32761.125
1590.87208	33012.69643
1594.19801	33920.125
1597.52172	35091.41071
1600.84321	35667.41071
1604.16251	35372.125
1607.47959	34417.26786
1610.79447	33400.55357
1614.10715	32050.41071
1617.41763	30982.55357
1620.7259	30061.69643
1624.03199	29632.83929
1627.33587	29488.83929
1630.63757	29723.69643
1633.93707	30341.83929
1637.23439	31443.98214
1640.52951	33145.83929
1643.82246	35404.83929
1647.11321	37426.41071
1650.40179	38243.69643
1653.68819	36927.41071
1656.97241	34225.125
1660.25446	31629.26786
1663.53433	29740.55357
1666.81203	28547.55357
1670.08756	27832.125
1673.36092	27346.55357
1676.63211	27047.41071
1679.90115	26847.125
1683.16801	26658.125
1686.43272	26506.69643
1689.69527	26410.83929
1692.95567	26315.69643
1696.2139	26246.69643
1699.46999	26194.98214
1702.72392	26162.125
1705.97571	26143.69643
1709.22535	26100.55357
1712.47284	26128.83929
1715.71819	26080.41071
1718.96139	26037.55357
1722.20246	25986.55357
1725.44139	25953.125
1728.67818	25862.26786
1731.91284	25815.125
1735.14537	25737.55357
1738.37576	25673.26786
1741.60403	25599.98214
1744.83017	25535.41071
1748.05418	25494.98214
1751.27607	25487.125
1754.49584	25459.83929
1757.71349	25446.69643
1760.92903	25470.83929
1764.14244	25471.41071
1767.35375	25462.125
1770.56294	25351.41071
1773.77002	25328.26786
1776.97499	25317.41071
1780.17785	25305.26786
1783.37861	25282.41071
1786.57727	25218.125
1789.77382	25152.125
1792.96828	25215.26786
1796.16064	25117.98214
1799.3509	25018.69643
1802.53907	25018.69643
1805.72514	24983.125
1808.90913	24948.98214
1812.09102	24942.98214
1815.27083	24888.55357
1818.44856	24861.55357
1821.6242	24851.125
1824.79776	24796.125
1827.96924	24770.83929
1831.13864	24748.55357
1834.30597	24711.98214
1837.47122	24780.55357
1840.6344	24767.55357
1843.7955	24738.98214
1846.95454	24753.26786
1850.11151	24684.83929
1853.26642	24668.69643
1856.41926	24645.55357
1859.57004	24601.55357
1862.71876	24605.26786
1865.86542	24635.69643
1869.01003	24635.83929
1872.15258	24579.41071
1875.29308	24515.69643
1878.43152	24513.69643
1881.56792	24511.98214
1884.70227	24510.26786
1887.83457	24469.69643
1890.96482	24393.26786
1894.09304	24398.41071
1897.21921	24363.26786
1900.34335	24323.83929
1903.46544	24302.98214
1906.58551	24243.26786
1909.70353	24277.26786
1912.81953	24240.55357
1915.93349	24208.26786
1919.04543	24192.98214
1922.15534	24144.55357
1925.26322	24098.125
1928.36908	24070.98214
1931.47292	23998.69643
1934.57473	23989.55357
1937.67453	23960.98214
1940.77232	23893.125
1943.86808	23863.83929
1946.96184	23800.125
1950.05358	23687.55357
1953.14331	23620.98214
1956.23103	23626.83929
1959.31675	23606.26786
1962.40046	23491.83929
1965.48217	23408.26786
1968.56188	23370.125
1971.63959	23326.69643
1974.7153	23225.98214
1977.78901	23192.55357
1980.86073	23165.98214
1983.93046	23063.83929
1986.99819	22994.41071
1990.06394	22916.26786
1993.1277	22902.55357
1996.18947	22772.55357
1999.24925	22739.83929
2002.30706	22669.83929
2005.36288	22595.41071
2008.41672	22554.69643
2011.46859	22547.125
2014.51848	22447.69643
2017.56639	22378.55357
2020.61233	22352.98214
2023.6563	22297.55357
2026.6983	22231.98214
2029.73833	22182.83929
2032.7764	22171.83929
2035.8125	22084.125
2038.84664	22062.125
2041.87881	21996.98214
2044.90903	21972.26786
2047.93729	21944.125
2050.96359	21898.125
2053.98794	21884.83929
2057.01034	21910.69643
2060.03078	21860.69643
2063.04927	21843.125
2066.06582	21826.55357
2069.08042	21866.98214
2072.09307	21833.83929
2075.10378	21789.69643
2078.11255	21813.55357
2081.11938	21860.26786
2084.12426	21814.98214
2087.12722	21837.55357
2090.12824	21826.98214
2093.12732	21831.98214
2096.12447	21809.125
2099.11969	21832.41071
2102.11299	21840.41071
2105.10435	21827.125
2108.09379	21839.125
2111.08131	21869.69643
2114.0669	21893.83929
2117.05057	21882.69643
2120.03233	21914.26786
2123.01216	21938.55357
2125.99008	21972.26786
2128.96609	22037.83929
2131.94018	22086.69643
2134.91236	22042.26786
2137.88263	22085.83929
2140.851	22045.69643
2143.81746	22125.125
2146.78201	22091.98214
2149.74466	22108.41071
2152.7054	22175.83929
2155.66425	22122.26786
2158.6212	22096.83929
2161.57625	22064.69643
2164.52941	22082.41071
2167.48067	22036.55357
2170.43004	22089.98214
2173.37752	22081.125
2176.32311	22079.69643
2179.26681	22090.98214
2182.20863	22029.26786
2185.14856	22122.41071
2188.08661	22061.83929
2191.02278	22071.125
2193.95707	22076.69643
2196.88948	22050.83929
2199.82001	22017.26786
2202.74867	22047.125
2205.67545	22037.98214
2208.60037	22008.98214
2211.52341	21978.26786
2214.44458	21903.98214
2217.36388	21914.98214
2220.28132	21855.26786
2223.1969	21779.69643
2226.11061	21742.69643
2229.02246	21724.98214
2231.93245	21700.83929
2234.84058	21665.26786
2237.74686	21568.125
2240.65128	21611.55357
2243.55385	21615.55357
2246.45456	21618.69643
2249.35343	21590.26786
2252.25044	21526.83929
2255.14561	21511.41071
2258.03893	21483.69643
2260.93041	21438.125
2263.82004	21419.98214
2266.70783	21359.26786
2269.59378	21288.98214
2272.4779	21271.83929
2275.36017	21262.69643
2278.24061	21238.125
2281.11922	21150.83929
2283.996	21180.83929
2286.87094	21124.98214
2289.74405	21104.41071
2292.61534	21069.69643
2295.4848	21040.26786
2298.35243	21068.26786
2301.21824	21026.26786
2304.08223	21074.41071
2306.94439	20971.26786
2309.80474	20999.26786
2312.66327	21008.125
2315.51999	20967.26786
2318.37489	20973.26786
2321.22797	20914.69643
2324.07925	20900.69643
2326.92871	20854.98214
2329.77637	20838.26786
2332.62222	20756.83929
2335.46626	20782.83929
2338.3085	20758.26786
2341.14893	20736.55357
2343.98756	20692.55357
2346.8244	20632.41071
2349.65943	20684.55357
2352.49267	20660.69643
2355.32411	20654.125
2358.15376	20653.26786
2360.98161	20589.125
2363.80768	20628.55357
2366.63195	20607.125
2369.45444	20568.69643
2372.27514	20531.55357
2375.09405	20530.55357
2377.91118	20519.41071
2380.72652	20466.69643
2383.54009	20409.55357
2386.35187	20398.41071
2389.16188	20361.125
2391.97011	20356.98214
2394.77657	20263.41071
2397.58125	20276.55357
2400.38416	20267.26786
2403.18529	20256.98214
2405.98466	20217.98214
2408.78226	20172.26786
2411.57809	20146.69643
2414.37216	20091.55357
2417.16446	20122.69643
2419.955	20089.98214
2422.74378	20078.55357
2425.5308	20043.41071
2428.31606	20049.55357
2431.09956	20015.83929
2433.88131	19976.41071
2436.6613	19989.125
2439.43954	19974.98214
2442.21603	19979.41071
2444.99077	19975.125
2447.76377	19930.69643
2450.53501	19970.98214
2453.30451	19920.125
2456.07226	19902.69643
2458.83827	19845.26786
2461.60254	19860.55357
2464.36507	19852.125
2467.12586	19779.69643
2469.88492	19777.55357
2472.64224	19787.69643
2475.39782	19775.83929
2478.15167	19764.41071
2480.90379	19765.83929
2483.65417	19798.69643
2486.40283	19805.69643
2489.14976	19781.83929
2491.89497	19793.69643
2494.63845	19791.125
2497.3802	19794.26786
2500.12024	19746.55357
2502.85855	19748.55357
2505.59514	19715.26786
2508.33002	19682.41071
2511.06318	19623.98214
2513.79462	19628.125
2516.52435	19614.83929
2519.25237	19603.26786
2521.97867	19581.69643
2524.70327	19557.55357
2527.42616	19548.26786
2530.14734	19522.98214
2532.86681	19458.55357
2535.58458	19435.41071
2538.30065	19412.83929
2541.01501	19418.69643
2543.72768	19387.69643
2546.43864	19375.55357
2549.14791	19329.41071
2551.85548	19313.55357
2554.56136	19277.83929
2557.26554	19262.26786
2559.96803	19205.26786
2562.66883	19185.125
2565.36794	19146.69643
2568.06536	19125.55357
2570.7611	19115.55357
2573.45514	19069.55357
2576.14751	19027.69643
2578.83819	19024.41071
2581.52719	18990.69643
2584.21451	18973.41071
2586.90015	18926.41071
2589.58411	18907.98214
2592.2664	18870.69643
2594.94701	18815.83929
2597.62594	18792.55357
2600.30321	18754.125
2602.9788	18736.41071
2605.65273	18717.83929
2608.32498	18724.98214
2610.99557	18710.26786
2613.66449	18677.125
2616.33175	18637.125
2618.99734	18670.41071
2621.66128	18657.26786
2624.32355	18606.41071
2626.98416	18586.83929
2629.64311	18539.98214
2632.30041	18542.125
2634.95605	18483.125
2637.61004	18445.125
2640.26238	18439.83929
2642.91306	18471.98214
2645.56209	18446.69643
2648.20948	18430.83929
2650.85521	18406.69643
2653.4993	18438.83929
2656.14175	18413.41071
2658.78255	18417.41071
2661.42171	18385.69643
2664.05923	18404.69643
2666.6951	18424.69643
2669.32934	18459.125
2671.96194	18414.55357
2674.59291	18432.83929
2677.22224	18424.83929
2679.84993	18426.41071
2682.476	18376.98214
2685.10043	18408.26786
2687.72324	18427.41071
2690.34441	18372.41071
2692.96396	18383.69643
2695.58188	18419.55357
2698.19818	18349.41071
2700.81285	18357.83929
2703.4259	18329.125
2706.03733	18350.83929
2708.64714	18382.26786
2711.25533	18420.125
2713.86191	18407.69643
2716.46687	18451.26786
2719.07021	18430.125
2721.67194	18420.55357
2724.27206	18411.41071
2726.87057	18454.69643
2729.46747	18434.83929
2732.06276	18441.125
2734.65644	18391.26786
2737.24852	18401.69643
2739.83899	18379.41071
2742.42786	18392.83929
2745.01513	18339.98214
2747.60079	18289.125
2750.18486	18306.83929
2752.76733	18223.98214
2755.3482	18236.26786
2757.92747	18276.55357
2760.50515	18227.83929
2763.08123	18222.55357
2765.65573	18173.98214
2768.22863	18163.83929
2770.79994	18170.55357
2773.36967	18111.125
2775.9378	18106.41071
2778.50435	18059.55357
2781.06932	18053.26786
2783.6327	18036.83929
2786.1945	18037.69643
2788.75471	17975.41071
2791.31335	17975.55357
2793.87041	17930.41071
2796.42589	17935.125
2798.97979	17883.69643
2801.53212	17849.83929
2804.08288	17825.83929
2806.63206	17794.55357
2809.17967	17762.98214
2811.72571	17732.69643
2814.27018	17673.125
2816.81308	17633.125
2819.35442	17604.125
2821.89419	17526.98214
2824.43239	17546.125
2826.96904	17521.55357
2829.50412	17539.55357
2832.03763	17517.41071
2834.56959	17481.98214
2837.1	17462.55357
2839.62884	17417.26786
2842.15613	17425.55357
2844.68186	17402.41071
2847.20604	17420.69643
2849.72867	17432.26786
2852.24974	17392.125
2854.76927	17350.41071
2857.28724	17337.98214
2859.80367	17368.98214
2862.31855	17308.69643
2864.83189	17320.98214
2867.34368	17277.26786
2869.85393	17290.98214
2872.36264	17203.69643
2874.8698	17231.125
2877.37543	17235.98214
2879.87952	17174.69643
2882.38207	17193.55357
2884.88308	17126.98214
2887.38256	17191.26786
2889.88051	17218.69643
2892.37692	17196.125
2894.8718	17187.41071
2897.36515	17206.83929
2899.85698	17236.41071
2902.34727	17280.26786
2904.83604	17214.98214
2907.32328	17268.41071
2909.809	17237.98214
2912.29319	17240.98214
2914.77587	17219.69643
2917.25702	17265.26786
2919.73665	17241.55357
2922.21476	17216.83929
2924.69136	17241.83929
2927.16644	17246.125
2929.64	17208.125
2932.11205	17192.83929
2934.58258	17127.69643
2937.05161	17163.83929
2939.51912	17173.125
2941.98513	17160.55357
2944.44962	17176.26786
2946.91261	17071.55357
2949.37409	17105.125
2951.83407	17181.69643
2954.29254	17161.83929
2956.74951	17091.125
2959.20498	17071.83929
2961.65895	17026.98214
2964.11142	17088.69643
2966.56239	17037.41071
2969.01186	17058.98214
2971.45984	17047.69643
2973.90632	17035.55357
2976.35131	16940.69643
2978.7948	16960.55357
2981.23681	16948.55357
2983.67732	16947.83929
2986.11635	16877.55357
2988.55388	16844.125
2990.98993	16809.55357
2993.4245	16817.69643
2995.85758	16776.125
2998.28917	16716.26786
3000.71928	16703.26786
3003.14791	16710.55357
3005.57506	16653.83929
3008.00073	16634.125
3010.42493	16616.83929
3012.84764	16619.83929
3015.26888	16580.125
3017.68865	16575.69643
3020.10694	16574.55357
3022.52376	16508.98214
3024.9391	16494.69643
3027.35298	16471.69643
3029.76539	16466.83929
3032.17632	16460.41071
3034.5858	16414.69643
3036.9938	16393.98214
3039.40034	16406.125
3041.80542	16355.125
3044.20903	16353.26786
3046.61118	16344.69643
3049.01187	16315.69643
3051.4111	16308.41071
3053.80888	16263.69643
3056.20519	16257.69643
3058.60005	16220.125
3060.99345	16170.98214
3063.3854	16128.26786
3065.7759	16090.83929
3068.16494	16104.83929
3070.55254	16055.98214
3072.93868	15981.55357
3075.32338	15979.125
3077.70662	15978.26786
3080.08842	15944.125
3082.46878	15884.55357
3084.84769	15888.41071
3087.22515	15885.98214
3089.60118	15938.69643
3091.97576	15925.41071
3094.3489	15927.26786
3096.72061	15910.26786
3099.09087	15889.83929
3101.4597	15864.83929
3103.82709	15896.26786
3106.19305	15895.125
3108.55757	15874.26786
3110.92066	15870.55357
3113.28232	15857.41071
3115.64255	15767.125
3118.00134	15788.55357
3120.35871	15767.55357
3122.71466	15751.69643
3125.06917	15693.41071
3127.42226	15640.69643
3129.77393	15655.41071
3132.12417	15650.98214
3134.47299	15660.125
3136.82039	15613.55357
3139.16636	15643.83929
3141.51092	15612.125
3143.85406	15649.41071
3146.19579	15621.41071
3148.53609	15661.83929
3150.87499	15655.69643
3153.21246	15667.55357
3155.54853	15689.98214
3157.88318	15668.41071
3160.21642	15704.69643
3162.54826	15692.55357
3164.87868	15736.125
3167.2077	15657.83929
3169.5353	15708.83929
3171.86151	15737.55357
3174.18631	15670.41071
3176.5097	15652.125
3178.83169	15633.125
3181.15228	15637.98214
3183.47147	15613.41071
3185.78926	15623.125
3188.10565	15619.55357
3190.42065	15556.98214
3192.73424	15579.26786
3195.04645	15553.55357
3197.35725	15532.125
3199.66667	15560.69643
3201.97469	15522.26786
3204.28132	15515.41071
3206.58656	15562.55357
3208.8904	15579.83929
3211.19287	15588.83929
3213.49394	15576.83929
3215.79363	15560.125
3218.09193	15584.55357
3220.38884	15582.125
3222.68438	15637.41071
3224.97853	15591.41071
3227.2713	15569.69643
3229.56269	15560.125
3231.8527	15574.98214
3234.14133	15524.69643
3236.42858	15450.26786
3238.71446	15452.83929
3240.99896	15415.125
3243.28209	15352.26786
3245.56384	15365.69643
3247.84423	15376.125
3250.12324	15366.26786
3252.40088	15356.69643
3254.67715	15376.98214
3256.95205	15343.98214
3259.22558	15372.125
3261.49775	15344.55357
3263.76855	15314.55357
3266.03799	15270.41071
3268.30606	15271.26786
3270.57277	15277.41071
3272.83812	15245.55357
3275.10211	15174.69643
3277.36474	15177.125
3279.62601	15157.125
3281.88593	15135.98214
3284.14448	15147.55357
3286.40168	15118.69643
3288.65753	15124.55357
3290.91202	15111.55357
3293.16516	15068.26786
3295.41695	15040.125
3297.66738	14980.41071
3299.91647	14898.26786
3302.16421	14809.83929
3304.4106	14706.26786
3306.65564	14626.26786
3308.89933	14555.26786
3311.14169	14436.125
3313.38269	14369.83929
3315.62236	14273.125
3317.86068	14170.125
3320.09766	14062.69643
3322.3333	13975.125
3324.5676	13923.26786
3326.80056	13723.69643
3329.03219	13612.69643
3331.26248	2.125
3333.49143	-0.58929
3335.71905	0.125
