Data from AgNPs_FTO_APTES_UA_20uM_CRN_1000uM_R6G_10uM_NaF_0.1M_Addition_RamanShift__4__19-16-25-008.txt Node

Date: Thu Feb 17 19:16:25 GMT 2022
User: TCL
Spectrometer: QEP01345
Trigger mode: 4
Integration Time (sec): 1.000000E1
Scans to average: 7
Electric dark correction enabled: true
Nonlinearity correction enabled: false
Boxcar width: 0
XAxis mode: Raman Shifts
Number of Pixels in Spectrum: 1044
>>>>>Begin Spectral Data<<<<<
46.04893	0.25
50.45542	-1.17857
54.85868	-0.46429
59.25871	-1.32143
63.6555	82.67857
68.04907	85.82143
72.43941	90.39286
76.82654	92.67857
81.21044	97.67857
85.59113	98.67857
89.96862	103.10714
94.34289	104.53571
98.71396	112.39286
103.08183	111.10714
107.4465	115.96429
111.80798	112.39286
116.16626	117.10714
120.52136	122.82143
124.87327	129.67857
129.222	133.67857
133.56755	142.25
137.90993	157.82143
142.24913	167.96429
146.58517	187.67857
150.91804	212.82143
155.24774	259.96429
159.57429	321.67857
163.89768	413.82143
168.21792	552.25
172.53501	755.53571
176.84895	1059.82143
181.15975	1499.53571
185.46741	2125.25
189.77193	2941.82143
194.07331	3949.53571
198.37157	5138.82143
202.6667	6383.25
206.9587	7590.10714
211.24758	8806.53571
215.53334	10039.25
219.81599	11352.96429
224.09553	12754.39286
228.37195	14402.25
232.64527	16139.25
236.91549	17965.53571
241.18261	19742.39286
245.44663	21324.39286
249.70755	22670.25
253.96539	23797.39286
258.22014	24713.10714
262.4718	25473.39286
266.72039	25996.67857
270.96589	26286.53571
275.20832	26141.67857
279.44768	25821.67857
283.68397	25452.39286
287.91719	25139.39286
292.14735	24936.10714
296.37445	25012.82143
300.59849	25296.82143
304.81948	25746.25
309.03742	26225.10714
313.25231	26370.67857
317.46415	26192.82143
321.67296	25523.67857
325.87872	24868.67857
330.08145	24436.10714
334.28114	24455.82143
338.47781	24640.10714
342.67145	24942.39286
346.86207	25462.67857
351.04966	26209.82143
355.23424	26917.96429
359.4158	27422.53571
363.59435	27852.67857
367.76989	28006.53571
371.94243	28016.39286
376.11196	28026.96429
380.27849	28091.67857
384.44203	28144.53571
388.60257	28193.96429
392.76012	28303.10714
396.91468	28565.25
401.06626	28936.10714
405.21485	29168.25
409.36047	28927.82143
413.50311	28355.10714
417.64277	27704.96429
421.77947	27402.96429
425.9132	27328.10714
430.04396	27426.10714
434.17176	27589.39286
438.2966	28010.96429
442.41849	28542.82143
446.53742	29339.96429
450.6534	30241.10714
454.76644	30713.10714
458.87653	30656.39286
462.98368	30410.10714
467.08789	29999.39286
471.18916	29426.53571
475.2875	28794.96429
479.38291	28288.82143
483.4754	27829.53571
487.56496	27521.96429
491.6516	27372.82143
495.73531	27372.39286
499.81612	27398.67857
503.89401	27528.67857
507.96899	27765.67857
512.04106	27776.96429
516.11023	27908.67857
520.1765	28030.39286
524.23987	28168.53571
528.30034	28166.82143
532.35792	28129.39286
536.41261	27915.10714
540.46441	27569.82143
544.51333	27351.25
548.55936	27450.25
552.60252	27880.25
556.64279	28477.10714
560.6802	28830.96429
564.71473	28887.82143
568.7464	29107.82143
572.7752	29362.10714
576.80114	29369.25
580.82422	29411.53571
584.84444	29877.96429
588.86181	30922.10714
592.87633	32324.96429
596.888	33118.39286
600.89682	32789.10714
604.9028	33224.53571
608.90594	36657.82143
612.90624	41610.82143
616.90371	40189.25
620.89834	32740.53571
624.89015	29050.67857
628.87913	28382.96429
632.86528	28634.39286
636.84862	28838.96429
640.82913	28562.67857
644.80683	27832.67857
648.78172	27339.39286
652.75379	27323.39286
656.72306	27722.10714
660.68952	28313.67857
664.65319	28155.39286
668.61405	27405.25
672.57211	27227.39286
676.52738	27408.53571
680.47986	27445.25
684.42955	27226.10714
688.37646	27074.10714
692.32058	27070.96429
696.26192	27343.53571
700.20048	27645.25
704.13626	27778.39286
708.06928	27710.10714
711.99952	27535.82143
715.927	27450.25
719.85171	27551.82143
723.77365	27629.39286
727.69284	27475.67857
731.60928	27259.39286
735.52295	27181.67857
739.43388	27279.39286
743.34206	27301.39286
747.24749	27403.39286
751.15017	27448.82143
755.05012	27748.25
758.94733	28387.67857
762.8418	30018.96429
766.73354	32723.39286
770.62254	35456.82143
774.50882	36521.25
778.39237	35270.67857
782.27321	32592.96429
786.15132	29998.53571
790.02671	28384.67857
793.89938	27577.10714
797.76935	27200.82143
801.6366	27028.10714
805.50115	26903.39286
809.36299	26843.53571
813.22213	26675.53571
817.07857	26545.53571
820.93231	26488.67857
824.78336	26497.67857
828.63172	26523.10714
832.47738	26522.67857
836.32036	26529.53571
840.16066	26552.10714
843.99827	26562.25
847.8332	26537.82143
851.66546	26490.10714
855.49504	26545.10714
859.32195	26557.67857
863.1462	26511.82143
866.96777	26548.82143
870.78668	26527.53571
874.60293	26634.96429
878.41652	26591.25
882.22745	26751.25
886.03573	26800.96429
889.84136	26834.10714
893.64433	26697.67857
897.44466	26589.53571
901.24235	26542.53571
905.0374	26383.82143
908.8298	26337.67857
912.61957	26176.96429
916.40671	26303.53571
920.19121	26438.25
923.97308	26691.53571
927.75233	26919.82143
931.52895	26953.67857
935.30295	26691.25
939.07433	26296.25
942.84309	25897.25
946.60924	25750.67857
950.37278	25602.67857
954.13371	25547.25
957.89203	25493.10714
961.64774	25427.67857
965.40086	25385.53571
969.15137	25388.67857
972.89929	25315.82143
976.64461	25355.10714
980.38733	25388.96429
984.12747	25462.39286
987.86502	25566.10714
991.59999	25802.25
995.33237	26134.53571
999.06217	26589.53571
1002.78939	27133.10714
1006.51404	27524.39286
1010.23611	27899.25
1013.95561	28144.25
1017.67255	28247.67857
1021.38692	28078.25
1025.09872	27679.39286
1028.80796	27525.10714
1032.51465	27706.53571
1036.21877	27964.25
1039.92035	28097.25
1043.61937	28053.39286
1047.31584	27817.25
1051.00976	27536.82143
1054.70114	27314.53571
1058.38998	27236.82143
1062.07627	27225.53571
1065.76003	27362.82143
1069.44126	27456.67857
1073.11995	27710.25
1076.79611	28074.53571
1080.46974	28365.25
1084.14085	28714.39286
1087.80943	29020.67857
1091.47549	29193.10714
1095.13903	28956.96429
1098.80005	28493.25
1102.45857	28064.39286
1106.11456	27931.39286
1109.76805	27948.39286
1113.41903	28245.82143
1117.06751	28585.39286
1120.71348	29156.53571
1124.35696	29712.39286
1127.99793	30248.10714
1131.63641	30281.10714
1135.2724	29784.39286
1138.90589	29206.82143
1142.5369	28942.67857
1146.16542	28720.39286
1149.79145	28591.67857
1153.415	28496.53571
1157.03607	28646.96429
1160.65467	29056.82143
1164.27079	29878.10714
1167.88443	31132.53571
1171.49561	32809.82143
1175.10432	35214.10714
1178.71056	38363.82143
1182.31434	41169.39286
1185.91565	42393.39286
1189.51451	41866.96429
1193.11091	40360.10714
1196.70485	38557.39286
1200.29634	37000.96429
1203.88538	35562.39286
1207.47197	34125.10714
1211.05612	32813.39286
1214.63782	32097.10714
1218.21708	31776.53571
1221.79391	31824.39286
1225.36829	31963.25
1228.94024	32021.82143
1232.50976	31613.39286
1236.07685	31181.39286
1239.6415	30874.67857
1243.20374	30768.82143
1246.76355	30912.25
1250.32093	31142.39286
1253.8759	31636.39286
1257.42845	32267.96429
1260.97859	33058.39286
1264.52631	33838.39286
1268.07163	34614.10714
1271.61453	35478.10714
1275.15503	36059.10714
1278.69312	36618.10714
1282.22882	37067.67857
1285.76211	37824.25
1289.29301	38860.25
1292.82151	40051.96429
1296.34761	41492.53571
1299.87133	43412.96429
1303.39266	46026.10714
1306.9116	49453.10714
1310.42815	53078.82143
1313.94233	55091.10714
1317.45412	54237.82143
1320.96354	51555.82143
1324.47058	48593.96429
1327.97525	45865.10714
1331.47754	43965.82143
1334.97747	43036.39286
1338.47502	42863.67857
1341.97022	43197.39286
1345.46305	44046.39286
1348.95352	45717.96429
1352.44163	47972.53571
1355.92738	51090.25
1359.41078	55380.53571
1362.89183	59093.67857
1366.37053	57915.25
1369.84688	51564.53571
1373.32088	44549.53571
1376.79254	40100.67857
1380.26186	38146.53571
1383.72883	37258.67857
1387.19347	36574.96429
1390.65578	35736.10714
1394.11575	35066.82143
1397.57339	34927.96429
1401.0287	34949.39286
1404.48168	35016.53571
1407.93234	34955.96429
1411.38068	34863.25
1414.82669	34699.67857
1418.27039	34396.25
1421.71177	33963.96429
1425.15083	33328.67857
1428.58758	32990.39286
1432.02203	33214.10714
1435.45416	33721.82143
1438.88399	34182.96429
1442.31151	34377.25
1445.73673	34384.25
1449.15965	34412.96429
1452.58027	34269.39286
1455.9986	34014.96429
1459.41463	33981.25
1462.82837	34274.67857
1466.23982	34937.67857
1469.64898	35621.82143
1473.05586	36184.25
1476.46045	36518.39286
1479.86276	36811.39286
1483.26279	36938.25
1486.66054	37291.67857
1490.05602	38003.96429
1493.44922	38974.67857
1496.84016	40402.96429
1500.22882	42601.82143
1503.61521	45401.82143
1506.99934	48681.53571
1510.38121	51137.82143
1513.76081	51365.39286
1517.13816	48710.82143
1520.51324	44715.82143
1523.88607	41272.10714
1527.25665	39156.67857
1530.62498	38174.39286
1533.99105	37760.96429
1537.35488	37293.82143
1540.71647	36769.96429
1544.07581	36195.82143
1547.4329	35696.82143
1550.78776	35140.82143
1554.14038	34803.10714
1557.49077	34657.67857
1560.83892	34832.39286
1564.18484	35157.10714
1567.52853	35863.25
1570.86999	36481.67857
1574.20922	36904.96429
1577.54624	36907.53571
1580.88103	36101.82143
1584.2136	34999.82143
1587.54395	34601.25
1590.87208	35348.67857
1594.19801	37133.25
1597.52172	39343.10714
1600.84321	40548.10714
1604.16251	39953.25
1607.47959	37964.67857
1610.79447	35581.82143
1614.10715	33260.25
1617.41763	31299.96429
1620.7259	29954.96429
1624.03199	29261.67857
1627.33587	29195.53571
1630.63757	29702.10714
1633.93707	30933.82143
1637.23439	33075.25
1640.52951	36461.10714
1643.82246	40847.96429
1647.11321	44978.53571
1650.40179	46590.67857
1653.68819	44138.96429
1656.97241	38759.82143
1660.25446	33660.39286
1663.53433	30093.39286
1666.81203	27929.67857
1670.08756	26703.82143
1673.36092	25842.25
1676.63211	25375.67857
1679.90115	24969.82143
1683.16801	24667.10714
1686.43272	24448.96429
1689.69527	24228.39286
1692.95567	24097.96429
1696.2139	23980.39286
1699.46999	23886.67857
1702.72392	23791.53571
1705.97571	23790.39286
1709.22535	23778.39286
1712.47284	23787.39286
1715.71819	23728.39286
1718.96139	23675.10714
1722.20246	23602.53571
1725.44139	23526.67857
1728.67818	23444.96429
1731.91284	23297.67857
1735.14537	23194.96429
1738.37576	23156.25
1741.60403	23022.82143
1744.83017	22973.96429
1748.05418	22896.82143
1751.27607	22847.39286
1754.49584	22825.39286
1757.71349	22822.67857
1760.92903	22759.39286
1764.14244	22728.10714
1767.35375	22704.82143
1770.56294	22651.10714
1773.77002	22601.53571
1776.97499	22543.53571
1780.17785	22529.67857
1783.37861	22446.53571
1786.57727	22419.67857
1789.77382	22366.82143
1792.96828	22378.96429
1796.16064	22294.10714
1799.3509	22241.96429
1802.53907	22237.10714
1805.72514	22134.82143
1808.90913	22118.25
1812.09102	22064.39286
1815.27083	22029.25
1818.44856	22018.39286
1821.6242	21979.39286
1824.79776	21934.39286
1827.96924	21954.39286
1831.13864	21862.82143
1834.30597	21836.53571
1837.47122	21855.67857
1840.6344	21823.10714
1843.7955	21816.25
1846.95454	21765.39286
1850.11151	21757.67857
1853.26642	21759.96429
1856.41926	21710.25
1859.57004	21673.10714
1862.71876	21688.82143
1865.86542	21672.53571
1869.01003	21661.82143
1872.15258	21680.96429
1875.29308	21661.96429
1878.43152	21629.96429
1881.56792	21637.53571
1884.70227	21618.10714
1887.83457	21564.10714
1890.96482	21512.96429
1894.09304	21536.53571
1897.21921	21449.53571
1900.34335	21470.82143
1903.46544	21467.39286
1906.58551	21433.82143
1909.70353	21400.25
1912.81953	21374.67857
1915.93349	21325.82143
1919.04543	21336.10714
1922.15534	21269.67857
1925.26322	21221.96429
1928.36908	21239.82143
1931.47292	21184.96429
1934.57473	21138.25
1937.67453	21112.67857
1940.77232	21026.82143
1943.86808	20956.25
1946.96184	20873.25
1950.05358	20825.39286
1953.14331	20807.82143
1956.23103	20766.96429
1959.31675	20810.96429
1962.40046	20674.67857
1965.48217	20587.67857
1968.56188	20564.53571
1971.63959	20504.67857
1974.7153	20443.53571
1977.78901	20385.25
1980.86073	20372.25
1983.93046	20299.67857
1986.99819	20205.53571
1990.06394	20129.67857
1993.1277	20122.96429
1996.18947	20037.82143
1999.24925	19969.39286
2002.30706	19901.25
2005.36288	19753.10714
2008.41672	19781.67857
2011.46859	19701.10714
2014.51848	19637.10714
2017.56639	19585.53571
2020.61233	19524.25
2023.6563	19477.10714
2026.6983	19431.67857
2029.73833	19435.53571
2032.7764	19375.96429
2035.8125	19335.82143
2038.84664	19242.67857
2041.87881	19289.67857
2044.90903	19230.53571
2047.93729	19194.67857
2050.96359	19204.53571
2053.98794	19137.10714
2057.01034	19203.67857
2060.03078	19168.10714
2063.04927	19123.39286
2066.06582	19130.53571
2069.08042	19073.39286
2072.09307	19122.39286
2075.10378	19094.53571
2078.11255	19090.82143
2081.11938	19088.67857
2084.12426	19038.96429
2087.12722	19063.53571
2090.12824	19006.96429
2093.12732	19071.67857
2096.12447	19062.67857
2099.11969	19072.39286
2102.11299	19017.10714
2105.10435	19028.53571
2108.09379	19067.67857
2111.08131	19108.67857
2114.0669	19105.82143
2117.05057	19064.96429
2120.03233	19112.25
2123.01216	19169.10714
2125.99008	19211.96429
2128.96609	19216.10714
2131.94018	19230.39286
2134.91236	19232.96429
2137.88263	19179.25
2140.851	19252.25
2143.81746	19284.10714
2146.78201	19209.25
2149.74466	19274.10714
2152.7054	19253.39286
2155.66425	19220.25
2158.6212	19225.96429
2161.57625	19240.25
2164.52941	19207.10714
2167.48067	19209.96429
2170.43004	19201.82143
2173.37752	19202.39286
2176.32311	19227.25
2179.26681	19207.10714
2182.20863	19196.96429
2185.14856	19243.10714
2188.08661	19204.25
2191.02278	19171.82143
2193.95707	19192.53571
2196.88948	19144.82143
2199.82001	19180.39286
2202.74867	19161.39286
2205.67545	19169.10714
2208.60037	19118.53571
2211.52341	19080.10714
2214.44458	19052.82143
2217.36388	19041.39286
2220.28132	18990.53571
2223.1969	19017.39286
2226.11061	18957.39286
2229.02246	18904.10714
2231.93245	18835.96429
2234.84058	18801.67857
2237.74686	18790.96429
2240.65128	18808.82143
2243.55385	18804.39286
2246.45456	18764.25
2249.35343	18761.82143
2252.25044	18685.39286
2255.14561	18666.39286
2258.03893	18723.10714
2260.93041	18693.96429
2263.82004	18608.53571
2266.70783	18567.25
2269.59378	18488.96429
2272.4779	18473.25
2275.36017	18474.96429
2278.24061	18441.82143
2281.11922	18380.96429
2283.996	18374.82143
2286.87094	18376.82143
2289.74405	18329.25
2292.61534	18241.67857
2295.4848	18293.10714
2298.35243	18323.53571
2301.21824	18279.96429
2304.08223	18295.53571
2306.94439	18271.67857
2309.80474	18234.39286
2312.66327	18228.39286
2315.51999	18219.96429
2318.37489	18219.39286
2321.22797	18156.82143
2324.07925	18170.96429
2326.92871	18144.82143
2329.77637	18115.67857
2332.62222	18059.67857
2335.46626	18076.39286
2338.3085	18057.67857
2341.14893	18069.82143
2343.98756	18070.25
2346.8244	18063.67857
2349.65943	18034.25
2352.49267	17980.25
2355.32411	18015.25
2358.15376	18056.25
2360.98161	18016.96429
2363.80768	18018.39286
2366.63195	18011.53571
2369.45444	17973.25
2372.27514	17907.96429
2375.09405	17891.82143
2377.91118	17934.39286
2380.72652	17847.53571
2383.54009	17806.10714
2386.35187	17781.25
2389.16188	17720.96429
2391.97011	17689.39286
2394.77657	17670.82143
2397.58125	17657.96429
2400.38416	17644.67857
2403.18529	17621.39286
2405.98466	17587.67857
2408.78226	17517.53571
2411.57809	17474.82143
2414.37216	17506.82143
2417.16446	17491.82143
2419.955	17474.53571
2422.74378	17477.53571
2425.5308	17453.67857
2428.31606	17420.53571
2431.09956	17428.67857
2433.88131	17374.96429
2436.6613	17440.67857
2439.43954	17388.10714
2442.21603	17406.25
2444.99077	17382.25
2447.76377	17416.25
2450.53501	17351.96429
2453.30451	17383.53571
2456.07226	17322.10714
2458.83827	17328.25
2461.60254	17319.67857
2464.36507	17285.53571
2467.12586	17288.96429
2469.88492	17283.39286
2472.64224	17244.82143
2475.39782	17250.67857
2478.15167	17255.82143
2480.90379	17283.25
2483.65417	17317.67857
2486.40283	17291.82143
2489.14976	17313.25
2491.89497	17332.67857
2494.63845	17326.67857
2497.3802	17269.96429
2500.12024	17296.25
2502.85855	17218.53571
2505.59514	17218.96429
2508.33002	17185.10714
2511.06318	17139.82143
2513.79462	17135.96429
2516.52435	17119.67857
2519.25237	17099.10714
2521.97867	17057.25
2524.70327	17025.96429
2527.42616	17032.39286
2530.14734	17019.10714
2532.86681	17037.67857
2535.58458	17006.96429
2538.30065	16960.82143
2541.01501	16977.10714
2543.72768	16957.10714
2546.43864	16943.67857
2549.14791	16930.67857
2551.85548	16871.10714
2554.56136	16890.67857
2557.26554	16847.39286
2559.96803	16846.67857
2562.66883	16812.82143
2565.36794	16755.67857
2568.06536	16762.82143
2570.7611	16719.82143
2573.45514	16712.39286
2576.14751	16695.82143
2578.83819	16655.10714
2581.52719	16643.96429
2584.21451	16627.10714
2586.90015	16588.10714
2589.58411	16626.39286
2592.2664	16600.96429
2594.94701	16551.53571
2597.62594	16540.82143
2600.30321	16487.39286
2602.9788	16477.53571
2605.65273	16468.25
2608.32498	16418.10714
2610.99557	16456.67857
2613.66449	16451.67857
2616.33175	16450.67857
2618.99734	16439.10714
2621.66128	16392.96429
2624.32355	16391.53571
2626.98416	16370.10714
2629.64311	16318.10714
2632.30041	16333.25
2634.95605	16285.53571
2637.61004	16300.53571
2640.26238	16236.53571
2642.91306	16235.67857
2645.56209	16267.96429
2648.20948	16264.53571
2650.85521	16237.53571
2653.4993	16250.39286
2656.14175	16255.67857
2658.78255	16259.10714
2661.42171	16231.39286
2664.05923	16291.67857
2666.6951	16299.96429
2669.32934	16272.25
2671.96194	16290.39286
2674.59291	16312.67857
2677.22224	16297.96429
2679.84993	16240.53571
2682.476	16248.82143
2685.10043	16233.96429
2687.72324	16216.67857
2690.34441	16205.82143
2692.96396	16253.25
2695.58188	16242.10714
2698.19818	16203.82143
2700.81285	16227.67857
2703.4259	16223.10714
2706.03733	16189.67857
2708.64714	16223.67857
2711.25533	16234.82143
2713.86191	16247.25
2716.46687	16300.25
2719.07021	16247.96429
2721.67194	16268.67857
2724.27206	16268.39286
2726.87057	16271.96429
2729.46747	16253.96429
2732.06276	16274.67857
2734.65644	16232.82143
2737.24852	16245.96429
2739.83899	16233.67857
2742.42786	16258.96429
2745.01513	16218.96429
2747.60079	16170.96429
2750.18486	16124.39286
2752.76733	16136.53571
2755.3482	16158.53571
2757.92747	16131.96429
2760.50515	16126.96429
2763.08123	16104.39286
2765.65573	16022.39286
2768.22863	16041.10714
2770.79994	16097.25
2773.36967	16039.53571
2775.9378	16038.39286
2778.50435	15998.39286
2781.06932	16008.67857
2783.6327	15983.96429
2786.1945	16000.53571
2788.75471	15958.39286
2791.31335	15914.67857
2793.87041	15893.10714
2796.42589	15879.39286
2798.97979	15902.10714
2801.53212	15844.39286
2804.08288	15828.39286
2806.63206	15783.10714
2809.17967	15751.96429
2811.72571	15743.82143
2814.27018	15711.39286
2816.81308	15691.25
2819.35442	15685.25
2821.89419	15656.96429
2824.43239	15630.10714
2826.96904	15594.25
2829.50412	15635.39286
2832.03763	15610.39286
2834.56959	15618.39286
2837.1	15596.39286
2839.62884	15602.96429
2842.15613	15517.82143
2844.68186	15547.25
2847.20604	15584.82143
2849.72867	15551.96429
2852.24974	15538.25
2854.76927	15526.25
2857.28724	15499.53571
2859.80367	15479.67857
2862.31855	15448.39286
2864.83189	15417.10714
2867.34368	15447.96429
2869.85393	15443.67857
2872.36264	15424.96429
2874.8698	15412.82143
2877.37543	15408.53571
2879.87952	15395.10714
2882.38207	15420.39286
2884.88308	15338.67857
2887.38256	15385.96429
2889.88051	15430.39286
2892.37692	15461.67857
2894.8718	15434.39286
2897.36515	15454.25
2899.85698	15473.96429
2902.34727	15518.82143
2904.83604	15522.10714
2907.32328	15505.82143
2909.809	15552.53571
2912.29319	15559.53571
2914.77587	15555.39286
2917.25702	15552.67857
2919.73665	15537.96429
2922.21476	15556.39286
2924.69136	15544.67857
2927.16644	15569.53571
2929.64	15475.96429
2932.11205	15468.39286
2934.58258	15430.10714
2937.05161	15454.53571
2939.51912	15458.25
2941.98513	15455.25
2944.44962	15428.96429
2946.91261	15380.82143
2949.37409	15384.53571
2951.83407	15346.82143
2954.29254	15382.53571
2956.74951	15342.10714
2959.20498	15318.25
2961.65895	15359.67857
2964.11142	15339.53571
2966.56239	15277.25
2969.01186	15269.25
2971.45984	15247.53571
2973.90632	15218.53571
2976.35131	15172.82143
2978.7948	15148.67857
2981.23681	15079.67857
2983.67732	15122.67857
2986.11635	15079.82143
2988.55388	15061.25
2990.98993	15002.96429
2993.4245	15013.96429
2995.85758	14978.67857
2998.28917	14950.53571
3000.71928	14947.10714
3003.14791	14910.53571
3005.57506	14906.25
3008.00073	14876.82143
3010.42493	14886.96429
3012.84764	14794.10714
3015.26888	14822.67857
3017.68865	14803.39286
3020.10694	14746.96429
3022.52376	14740.96429
3024.9391	14698.82143
3027.35298	14695.82143
3029.76539	14708.96429
3032.17632	14674.96429
3034.5858	14656.53571
3036.9938	14642.53571
3039.40034	14678.82143
3041.80542	14602.67857
3044.20903	14585.10714
3046.61118	14585.25
3049.01187	14531.10714
3051.4111	14544.39286
3053.80888	14529.53571
3056.20519	14473.96429
3058.60005	14451.10714
3060.99345	14424.82143
3063.3854	14433.96429
3065.7759	14350.25
3068.16494	14337.96429
3070.55254	14340.53571
3072.93868	14291.82143
3075.32338	14255.25
3077.70662	14218.82143
3080.08842	14212.39286
3082.46878	14197.53571
3084.84769	14141.96429
3087.22515	14187.39286
3089.60118	14203.67857
3091.97576	14214.39286
3094.3489	14232.82143
3096.72061	14212.82143
3099.09087	14201.39286
3101.4597	14189.53571
3103.82709	14171.82143
3106.19305	14200.25
3108.55757	14194.96429
3110.92066	14123.10714
3113.28232	14114.10714
3115.64255	14081.82143
3118.00134	14032.82143
3120.35871	14044.10714
3122.71466	14028.96429
3125.06917	14031.96429
3127.42226	14010.10714
3129.77393	14003.96429
3132.12417	13984.82143
3134.47299	13999.39286
3136.82039	13958.25
3139.16636	13966.96429
3141.51092	13956.67857
3143.85406	13988.25
3146.19579	13964.53571
3148.53609	13976.96429
3150.87499	13963.53571
3153.21246	14008.39286
3155.54853	14003.96429
3157.88318	14002.39286
3160.21642	14013.82143
3162.54826	14033.10714
3164.87868	14022.67857
3167.2077	14027.82143
3169.5353	14025.39286
3171.86151	14016.39286
3174.18631	14025.53571
3176.5097	13997.82143
3178.83169	13965.67857
3181.15228	13960.10714
3183.47147	13939.53571
3185.78926	13900.39286
3188.10565	13896.10714
3190.42065	13919.25
3192.73424	13926.25
3195.04645	13866.82143
3197.35725	13900.67857
3199.66667	13881.96429
3201.97469	13911.82143
3204.28132	13849.10714
3206.58656	13907.67857
3208.8904	13945.53571
3211.19287	13969.25
3213.49394	13947.39286
3215.79363	13944.53571
3218.09193	13949.53571
3220.38884	13966.67857
3222.68438	13974.67857
3224.97853	13985.53571
3227.2713	13934.10714
3229.56269	13946.82143
3231.8527	13962.39286
3234.14133	13887.82143
3236.42858	13855.67857
3238.71446	13891.10714
3240.99896	13842.96429
3243.28209	13806.67857
3245.56384	13759.82143
3247.84423	13806.25
3250.12324	13803.53571
3252.40088	13757.53571
3254.67715	13754.39286
3256.95205	13766.82143
3259.22558	13751.25
3261.49775	13727.96429
3263.76855	13752.67857
3266.03799	13697.10714
3268.30606	13707.67857
3270.57277	13699.53571
3272.83812	13640.25
3275.10211	13592.10714
3277.36474	13579.82143
3279.62601	13614.25
3281.88593	13576.82143
3284.14448	13626.82143
3286.40168	13548.39286
3288.65753	13556.39286
3290.91202	13621.25
3293.16516	13574.25
3295.41695	13558.96429
3297.66738	13471.67857
3299.91647	13393.10714
3302.16421	13309.10714
3304.4106	13268.25
3306.65564	13191.82143
3308.89933	13105.25
3311.14169	13045.39286
3313.38269	12902.10714
3315.62236	12847.96429
3317.86068	12736.96429
3320.09766	12639.82143
3322.3333	12590.53571
3324.5676	12505.25
3326.80056	12352.10714
3329.03219	12295.10714
3331.26248	2.67857
3333.49143	-1.17857
3335.71905	0.10714
