Data from AgNPs_FTO_APTES_UA_20uM_CRN_1000uM_R6G_10uM_NaF_0.1M_Addition_RamanShift__25__19-40-55-040.txt Node

Date: Thu Feb 17 19:40:55 GMT 2022
User: TCL
Spectrometer: QEP01345
Trigger mode: 4
Integration Time (sec): 1.000000E1
Scans to average: 7
Electric dark correction enabled: true
Nonlinearity correction enabled: false
Boxcar width: 0
XAxis mode: Raman Shifts
Number of Pixels in Spectrum: 1044
>>>>>Begin Spectral Data<<<<<
46.04893	-1.53571
50.45542	-1.25
54.85868	0.60714
59.25871	-1.25
63.6555	72.17857
68.04907	75.46429
72.43941	81.17857
76.82654	82.32143
81.21044	86.03571
85.59113	88.75
89.96862	94.03571
94.34289	89.32143
98.71396	101.32143
103.08183	99.03571
107.4465	110.75
111.80798	103.89286
116.16626	109.32143
120.52136	118.03571
124.87327	124.03571
129.222	130.03571
133.56755	130.60714
137.90993	148.46429
142.24913	161.89286
146.58517	181.46429
150.91804	208.17857
155.24774	254.32143
159.57429	313.03571
163.89768	401.03571
168.21792	547.32143
172.53501	758.03571
176.84895	1061.75
181.15975	1504.03571
185.46741	2113.89286
189.77193	2950.60714
194.07331	3973.17857
198.37157	5173.03571
202.6667	6435.17857
206.9587	7761.32143
211.24758	9083.60714
215.53334	10460.75
219.81599	12062.89286
224.09553	13840.60714
228.37195	15810.32143
232.64527	17941.89286
236.91549	20065.03571
241.18261	21912.75
245.44663	23376.32143
249.70755	24613.32143
253.96539	25605.32143
258.22014	26472.46429
262.4718	27126.46429
266.72039	27355.03571
270.96589	27188.32143
275.20832	26689.60714
279.44768	25837.60714
283.68397	24953.75
287.91719	24502.03571
292.14735	24522.03571
296.37445	25234.75
300.59849	26612.32143
304.81948	28339.46429
309.03742	29775.17857
313.25231	30016.03571
317.46415	28587.46429
321.67296	26064.32143
325.87872	23804.03571
330.08145	22748.46429
334.28114	22750.89286
338.47781	23238.03571
342.67145	24039.60714
346.86207	25275.17857
351.04966	27162.89286
355.23424	29438.17857
359.4158	31174.89286
363.59435	31944.32143
367.76989	31939.32143
371.94243	31628.75
376.11196	31205.89286
380.27849	30806.32143
384.44203	30270.60714
388.60257	29546.46429
392.76012	29118.46429
396.91468	29225.46429
401.06626	29779.60714
405.21485	30234.03571
409.36047	29518.60714
413.50311	27663.89286
417.64277	25724.60714
421.77947	24523.75
425.9132	23919.17857
430.04396	23713.60714
434.17176	23843.60714
438.2966	24215.03571
442.41849	24859.03571
446.53742	25592.60714
450.6534	26286.17857
454.76644	26711.60714
458.87653	26708.32143
462.98368	26390.60714
467.08789	25859.89286
471.18916	25283.46429
475.2875	24654.60714
479.38291	24016.75
483.4754	23584.75
487.56496	23236.75
491.6516	23039.17857
495.73531	22940.32143
499.81612	22980.32143
503.89401	23312.17857
507.96899	23759.03571
512.04106	24343.60714
516.11023	24919.17857
520.1765	25426.03571
524.23987	25524.17857
528.30034	25181.89286
532.35792	24789.60714
536.41261	24330.03571
540.46441	23777.17857
544.51333	23409.89286
548.55936	23403.89286
552.60252	23841.89286
556.64279	24484.32143
560.6802	24893.32143
564.71473	25552.89286
568.7464	26946.75
572.7752	27380.89286
576.80114	25880.32143
580.82422	24206.60714
584.84444	23526.60714
588.86181	23553.89286
592.87633	23896.03571
596.888	24392.32143
600.89682	25484.17857
604.9028	29198.89286
608.90594	39515.17857
612.90624	53477.60714
616.90371	51818.46429
620.89834	34874.17857
624.89015	26380.46429
628.87913	24766.46429
632.86528	25197.03571
636.84862	25833.32143
640.82913	25334.03571
644.80683	23783.17857
648.78172	22652.03571
652.75379	22629.17857
656.72306	23767.17857
660.68952	25147.32143
664.65319	24791.32143
668.61405	23247.60714
672.57211	22626.75
676.52738	22648.60714
680.47986	22629.75
684.42955	22395.60714
688.37646	22113.32143
692.32058	22054.32143
696.26192	22214.89286
700.20048	22593.75
704.13626	22720.60714
708.06928	22556.75
711.99952	22217.03571
715.927	22100.32143
719.85171	22272.89286
723.77365	22427.03571
727.69284	22389.75
731.60928	22224.60714
735.52295	22133.46429
739.43388	22189.32143
743.34206	22278.75
747.24749	22271.60714
751.15017	22319.60714
755.05012	22689.17857
758.94733	24003.46429
762.8418	27340.46429
766.73354	33123.17857
770.62254	38615.17857
774.50882	41521.60714
778.39237	40106.03571
782.27321	34208.60714
786.15132	28023.75
790.02671	24336.60714
793.89938	22722.17857
797.76935	22031.32143
801.6366	21789.89286
805.50115	21672.75
809.36299	21582.17857
813.22213	21489.75
817.07857	21461.32143
820.93231	21407.75
824.78336	21462.32143
828.63172	21604.32143
832.47738	21663.03571
836.32036	21529.89286
840.16066	21328.17857
843.99827	21196.03571
847.8332	21196.75
851.66546	21185.89286
855.49504	21208.75
859.32195	21202.46429
863.1462	21231.03571
866.96777	21181.17857
870.78668	21108.17857
874.60293	21135.75
878.41652	21194.60714
882.22745	21327.89286
886.03573	21428.60714
889.84136	21477.17857
893.64433	21366.03571
897.44466	21286.32143
901.24235	21226.17857
905.0374	21079.32143
908.8298	20816.32143
912.61957	20606.17857
916.40671	20606.75
920.19121	20696.46429
923.97308	20959.46429
927.75233	21370.17857
931.52895	21908.46429
935.30295	21822.89286
939.07433	21086.17857
942.84309	20429.46429
946.60924	19962.89286
950.37278	19744.60714
954.13371	19614.89286
957.89203	19501.46429
961.64774	19500.03571
965.40086	19406.75
969.15137	19356.75
972.89929	19281.75
976.64461	19246.60714
980.38733	19254.17857
984.12747	19318.17857
987.86502	19424.60714
991.59999	19537.32143
995.33237	19775.89286
999.06217	20160.17857
1002.78939	20733.32143
1006.51404	21278.03571
1010.23611	21723.60714
1013.95561	21869.60714
1017.67255	21770.17857
1021.38692	21597.89286
1025.09872	21361.75
1028.80796	21210.89286
1032.51465	21427.03571
1036.21877	21718.17857
1039.92035	21813.60714
1043.61937	21820.17857
1047.31584	21701.75
1051.00976	21441.75
1054.70114	21142.75
1058.38998	20976.32143
1062.07627	20958.89286
1065.76003	20927.75
1069.44126	20896.17857
1073.11995	21101.17857
1076.79611	21456.03571
1080.46974	22116.75
1084.14085	23018.17857
1087.80943	23774.17857
1091.47549	23999.75
1095.13903	23457.03571
1098.80005	22565.17857
1102.45857	21940.60714
1106.11456	21810.89286
1109.76805	22238.46429
1113.41903	23094.89286
1117.06751	24379.60714
1120.71348	26112.75
1124.35696	27926.46429
1127.99793	29159.17857
1131.63641	28403.17857
1135.2724	26396.17857
1138.90589	24649.46429
1142.5369	23575.32143
1146.16542	22765.75
1149.79145	22262.03571
1153.415	22093.89286
1157.03607	22167.89286
1160.65467	22595.89286
1164.27079	23363.60714
1167.88443	24719.89286
1171.49561	26681.75
1175.10432	30059.03571
1178.71056	34837.32143
1182.31434	38970.32143
1185.91565	40025.17857
1189.51451	38211.89286
1193.11091	35001.89286
1196.70485	31927.03571
1200.29634	30008.75
1203.88538	28699.17857
1207.47197	26943.17857
1211.05612	25162.60714
1214.63782	24051.75
1218.21708	23605.75
1221.79391	23547.60714
1225.36829	23480.46429
1228.94024	23376.89286
1232.50976	23137.89286
1236.07685	23055.03571
1239.6415	23118.17857
1243.20374	23327.89286
1246.76355	23594.17857
1250.32093	23988.75
1253.8759	24509.46429
1257.42845	25286.60714
1260.97859	26177.89286
1264.52631	27132.89286
1268.07163	28028.17857
1271.61453	28846.60714
1275.15503	29315.03571
1278.69312	29478.89286
1282.22882	29800.03571
1285.76211	30551.60714
1289.29301	31697.60714
1292.82151	32871.60714
1296.34761	34209.46429
1299.87133	36642.32143
1303.39266	40813.89286
1306.9116	47276.32143
1310.42815	53778.75
1313.94233	55482.46429
1317.45412	51166.75
1320.96354	44819.89286
1324.47058	39314.89286
1327.97525	35314.46429
1331.47754	33006.89286
1334.97747	32403.75
1338.47502	32980.03571
1341.97022	34823.17857
1345.46305	37689.17857
1348.95352	41477.75
1352.44163	46080.60714
1355.92738	52878.03571
1359.41078	63199.89286
1362.89183	71690.03571
1366.37053	67245.32143
1369.84688	53679.03571
1373.32088	42561.46429
1376.79254	36114.89286
1380.26186	32478.60714
1383.72883	30220.17857
1387.19347	28574.03571
1390.65578	27149.89286
1394.11575	26188.03571
1397.57339	25761.75
1401.0287	25725.75
1404.48168	25915.89286
1407.93234	26183.75
1411.38068	26556.60714
1414.82669	26974.32143
1418.27039	27034.46429
1421.71177	26831.03571
1425.15083	26447.60714
1428.58758	26314.75
1432.02203	26628.03571
1435.45416	26911.17857
1438.88399	26795.46429
1442.31151	26606.17857
1445.73673	26633.46429
1449.15965	26735.75
1452.58027	26719.75
1455.9986	26455.75
1459.41463	26291.32143
1462.82837	26581.32143
1466.23982	27288.17857
1469.64898	27952.89286
1473.05586	28395.75
1476.46045	28571.89286
1479.86276	28886.60714
1483.26279	29462.89286
1486.66054	30473.32143
1490.05602	31847.17857
1493.44922	33935.03571
1496.84016	37038.89286
1500.22882	42305.17857
1503.61521	50271.60714
1506.99934	59896.46429
1510.38121	67330.46429
1513.76081	67820.32143
1517.13816	60730.03571
1520.51324	50246.89286
1523.88607	41221.03571
1527.25665	35543.75
1530.62498	32318.03571
1533.99105	30507.32143
1537.35488	29477.03571
1540.71647	29017.32143
1544.07581	28948.60714
1547.4329	29231.60714
1550.78776	29596.17857
1554.14038	29944.75
1557.49077	30445.46429
1560.83892	31191.03571
1564.18484	32493.03571
1567.52853	34028.75
1570.86999	35058.32143
1574.20922	35525.89286
1577.54624	34907.60714
1580.88103	32463.75
1584.2136	29496.60714
1587.54395	27851.75
1590.87208	27830.03571
1594.19801	29328.46429
1597.52172	31475.75
1600.84321	32369.03571
1604.16251	31383.03571
1607.47959	29540.03571
1610.79447	27473.32143
1614.10715	25466.03571
1617.41763	23965.17857
1620.7259	23017.32143
1624.03199	22624.17857
1627.33587	22784.03571
1630.63757	23435.60714
1633.93707	24678.75
1637.23439	26801.32143
1640.52951	30142.17857
1643.82246	35294.89286
1647.11321	41480.60714
1650.40179	45470.32143
1653.68819	43328.60714
1656.97241	36420.60714
1660.25446	29580.46429
1663.53433	25011.60714
1666.81203	22518.75
1670.08756	20992.75
1673.36092	20076.17857
1676.63211	19477.75
1679.90115	19067.32143
1683.16801	18741.75
1686.43272	18465.46429
1689.69527	18293.03571
1692.95567	18182.17857
1696.2139	18108.46429
1699.46999	18031.89286
1702.72392	17978.03571
1705.97571	17948.89286
1709.22535	17940.89286
1712.47284	17912.03571
1715.71819	17882.89286
1718.96139	17800.17857
1722.20246	17719.60714
1725.44139	17602.17857
1728.67818	17473.03571
1731.91284	17338.60714
1735.14537	17288.03571
1738.37576	17193.75
1741.60403	17141.17857
1744.83017	17085.46429
1748.05418	17016.75
1751.27607	16983.32143
1754.49584	16928.75
1757.71349	16837.46429
1760.92903	16813.03571
1764.14244	16763.17857
1767.35375	16714.89286
1770.56294	16601.75
1773.77002	16557.32143
1776.97499	16496.46429
1780.17785	16421.60714
1783.37861	16410.75
1786.57727	16315.17857
1789.77382	16319.89286
1792.96828	16258.60714
1796.16064	16204.89286
1799.3509	16187.60714
1802.53907	16153.32143
1805.72514	16091.32143
1808.90913	16068.46429
1812.09102	16034.03571
1815.27083	15967.17857
1818.44856	15917.75
1821.6242	15890.17857
1824.79776	15899.17857
1827.96924	15816.60714
1831.13864	15800.60714
1834.30597	15762.17857
1837.47122	15766.89286
1840.6344	15748.17857
1843.7955	15741.17857
1846.95454	15702.60714
1850.11151	15647.60714
1853.26642	15644.75
1856.41926	15652.60714
1859.57004	15660.60714
1862.71876	15625.17857
1865.86542	15636.75
1869.01003	15622.03571
1872.15258	15692.32143
1875.29308	15661.75
1878.43152	15633.89286
1881.56792	15639.60714
1884.70227	15626.89286
1887.83457	15604.89286
1890.96482	15586.89286
1894.09304	15573.89286
1897.21921	15525.89286
1900.34335	15534.75
1903.46544	15524.03571
1906.58551	15487.03571
1909.70353	15495.17857
1912.81953	15505.17857
1915.93349	15483.46429
1919.04543	15424.03571
1922.15534	15387.17857
1925.26322	15348.32143
1928.36908	15329.32143
1931.47292	15279.32143
1934.57473	15269.46429
1937.67453	15200.03571
1940.77232	15119.32143
1943.86808	15087.60714
1946.96184	15043.46429
1950.05358	15007.75
1953.14331	14930.75
1956.23103	14980.03571
1959.31675	14895.46429
1962.40046	14881.60714
1965.48217	14870.46429
1968.56188	14824.32143
1971.63959	14790.75
1974.7153	14771.46429
1977.78901	14737.75
1980.86073	14651.89286
1983.93046	14581.32143
1986.99819	14506.60714
1990.06394	14466.89286
1993.1277	14429.03571
1996.18947	14342.75
1999.24925	14326.32143
2002.30706	14231.60714
2005.36288	14197.17857
2008.41672	14156.60714
2011.46859	14125.46429
2014.51848	14051.60714
2017.56639	14022.89286
2020.61233	13982.89286
2023.6563	13934.03571
2026.6983	13903.17857
2029.73833	13882.60714
2032.7764	13884.03571
2035.8125	13823.17857
2038.84664	13799.46429
2041.87881	13789.32143
2044.90903	13767.60714
2047.93729	13725.60714
2050.96359	13743.32143
2053.98794	13682.17857
2057.01034	13687.89286
2060.03078	13673.17857
2063.04927	13608.32143
2066.06582	13633.03571
2069.08042	13622.32143
2072.09307	13600.46429
2075.10378	13598.75
2078.11255	13613.32143
2081.11938	13586.32143
2084.12426	13561.03571
2087.12722	13566.60714
2090.12824	13566.89286
2093.12732	13575.89286
2096.12447	13584.17857
2099.11969	13585.60714
2102.11299	13571.46429
2105.10435	13568.32143
2108.09379	13551.75
2111.08131	13593.60714
2114.0669	13586.60714
2117.05057	13620.89286
2120.03233	13618.75
2123.01216	13658.60714
2125.99008	13688.46429
2128.96609	13699.03571
2131.94018	13737.60714
2134.91236	13717.75
2137.88263	13730.60714
2140.851	13692.75
2143.81746	13695.32143
2146.78201	13641.03571
2149.74466	13686.17857
2152.7054	13661.75
2155.66425	13616.03571
2158.6212	13633.03571
2161.57625	13642.32143
2164.52941	13599.32143
2167.48067	13624.75
2170.43004	13587.60714
2173.37752	13599.46429
2176.32311	13609.46429
2179.26681	13591.46429
2182.20863	13604.32143
2185.14856	13602.17857
2188.08661	13605.03571
2191.02278	13597.75
2193.95707	13570.32143
2196.88948	13590.75
2199.82001	13545.89286
2202.74867	13544.32143
2205.67545	13546.60714
2208.60037	13542.17857
2211.52341	13511.17857
2214.44458	13522.46429
2217.36388	13486.75
2220.28132	13466.17857
2223.1969	13367.89286
2226.11061	13410.60714
2229.02246	13351.17857
2231.93245	13330.46429
2234.84058	13298.17857
2237.74686	13256.75
2240.65128	13309.46429
2243.55385	13274.17857
2246.45456	13272.60714
2249.35343	13224.60714
2252.25044	13232.75
2255.14561	13259.75
2258.03893	13296.89286
2260.93041	13277.32143
2263.82004	13264.17857
2266.70783	13235.60714
2269.59378	13145.17857
2272.4779	13166.60714
2275.36017	13122.89286
2278.24061	13087.03571
2281.11922	13082.89286
2283.996	13049.03571
2286.87094	13009.17857
2289.74405	12986.03571
2292.61534	12964.17857
2295.4848	12951.32143
2298.35243	12962.75
2301.21824	12939.17857
2304.08223	12914.60714
2306.94439	12923.46429
2309.80474	12882.03571
2312.66327	12890.46429
2315.51999	12888.46429
2318.37489	12876.89286
2321.22797	12843.89286
2324.07925	12851.03571
2326.92871	12848.17857
2329.77637	12832.60714
2332.62222	12816.89286
2335.46626	12820.32143
2338.3085	12797.17857
2341.14893	12806.89286
2343.98756	12842.17857
2346.8244	12855.17857
2349.65943	12858.60714
2352.49267	12851.75
2355.32411	12870.03571
2358.15376	12860.17857
2360.98161	12875.17857
2363.80768	12877.46429
2366.63195	12889.17857
2369.45444	12885.03571
2372.27514	12853.17857
2375.09405	12878.32143
2377.91118	12803.89286
2380.72652	12794.17857
2383.54009	12700.89286
2386.35187	12675.32143
2389.16188	12581.32143
2391.97011	12575.03571
2394.77657	12535.17857
2397.58125	12523.75
2400.38416	12531.60714
2403.18529	12491.60714
2405.98466	12476.17857
2408.78226	12418.03571
2411.57809	12387.46429
2414.37216	12375.89286
2417.16446	12364.03571
2419.955	12355.17857
2422.74378	12340.60714
2425.5308	12343.32143
2428.31606	12339.89286
2431.09956	12355.03571
2433.88131	12348.32143
2436.6613	12343.46429
2439.43954	12371.17857
2442.21603	12364.17857
2444.99077	12360.89286
2447.76377	12355.03571
2450.53501	12353.60714
2453.30451	12373.60714
2456.07226	12323.17857
2458.83827	12333.32143
2461.60254	12343.46429
2464.36507	12307.60714
2467.12586	12256.75
2469.88492	12312.75
2472.64224	12314.17857
2475.39782	12282.03571
2478.15167	12337.17857
2480.90379	12368.32143
2483.65417	12404.17857
2486.40283	12421.46429
2489.14976	12410.75
2491.89497	12464.46429
2494.63845	12441.89286
2497.3802	12437.46429
2500.12024	12434.03571
2502.85855	12359.17857
2505.59514	12321.32143
2508.33002	12265.03571
2511.06318	12232.46429
2513.79462	12191.89286
2516.52435	12124.32143
2519.25237	12140.32143
2521.97867	12078.60714
2524.70327	12081.17857
2527.42616	12021.75
2530.14734	12045.03571
2532.86681	11998.89286
2535.58458	12002.03571
2538.30065	11982.17857
2541.01501	11996.03571
2543.72768	12015.17857
2546.43864	12017.75
2549.14791	11966.46429
2551.85548	11993.46429
2554.56136	11985.17857
2557.26554	11942.75
2559.96803	11958.03571
2562.66883	11931.03571
2565.36794	11915.32143
2568.06536	11884.46429
2570.7611	11850.46429
2573.45514	11860.46429
2576.14751	11820.17857
2578.83819	11810.60714
2581.52719	11788.03571
2584.21451	11767.17857
2586.90015	11779.03571
2589.58411	11771.89286
2592.2664	11732.46429
2594.94701	11727.60714
2597.62594	11704.60714
2600.30321	11667.46429
2602.9788	11685.89286
2605.65273	11656.89286
2608.32498	11678.32143
2610.99557	11692.60714
2613.66449	11689.75
2616.33175	11707.17857
2618.99734	11675.32143
2621.66128	11658.89286
2624.32355	11633.17857
2626.98416	11630.17857
2629.64311	11635.03571
2632.30041	11594.46429
2634.95605	11575.46429
2637.61004	11530.03571
2640.26238	11521.89286
2642.91306	11531.32143
2645.56209	11539.75
2648.20948	11501.32143
2650.85521	11515.60714
2653.4993	11505.89286
2656.14175	11519.60714
2658.78255	11503.75
2661.42171	11566.32143
2664.05923	11552.32143
2666.6951	11560.89286
2669.32934	11612.17857
2671.96194	11615.46429
2674.59291	11596.60714
2677.22224	11611.46429
2679.84993	11592.03571
2682.476	11578.03571
2685.10043	11595.17857
2687.72324	11565.89286
2690.34441	11578.60714
2692.96396	11570.75
2695.58188	11551.89286
2698.19818	11548.03571
2700.81285	11544.17857
2703.4259	11534.32143
2706.03733	11545.75
2708.64714	11546.03571
2711.25533	11572.89286
2713.86191	11552.32143
2716.46687	11598.17857
2719.07021	11594.17857
2721.67194	11605.32143
2724.27206	11581.75
2726.87057	11573.89286
2729.46747	11582.60714
2732.06276	11536.75
2734.65644	11565.60714
2737.24852	11548.46429
2739.83899	11502.75
2742.42786	11550.75
2745.01513	11499.46429
2747.60079	11497.03571
2750.18486	11437.17857
2752.76733	11450.32143
2755.3482	11473.17857
2757.92747	11462.17857
2760.50515	11439.89286
2763.08123	11440.17857
2765.65573	11402.89286
2768.22863	11416.03571
2770.79994	11405.46429
2773.36967	11384.89286
2775.9378	11394.32143
2778.50435	11367.03571
2781.06932	11350.32143
2783.6327	11378.32143
2786.1945	11354.60714
2788.75471	11349.03571
2791.31335	11347.89286
2793.87041	11341.32143
2796.42589	11328.03571
2798.97979	11350.60714
2801.53212	11322.75
2804.08288	11316.46429
2806.63206	11280.46429
2809.17967	11283.89286
2811.72571	11313.03571
2814.27018	11325.46429
2816.81308	11320.03571
2819.35442	11307.60714
2821.89419	11308.32143
2824.43239	11316.60714
2826.96904	11329.89286
2829.50412	11314.03571
2832.03763	11289.32143
2834.56959	11305.60714
2837.1	11303.89286
2839.62884	11295.46429
2842.15613	11246.03571
2844.68186	11257.75
2847.20604	11261.17857
2849.72867	11256.46429
2852.24974	11265.75
2854.76927	11275.75
2857.28724	11264.60714
2859.80367	11281.46429
2862.31855	11275.32143
2864.83189	11283.32143
2867.34368	11266.32143
2869.85393	11326.60714
2872.36264	11318.03571
2874.8698	11308.46429
2877.37543	11305.89286
2879.87952	11320.03571
2882.38207	11288.75
2884.88308	11280.17857
2887.38256	11307.75
2889.88051	11328.17857
2892.37692	11335.89286
2894.8718	11326.89286
2897.36515	11320.03571
2899.85698	11359.03571
2902.34727	11369.75
2904.83604	11358.17857
2907.32328	11386.17857
2909.809	11375.75
2912.29319	11398.03571
2914.77587	11383.75
2917.25702	11383.03571
2919.73665	11358.46429
2922.21476	11364.46429
2924.69136	11368.75
2927.16644	11361.75
2929.64	11335.75
2932.11205	11302.75
2934.58258	11274.46429
2937.05161	11269.89286
2939.51912	11276.03571
2941.98513	11264.03571
2944.44962	11218.60714
2946.91261	11220.32143
2949.37409	11224.03571
2951.83407	11181.89286
2954.29254	11165.60714
2956.74951	11155.75
2959.20498	11149.17857
2961.65895	11100.46429
2964.11142	11070.60714
2966.56239	11059.75
2969.01186	11033.03571
2971.45984	11025.46429
2973.90632	10995.03571
2976.35131	10956.32143
2978.7948	10937.17857
2981.23681	10879.89286
2983.67732	10879.32143
2986.11635	10836.89286
2988.55388	10813.17857
2990.98993	10803.03571
2993.4245	10807.32143
2995.85758	10789.89286
2998.28917	10800.46429
3000.71928	10768.89286
3003.14791	10742.89286
3005.57506	10752.32143
3008.00073	10737.75
3010.42493	10724.32143
3012.84764	10718.32143
3015.26888	10700.32143
3017.68865	10706.60714
3020.10694	10681.89286
3022.52376	10663.17857
3024.9391	10639.89286
3027.35298	10578.60714
3029.76539	10577.46429
3032.17632	10554.46429
3034.5858	10578.03571
3036.9938	10527.75
3039.40034	10538.46429
3041.80542	10524.75
3044.20903	10466.89286
3046.61118	10456.17857
3049.01187	10443.89286
3051.4111	10394.75
3053.80888	10401.03571
3056.20519	10379.32143
3058.60005	10346.75
3060.99345	10331.89286
3063.3854	10305.17857
3065.7759	10242.17857
3068.16494	10234.89286
3070.55254	10206.03571
3072.93868	10198.17857
3075.32338	10163.89286
3077.70662	10157.46429
3080.08842	10129.03571
3082.46878	10128.32143
3084.84769	10120.32143
3087.22515	10098.32143
3089.60118	10098.75
3091.97576	10095.32143
3094.3489	10091.32143
3096.72061	10090.32143
3099.09087	10130.32143
3101.4597	10075.75
3103.82709	10095.32143
3106.19305	10095.46429
3108.55757	10086.89286
3110.92066	10071.17857
3113.28232	10066.46429
3115.64255	10034.03571
3118.00134	10002.60714
3120.35871	10021.32143
3122.71466	9973.46429
3125.06917	9979.32143
3127.42226	9964.03571
3129.77393	9982.32143
3132.12417	9964.32143
3134.47299	9965.32143
3136.82039	9943.75
3139.16636	9958.03571
3141.51092	9986.89286
3143.85406	9981.17857
3146.19579	9988.32143
3148.53609	9984.17857
3150.87499	9992.32143
3153.21246	10023.75
3155.54853	10060.32143
3157.88318	10056.89286
3160.21642	10078.60714
3162.54826	10050.46429
3164.87868	10047.89286
3167.2077	10045.60714
3169.5353	10048.46429
3171.86151	10047.46429
3174.18631	10045.32143
3176.5097	10049.03571
3178.83169	10049.17857
3181.15228	10031.75
3183.47147	9991.75
3185.78926	10004.03571
3188.10565	9995.75
3190.42065	10007.17857
3192.73424	10022.75
3195.04645	10018.46429
3197.35725	10028.03571
3199.66667	10034.46429
3201.97469	10069.46429
3204.28132	10067.46429
3206.58656	10069.03571
3208.8904	10105.32143
3211.19287	10114.60714
3213.49394	10132.03571
3215.79363	10177.46429
3218.09193	10164.75
3220.38884	10169.32143
3222.68438	10148.03571
3224.97853	10165.32143
3227.2713	10160.46429
3229.56269	10187.75
3231.8527	10157.17857
3234.14133	10130.17857
3236.42858	10092.17857
3238.71446	10083.17857
3240.99896	10078.03571
3243.28209	10067.32143
3245.56384	10057.46429
3247.84423	10090.89286
3250.12324	10072.46429
3252.40088	10049.89286
3254.67715	10050.75
3256.95205	10052.75
3259.22558	10044.03571
3261.49775	10037.32143
3263.76855	10050.75
3266.03799	10056.46429
3268.30606	10018.03571
3270.57277	10009.03571
3272.83812	9989.03571
3275.10211	9934.03571
3277.36474	9958.46429
3279.62601	9945.03571
3281.88593	9941.75
3284.14448	9956.89286
3286.40168	9945.03571
3288.65753	9940.75
3290.91202	9945.89286
3293.16516	9935.32143
3295.41695	9912.60714
3297.66738	9845.17857
3299.91647	9798.17857
3302.16421	9755.75
3304.4106	9714.17857
3306.65564	9652.17857
3308.89933	9565.75
3311.14169	9492.03571
3313.38269	9441.46429
3315.62236	9345.32143
3317.86068	9271.46429
3320.09766	9207.17857
3322.3333	9149.60714
3324.5676	9124.89286
3326.80056	8962.60714
3329.03219	8939.60714
3331.26248	3.75
3333.49143	0.17857
3335.71905	-0.25
