Data from AgNPs_FTO_APTES_UA_20uM_CRN_200uM_R6G_10uM_NaF_0.1M_Addition_RamanShift__23__18-19-14-936.txt Node

Date: Thu Feb 17 18:19:14 GMT 2022
User: TCL
Spectrometer: QEP01345
Trigger mode: 4
Integration Time (sec): 1.000000E1
Scans to average: 7
Electric dark correction enabled: true
Nonlinearity correction enabled: false
Boxcar width: 0
XAxis mode: Raman Shifts
Number of Pixels in Spectrum: 1044
>>>>>Begin Spectral Data<<<<<
46.04893	-0.10714
50.45542	-1.25
54.85868	0.32143
59.25871	-0.67857
63.6555	83.60714
68.04907	84.89286
72.43941	86.75
76.82654	95.46429
81.21044	97.89286
85.59113	100.46429
89.96862	104.46429
94.34289	102.17857
98.71396	108.46429
103.08183	114.60714
107.4465	114.75
111.80798	118.46429
116.16626	120.46429
120.52136	128.89286
124.87327	131.75
129.222	135.03571
133.56755	136.89286
137.90993	158.17857
142.24913	162.17857
146.58517	183.75
150.91804	213.17857
155.24774	254.75
159.57429	308.32143
163.89768	398.03571
168.21792	518.32143
172.53501	714.89286
176.84895	1002.60714
181.15975	1404.60714
185.46741	1999.75
189.77193	2766.75
194.07331	3725.17857
198.37157	4836.17857
202.6667	6010.17857
206.9587	7201.75
211.24758	8375.03571
215.53334	9523.03571
219.81599	10754.75
224.09553	12073.60714
228.37195	13615.89286
232.64527	15290.75
236.91549	17038.32143
241.18261	18782.17857
245.44663	20328.89286
249.70755	21767.03571
253.96539	22983.75
258.22014	23978.32143
262.4718	24840.60714
266.72039	25406.03571
270.96589	25674.17857
275.20832	25642.75
279.44768	25348.75
283.68397	25002.03571
287.91719	24601.32143
292.14735	24418.46429
296.37445	24386.60714
300.59849	24571.89286
304.81948	24914.17857
309.03742	25082.46429
313.25231	25009.32143
317.46415	24590.75
321.67296	23907.32143
325.87872	23296.46429
330.08145	23134.17857
334.28114	23202.17857
338.47781	23478.17857
342.67145	23790.32143
346.86207	24301.03571
351.04966	24909.32143
355.23424	25676.17857
359.4158	26348.89286
363.59435	26791.17857
367.76989	27074.03571
371.94243	27292.46429
376.11196	27379.60714
380.27849	27495.60714
384.44203	27627.60714
388.60257	27630.03571
392.76012	27665.75
396.91468	27832.46429
401.06626	28202.75
405.21485	28509.75
409.36047	28423.46429
413.50311	27979.89286
417.64277	27531.46429
421.77947	27274.60714
425.9132	27194.32143
430.04396	27372.89286
434.17176	27536.46429
438.2966	27849.32143
442.41849	28421.32143
446.53742	29099.17857
450.6534	29780.32143
454.76644	30297.89286
458.87653	30546.75
462.98368	30365.89286
467.08789	30020.60714
471.18916	29551.17857
475.2875	29103.32143
479.38291	28743.03571
483.4754	28494.03571
487.56496	28283.60714
491.6516	28088.03571
495.73531	27955.75
499.81612	27944.03571
503.89401	28155.32143
507.96899	28308.32143
512.04106	28474.03571
516.11023	28583.32143
520.1765	28725.03571
524.23987	28706.46429
528.30034	28628.60714
532.35792	28564.32143
536.41261	28504.46429
540.46441	28190.60714
544.51333	28041.17857
548.55936	28030.46429
552.60252	28356.60714
556.64279	28643.32143
560.6802	28892.75
564.71473	29012.17857
568.7464	29273.89286
572.7752	29534.75
576.80114	29463.46429
580.82422	29340.17857
584.84444	29474.60714
588.86181	29921.89286
592.87633	30580.60714
596.888	31084.75
600.89682	31264.17857
604.9028	32234.17857
608.90594	35480.75
612.90624	39626.89286
616.90371	38436.46429
620.89834	32555.89286
624.89015	29715.89286
628.87913	29216.32143
632.86528	29258.89286
636.84862	29333.32143
640.82913	29109.89286
644.80683	28543.17857
648.78172	28081.17857
652.75379	28095.75
656.72306	28440.46429
660.68952	28983.75
664.65319	28933.32143
668.61405	28504.60714
672.57211	28430.60714
676.52738	28581.75
680.47986	28643.17857
684.42955	28502.03571
688.37646	28336.60714
692.32058	28271.32143
696.26192	28430.03571
700.20048	28661.32143
704.13626	28738.89286
708.06928	28639.60714
711.99952	28394.17857
715.927	28356.46429
719.85171	28370.03571
723.77365	28361.75
727.69284	28284.75
731.60928	28195.75
735.52295	28259.75
739.43388	28296.75
743.34206	28352.46429
747.24749	28464.89286
751.15017	28479.03571
755.05012	28647.75
758.94733	29150.60714
762.8418	30302.89286
766.73354	32272.75
770.62254	34400.17857
774.50882	35579.03571
778.39237	34770.75
782.27321	32511.17857
786.15132	30335.32143
790.02671	28963.03571
793.89938	28307.32143
797.76935	28013.60714
801.6366	27956.75
805.50115	27916.75
809.36299	27822.89286
813.22213	27751.03571
817.07857	27631.17857
820.93231	27591.32143
824.78336	27607.46429
828.63172	27598.03571
832.47738	27661.46429
836.32036	27687.60714
840.16066	27734.75
843.99827	27798.17857
847.8332	27800.75
851.66546	27744.03571
855.49504	27765.32143
859.32195	27893.75
863.1462	27815.46429
866.96777	27944.17857
870.78668	27857.32143
874.60293	27833.60714
878.41652	27880.03571
882.22745	27878.60714
886.03573	27921.75
889.84136	27875.03571
893.64433	27782.17857
897.44466	27694.89286
901.24235	27608.17857
905.0374	27483.60714
908.8298	27385.17857
912.61957	27256.89286
916.40671	27410.60714
920.19121	27556.03571
923.97308	27830.60714
927.75233	27932.75
931.52895	28016.89286
935.30295	27976.46429
939.07433	27632.03571
942.84309	27351.60714
946.60924	27173.46429
950.37278	27003.60714
954.13371	26924.46429
957.89203	26784.60714
961.64774	26689.89286
965.40086	26569.60714
969.15137	26468.89286
972.89929	26439.17857
976.64461	26435.75
980.38733	26466.60714
984.12747	26581.32143
987.86502	26729.17857
991.59999	27005.17857
995.33237	27347.89286
999.06217	27891.75
1002.78939	28535.03571
1006.51404	28878.60714
1010.23611	29119.89286
1013.95561	29290.89286
1017.67255	29373.46429
1021.38692	29181.89286
1025.09872	29041.17857
1028.80796	29145.03571
1032.51465	29736.17857
1036.21877	30208.89286
1039.92035	30238.32143
1043.61937	29998.32143
1047.31584	29524.17857
1051.00976	28931.46429
1054.70114	28554.03571
1058.38998	28415.46429
1062.07627	28406.32143
1065.76003	28364.60714
1069.44126	28387.75
1073.11995	28448.75
1076.79611	28631.75
1080.46974	28827.17857
1084.14085	29040.32143
1087.80943	29371.60714
1091.47549	29421.75
1095.13903	29274.75
1098.80005	28959.17857
1102.45857	28698.60714
1106.11456	28625.46429
1109.76805	28748.46429
1113.41903	28976.89286
1117.06751	29354.32143
1120.71348	29820.17857
1124.35696	30184.03571
1127.99793	30584.32143
1131.63641	30702.46429
1135.2724	30337.89286
1138.90589	29807.32143
1142.5369	29464.60714
1146.16542	29174.89286
1149.79145	28990.17857
1153.415	28919.17857
1157.03607	29044.89286
1160.65467	29374.17857
1164.27079	29976.75
1167.88443	30950.89286
1171.49561	32245.60714
1175.10432	34034.32143
1178.71056	36395.17857
1182.31434	38773.60714
1185.91565	39868.46429
1189.51451	39469.17857
1193.11091	38050.46429
1196.70485	36471.75
1200.29634	35164.75
1203.88538	34219.17857
1207.47197	33211.75
1211.05612	32419.32143
1214.63782	31894.46429
1218.21708	31816.60714
1221.79391	31957.46429
1225.36829	32031.60714
1228.94024	31932.17857
1232.50976	31495.32143
1236.07685	31111.17857
1239.6415	31009.17857
1243.20374	31034.17857
1246.76355	31215.32143
1250.32093	31579.75
1253.8759	32011.89286
1257.42845	32562.60714
1260.97859	33194.46429
1264.52631	33670.03571
1268.07163	34275.17857
1271.61453	34921.03571
1275.15503	35661.17857
1278.69312	36292.75
1282.22882	36788.03571
1285.76211	37261.46429
1289.29301	37892.32143
1292.82151	38631.46429
1296.34761	39601.32143
1299.87133	41163.89286
1303.39266	43329.46429
1306.9116	46265.60714
1310.42815	49340.60714
1313.94233	50919.75
1317.45412	50209.89286
1320.96354	48171.17857
1324.47058	45884.75
1327.97525	43967.89286
1331.47754	42729.46429
1334.97747	42274.17857
1338.47502	42466.89286
1341.97022	43022.17857
1345.46305	43623.75
1348.95352	44446.60714
1352.44163	45603.46429
1355.92738	47698.17857
1359.41078	50961.03571
1362.89183	53952.03571
1366.37053	52849.75
1369.84688	47567.75
1373.32088	42095.89286
1376.79254	38598.60714
1380.26186	36804.03571
1383.72883	35922.17857
1387.19347	35444.89286
1390.65578	34813.17857
1394.11575	34354.17857
1397.57339	34426.17857
1401.0287	34903.03571
1404.48168	35351.03571
1407.93234	35842.60714
1411.38068	36098.60714
1414.82669	36150.75
1418.27039	35752.03571
1421.71177	35067.32143
1425.15083	34408.32143
1428.58758	33958.75
1432.02203	33995.03571
1435.45416	34270.75
1438.88399	34625.46429
1442.31151	34836.32143
1445.73673	35023.46429
1449.15965	35220.03571
1452.58027	35167.03571
1455.9986	35030.17857
1459.41463	34990.17857
1462.82837	35222.46429
1466.23982	35721.17857
1469.64898	36425.03571
1473.05586	36965.89286
1476.46045	37287.32143
1479.86276	37527.03571
1483.26279	37595.17857
1486.66054	37746.60714
1490.05602	38031.46429
1493.44922	38405.75
1496.84016	38995.46429
1500.22882	39975.03571
1503.61521	41764.46429
1506.99934	44056.03571
1510.38121	46014.03571
1513.76081	46277.89286
1517.13816	44475.89286
1520.51324	41543.60714
1523.88607	39004.89286
1527.25665	37427.75
1530.62498	36566.89286
1533.99105	36120.17857
1537.35488	35926.60714
1540.71647	35854.32143
1544.07581	35768.46429
1547.4329	35603.60714
1550.78776	35427.46429
1554.14038	35214.46429
1557.49077	35142.75
1560.83892	35182.89286
1564.18484	35351.17857
1567.52853	35500.60714
1570.86999	35800.75
1574.20922	35989.17857
1577.54624	35961.46429
1580.88103	35448.75
1584.2136	34860.60714
1587.54395	34813.17857
1590.87208	35726.75
1594.19801	37557.75
1597.52172	39791.89286
1600.84321	40971.75
1604.16251	40301.89286
1607.47959	38351.32143
1610.79447	35900.75
1614.10715	33743.89286
1617.41763	32021.60714
1620.7259	30800.60714
1624.03199	30218.75
1627.33587	30211.75
1630.63757	30681.60714
1633.93707	31749.46429
1637.23439	33418.17857
1640.52951	35708.32143
1643.82246	38401.03571
1647.11321	40943.75
1650.40179	41919.46429
1653.68819	40226.60714
1656.97241	36392.89286
1660.25446	32632.32143
1663.53433	30016.89286
1666.81203	28405.32143
1670.08756	27327.46429
1673.36092	26725.32143
1676.63211	26303.60714
1679.90115	25939.46429
1683.16801	25666.89286
1686.43272	25512.60714
1689.69527	25327.60714
1692.95567	25203.60714
1696.2139	25114.03571
1699.46999	25126.03571
1702.72392	25063.46429
1705.97571	25043.89286
1709.22535	25034.17857
1712.47284	24988.03571
1715.71819	24982.32143
1718.96139	24893.32143
1722.20246	24854.60714
1725.44139	24780.89286
1728.67818	24704.17857
1731.91284	24573.60714
1735.14537	24551.46429
1738.37576	24519.32143
1741.60403	24466.03571
1744.83017	24365.03571
1748.05418	24343.32143
1751.27607	24338.03571
1754.49584	24259.03571
1757.71349	24204.75
1760.92903	24261.03571
1764.14244	24219.32143
1767.35375	24187.75
1770.56294	24130.03571
1773.77002	24055.03571
1776.97499	24005.89286
1780.17785	24000.32143
1783.37861	23997.32143
1786.57727	23910.17857
1789.77382	23813.89286
1792.96828	23847.46429
1796.16064	23782.32143
1799.3509	23737.46429
1802.53907	23732.03571
1805.72514	23686.75
1808.90913	23664.32143
1812.09102	23610.03571
1815.27083	23510.03571
1818.44856	23510.17857
1821.6242	23557.17857
1824.79776	23493.89286
1827.96924	23479.46429
1831.13864	23427.32143
1834.30597	23408.17857
1837.47122	23354.46429
1840.6344	23363.89286
1843.7955	23378.03571
1846.95454	23356.60714
1850.11151	23383.46429
1853.26642	23351.75
1856.41926	23327.32143
1859.57004	23359.32143
1862.71876	23286.60714
1865.86542	23295.17857
1869.01003	23294.60714
1872.15258	23259.17857
1875.29308	23284.17857
1878.43152	23276.89286
1881.56792	23309.60714
1884.70227	23266.60714
1887.83457	23268.32143
1890.96482	23211.17857
1894.09304	23170.46429
1897.21921	23124.89286
1900.34335	23163.17857
1903.46544	23131.89286
1906.58551	23079.17857
1909.70353	23102.89286
1912.81953	23006.32143
1915.93349	22992.03571
1919.04543	23012.46429
1922.15534	22976.75
1925.26322	22897.75
1928.36908	22922.03571
1931.47292	22890.60714
1934.57473	22821.03571
1937.67453	22787.03571
1940.77232	22739.75
1943.86808	22650.46429
1946.96184	22611.60714
1950.05358	22503.75
1953.14331	22482.17857
1956.23103	22447.75
1959.31675	22418.03571
1962.40046	22329.32143
1965.48217	22247.75
1968.56188	22225.32143
1971.63959	22139.17857
1974.7153	22100.32143
1977.78901	22045.17857
1980.86073	21970.03571
1983.93046	21865.46429
1986.99819	21843.60714
1990.06394	21784.46429
1993.1277	21719.89286
1996.18947	21647.46429
1999.24925	21597.46429
2002.30706	21492.60714
2005.36288	21410.46429
2008.41672	21398.75
2011.46859	21323.60714
2014.51848	21338.32143
2017.56639	21243.03571
2020.61233	21188.60714
2023.6563	21134.46429
2026.6983	21125.89286
2029.73833	21069.17857
2032.7764	21026.32143
2035.8125	21020.32143
2038.84664	20950.75
2041.87881	20922.89286
2044.90903	20872.89286
2047.93729	20857.75
2050.96359	20840.46429
2053.98794	20880.60714
2057.01034	20816.03571
2060.03078	20776.32143
2063.04927	20779.89286
2066.06582	20757.17857
2069.08042	20731.17857
2072.09307	20755.03571
2075.10378	20743.32143
2078.11255	20733.75
2081.11938	20697.89286
2084.12426	20732.03571
2087.12722	20691.60714
2090.12824	20707.32143
2093.12732	20708.03571
2096.12447	20719.32143
2099.11969	20716.75
2102.11299	20683.32143
2105.10435	20679.89286
2108.09379	20672.75
2111.08131	20746.75
2114.0669	20722.03571
2117.05057	20766.75
2120.03233	20818.03571
2123.01216	20811.03571
2125.99008	20818.89286
2128.96609	20870.17857
2131.94018	20879.60714
2134.91236	20899.89286
2137.88263	20883.03571
2140.851	20887.03571
2143.81746	20891.89286
2146.78201	20926.17857
2149.74466	20925.03571
2152.7054	20927.03571
2155.66425	20934.89286
2158.6212	20937.46429
2161.57625	20934.17857
2164.52941	20898.89286
2167.48067	20892.32143
2170.43004	20910.89286
2173.37752	20883.75
2176.32311	20896.32143
2179.26681	20867.46429
2182.20863	20888.75
2185.14856	20912.75
2188.08661	20934.89286
2191.02278	20923.60714
2193.95707	20933.46429
2196.88948	20906.75
2199.82001	20904.32143
2202.74867	20880.03571
2205.67545	20877.03571
2208.60037	20843.89286
2211.52341	20858.46429
2214.44458	20815.17857
2217.36388	20757.32143
2220.28132	20768.75
2223.1969	20716.32143
2226.11061	20695.03571
2229.02246	20615.60714
2231.93245	20591.75
2234.84058	20501.75
2237.74686	20511.03571
2240.65128	20537.17857
2243.55385	20543.60714
2246.45456	20490.89286
2249.35343	20447.32143
2252.25044	20424.75
2255.14561	20434.17857
2258.03893	20376.89286
2260.93041	20367.75
2263.82004	20298.60714
2266.70783	20248.17857
2269.59378	20211.75
2272.4779	20158.03571
2275.36017	20108.32143
2278.24061	20118.60714
2281.11922	20065.75
2283.996	20058.89286
2286.87094	20022.32143
2289.74405	19988.46429
2292.61534	19955.75
2295.4848	19941.17857
2298.35243	19963.46429
2301.21824	19977.03571
2304.08223	19977.75
2306.94439	19986.03571
2309.80474	19935.03571
2312.66327	19953.60714
2315.51999	19958.46429
2318.37489	19968.75
2321.22797	19941.89286
2324.07925	19892.32143
2326.92871	19875.46429
2329.77637	19853.60714
2332.62222	19824.03571
2335.46626	19831.60714
2338.3085	19830.17857
2341.14893	19793.32143
2343.98756	19817.60714
2346.8244	19857.32143
2349.65943	19790.17857
2352.49267	19777.46429
2355.32411	19792.17857
2358.15376	19787.32143
2360.98161	19747.75
2363.80768	19800.75
2366.63195	19686.03571
2369.45444	19659.03571
2372.27514	19647.17857
2375.09405	19605.32143
2377.91118	19614.46429
2380.72652	19571.46429
2383.54009	19503.03571
2386.35187	19462.32143
2389.16188	19393.46429
2391.97011	19387.89286
2394.77657	19353.03571
2397.58125	19300.17857
2400.38416	19353.89286
2403.18529	19306.60714
2405.98466	19248.03571
2408.78226	19181.60714
2411.57809	19203.60714
2414.37216	19146.75
2417.16446	19188.17857
2419.955	19086.17857
2422.74378	19101.75
2425.5308	19054.17857
2428.31606	19059.03571
2431.09956	19037.46429
2433.88131	19011.32143
2436.6613	19035.60714
2439.43954	19041.17857
2442.21603	19009.89286
2444.99077	18971.17857
2447.76377	18998.32143
2450.53501	19009.32143
2453.30451	18930.46429
2456.07226	18930.89286
2458.83827	18931.32143
2461.60254	18905.32143
2464.36507	18898.60714
2467.12586	18859.32143
2469.88492	18888.89286
2472.64224	18870.32143
2475.39782	18891.60714
2478.15167	18930.46429
2480.90379	18884.89286
2483.65417	18920.17857
2486.40283	18990.32143
2489.14976	18951.03571
2491.89497	18968.17857
2494.63845	18951.75
2497.3802	18949.32143
2500.12024	18964.60714
2502.85855	18901.32143
2505.59514	18850.32143
2508.33002	18838.75
2511.06318	18785.32143
2513.79462	18809.60714
2516.52435	18766.32143
2519.25237	18714.89286
2521.97867	18684.60714
2524.70327	18709.32143
2527.42616	18665.03571
2530.14734	18645.17857
2532.86681	18631.89286
2535.58458	18648.46429
2538.30065	18599.46429
2541.01501	18634.17857
2543.72768	18620.60714
2546.43864	18592.60714
2549.14791	18568.17857
2551.85548	18567.46429
2554.56136	18475.89286
2557.26554	18488.17857
2559.96803	18449.89286
2562.66883	18450.75
2565.36794	18385.17857
2568.06536	18380.17857
2570.7611	18371.89286
2573.45514	18334.32143
2576.14751	18314.60714
2578.83819	18292.46429
2581.52719	18333.60714
2584.21451	18232.60714
2586.90015	18303.17857
2589.58411	18240.89286
2592.2664	18254.03571
2594.94701	18178.46429
2597.62594	18165.60714
2600.30321	18184.17857
2602.9788	18154.89286
2605.65273	18122.46429
2608.32498	18137.89286
2610.99557	18117.32143
2613.66449	18135.75
2616.33175	18117.46429
2618.99734	18115.60714
2621.66128	18085.75
2624.32355	18102.32143
2626.98416	18088.17857
2629.64311	18073.89286
2632.30041	18102.75
2634.95605	18025.60714
2637.61004	18000.32143
2640.26238	17954.89286
2642.91306	17945.89286
2645.56209	17951.17857
2648.20948	17933.46429
2650.85521	17897.32143
2653.4993	17931.60714
2656.14175	17928.75
2658.78255	17926.89286
2661.42171	17897.17857
2664.05923	17959.60714
2666.6951	17935.03571
2669.32934	17955.17857
2671.96194	17964.89286
2674.59291	17988.60714
2677.22224	17972.75
2679.84993	17930.17857
2682.476	17909.75
2685.10043	17915.89286
2687.72324	17900.75
2690.34441	17912.60714
2692.96396	17906.46429
2695.58188	17930.46429
2698.19818	17920.32143
2700.81285	17890.75
2703.4259	17867.32143
2706.03733	17923.60714
2708.64714	17897.60714
2711.25533	17899.46429
2713.86191	17924.32143
2716.46687	17973.75
2719.07021	17926.60714
2721.67194	17938.89286
2724.27206	17949.46429
2726.87057	17931.17857
2729.46747	17925.03571
2732.06276	17918.17857
2734.65644	17888.03571
2737.24852	17916.89286
2739.83899	17892.46429
2742.42786	17922.46429
2745.01513	17881.75
2747.60079	17843.75
2750.18486	17802.32143
2752.76733	17836.89286
2755.3482	17820.32143
2757.92747	17869.17857
2760.50515	17816.03571
2763.08123	17813.46429
2765.65573	17756.89286
2768.22863	17725.17857
2770.79994	17728.32143
2773.36967	17715.03571
2775.9378	17740.46429
2778.50435	17706.89286
2781.06932	17675.75
2783.6327	17682.75
2786.1945	17654.75
2788.75471	17656.32143
2791.31335	17587.60714
2793.87041	17597.89286
2796.42589	17579.03571
2798.97979	17557.46429
2801.53212	17524.60714
2804.08288	17521.46429
2806.63206	17477.32143
2809.17967	17424.17857
2811.72571	17443.32143
2814.27018	17413.17857
2816.81308	17378.89286
2819.35442	17335.03571
2821.89419	17309.89286
2824.43239	17344.60714
2826.96904	17283.89286
2829.50412	17307.75
2832.03763	17272.89286
2834.56959	17319.89286
2837.1	17243.03571
2839.62884	17207.75
2842.15613	17222.60714
2844.68186	17198.03571
2847.20604	17202.46429
2849.72867	17191.75
2852.24974	17165.46429
2854.76927	17191.89286
2857.28724	17173.03571
2859.80367	17137.46429
2862.31855	17095.17857
2864.83189	17076.46429
2867.34368	17090.89286
2869.85393	17056.03571
2872.36264	17054.46429
2874.8698	17045.17857
2877.37543	17038.60714
2879.87952	17016.60714
2882.38207	17073.60714
2884.88308	17054.32143
2887.38256	17069.03571
2889.88051	17070.60714
2892.37692	17062.60714
2894.8718	17075.60714
2897.36515	17114.75
2899.85698	17117.46429
2902.34727	17204.75
2904.83604	17151.89286
2907.32328	17186.75
2909.809	17227.17857
2912.29319	17229.75
2914.77587	17205.32143
2917.25702	17202.60714
2919.73665	17192.32143
2922.21476	17229.46429
2924.69136	17216.75
2927.16644	17144.89286
2929.64	17204.89286
2932.11205	17157.32143
2934.58258	17129.60714
2937.05161	17116.03571
2939.51912	17114.32143
2941.98513	17141.32143
2944.44962	17120.46429
2946.91261	17099.60714
2949.37409	17122.89286
2951.83407	17112.60714
2954.29254	17088.32143
2956.74951	17042.60714
2959.20498	17044.17857
2961.65895	17024.46429
2964.11142	17014.75
2966.56239	17026.32143
2969.01186	16979.89286
2971.45984	16915.17857
2973.90632	16901.60714
2976.35131	16869.75
2978.7948	16810.89286
2981.23681	16782.89286
2983.67732	16760.17857
2986.11635	16728.32143
2988.55388	16713.60714
2990.98993	16668.89286
2993.4245	16633.75
2995.85758	16606.46429
2998.28917	16598.46429
3000.71928	16591.03571
3003.14791	16503.17857
3005.57506	16567.75
3008.00073	16529.32143
3010.42493	16490.46429
3012.84764	16444.75
3015.26888	16457.89286
3017.68865	16417.17857
3020.10694	16403.03571
3022.52376	16382.03571
3024.9391	16298.89286
3027.35298	16333.60714
3029.76539	16320.17857
3032.17632	16300.03571
3034.5858	16276.60714
3036.9938	16278.32143
3039.40034	16233.32143
3041.80542	16267.89286
3044.20903	16229.60714
3046.61118	16181.46429
3049.01187	16212.03571
3051.4111	16166.89286
3053.80888	16158.75
3056.20519	16123.03571
3058.60005	16074.89286
3060.99345	16082.46429
3063.3854	16022.17857
3065.7759	15974.46429
3068.16494	15957.03571
3070.55254	15906.46429
3072.93868	15890.32143
3075.32338	15820.32143
3077.70662	15793.03571
3080.08842	15801.89286
3082.46878	15753.75
3084.84769	15772.32143
3087.22515	15764.60714
3089.60118	15768.60714
3091.97576	15776.60714
3094.3489	15763.03571
3096.72061	15793.60714
3099.09087	15814.17857
3101.4597	15760.32143
3103.82709	15790.46429
3106.19305	15775.60714
3108.55757	15746.89286
3110.92066	15718.17857
3113.28232	15731.75
3115.64255	15690.32143
3118.00134	15629.46429
3120.35871	15552.60714
3122.71466	15538.60714
3125.06917	15599.32143
3127.42226	15536.32143
3129.77393	15542.46429
3132.12417	15530.17857
3134.47299	15510.46429
3136.82039	15484.32143
3139.16636	15518.03571
3141.51092	15515.46429
3143.85406	15505.60714
3146.19579	15524.17857
3148.53609	15517.32143
3150.87499	15528.32143
3153.21246	15531.46429
3155.54853	15562.60714
3157.88318	15537.17857
3160.21642	15563.46429
3162.54826	15597.89286
3164.87868	15581.89286
3167.2077	15566.03571
3169.5353	15575.75
3171.86151	15607.89286
3174.18631	15597.46429
3176.5097	15570.89286
3178.83169	15562.89286
3181.15228	15589.60714
3183.47147	15518.60714
3185.78926	15531.89286
3188.10565	15465.17857
3190.42065	15493.03571
3192.73424	15503.46429
3195.04645	15486.60714
3197.35725	15487.03571
3199.66667	15474.17857
3201.97469	15514.75
3204.28132	15473.89286
3206.58656	15492.03571
3208.8904	15523.89286
3211.19287	15536.03571
3213.49394	15587.32143
3215.79363	15559.89286
3218.09193	15596.89286
3220.38884	15577.17857
3222.68438	15593.32143
3224.97853	15576.60714
3227.2713	15558.89286
3229.56269	15531.75
3231.8527	15577.75
3234.14133	15556.75
3236.42858	15498.89286
3238.71446	15500.46429
3240.99896	15432.03571
3243.28209	15375.75
3245.56384	15374.46429
3247.84423	15409.17857
3250.12324	15373.32143
3252.40088	15344.17857
3254.67715	15368.03571
3256.95205	15370.32143
3259.22558	15372.46429
3261.49775	15336.46429
3263.76855	15365.89286
3266.03799	15304.03571
3268.30606	15338.17857
3270.57277	15335.75
3272.83812	15281.46429
3275.10211	15259.60714
3277.36474	15261.17857
3279.62601	15268.60714
3281.88593	15237.75
3284.14448	15218.89286
3286.40168	15211.46429
3288.65753	15210.32143
3290.91202	15211.89286
3293.16516	15122.17857
3295.41695	15136.17857
3297.66738	15081.89286
3299.91647	15023.60714
3302.16421	14911.17857
3304.4106	14878.17857
3306.65564	14750.32143
3308.89933	14703.89286
3311.14169	14578.17857
3313.38269	14462.03571
3315.62236	14375.60714
3317.86068	14251.60714
3320.09766	14151.60714
3322.3333	14075.89286
3324.5676	14019.03571
3326.80056	13783.03571
3329.03219	13709.17857
3331.26248	3.46429
3333.49143	-1.82143
3335.71905	-0.53571
