Data from AgNPs_FTO_APTES_UA_20uM_CRN_100uM_R6G_10uM_NaF_0.1M_Addition_RamanShift__22__17-44-14-893.txt Node

Date: Thu Feb 17 17:44:14 GMT 2022
User: TCL
Spectrometer: QEP01345
Trigger mode: 4
Integration Time (sec): 1.000000E1
Scans to average: 7
Electric dark correction enabled: true
Nonlinearity correction enabled: false
Boxcar width: 0
XAxis mode: Raman Shifts
Number of Pixels in Spectrum: 1044
>>>>>Begin Spectral Data<<<<<
46.04893	1.17857
50.45542	-1.82143
54.85868	-0.67857
59.25871	-2.39286
63.6555	82.46429
68.04907	83.75
72.43941	92.17857
76.82654	91.32143
81.21044	99.32143
85.59113	104.60714
89.96862	101.60714
94.34289	103.03571
98.71396	114.17857
103.08183	114.46429
107.4465	117.32143
111.80798	113.32143
116.16626	120.89286
120.52136	123.17857
124.87327	133.32143
129.222	138.03571
133.56755	139.75
137.90993	156.32143
142.24913	169.60714
146.58517	187.89286
150.91804	214.17857
155.24774	256.46429
159.57429	314.89286
163.89768	400.32143
168.21792	543.89286
172.53501	737.60714
176.84895	1032.17857
181.15975	1459.46429
185.46741	2061.60714
189.77193	2843.60714
194.07331	3805.17857
198.37157	4953.17857
202.6667	6151.17857
206.9587	7398.17857
211.24758	8626.75
215.53334	9904.46429
219.81599	11338.46429
224.09553	12904.03571
228.37195	14693.03571
232.64527	16590.03571
236.91549	18520.32143
241.18261	20343.89286
245.44663	21860.89286
249.70755	23153.89286
253.96539	24315.17857
258.22014	25202.60714
262.4718	25895.17857
266.72039	26320.03571
270.96589	26353.32143
275.20832	26055.17857
279.44768	25484.89286
283.68397	24891.17857
287.91719	24410.46429
292.14735	24338.75
296.37445	24871.32143
300.59849	25931.03571
304.81948	27217.75
309.03742	28273.46429
313.25231	28393.03571
317.46415	27158.46429
321.67296	25199.03571
325.87872	23422.46429
330.08145	22646.46429
334.28114	22617.89286
338.47781	23070.60714
342.67145	23838.60714
346.86207	24879.03571
351.04966	26432.75
355.23424	28229.75
359.4158	29652.60714
363.59435	30266.17857
367.76989	30481.03571
371.94243	30385.89286
376.11196	30215.75
380.27849	30003.17857
384.44203	29640.32143
388.60257	29215.03571
392.76012	28908.60714
396.91468	29058.03571
401.06626	29623.32143
405.21485	30145.17857
409.36047	29597.46429
413.50311	28089.03571
417.64277	26561.32143
421.77947	25573.17857
425.9132	25171.89286
430.04396	25106.03571
434.17176	25252.32143
438.2966	25640.03571
442.41849	26318.17857
446.53742	27068.46429
450.6534	27853.03571
454.76644	28418.17857
458.87653	28488.03571
462.98368	28208.03571
467.08789	27743.60714
471.18916	27136.46429
475.2875	26502.17857
479.38291	25865.32143
483.4754	25371.75
487.56496	25064.32143
491.6516	24832.46429
495.73531	24669.03571
499.81612	24723.46429
503.89401	24991.46429
507.96899	25468.17857
512.04106	25919.75
516.11023	26499.17857
520.1765	26938.60714
524.23987	27004.17857
528.30034	26667.46429
532.35792	26293.46429
536.41261	25881.46429
540.46441	25347.17857
544.51333	25027.46429
548.55936	25037.17857
552.60252	25437.03571
556.64279	25926.17857
560.6802	26258.32143
564.71473	26670.46429
568.7464	27668.17857
572.7752	28196.32143
576.80114	27209.60714
580.82422	25978.75
584.84444	25457.03571
588.86181	25581.03571
592.87633	25969.60714
596.888	26531.46429
600.89682	27380.60714
604.9028	30487.32143
608.90594	39093.46429
612.90624	50785.46429
616.90371	49392.32143
620.89834	34961.17857
624.89015	27962.75
628.87913	26666.89286
632.86528	26877.17857
636.84862	27157.89286
640.82913	26714.03571
644.80683	25499.03571
648.78172	24617.89286
652.75379	24651.89286
656.72306	25609.60714
660.68952	26752.03571
664.65319	26571.03571
668.61405	25359.89286
672.57211	24798.17857
676.52738	24791.75
680.47986	24779.32143
684.42955	24578.89286
688.37646	24441.46429
692.32058	24491.60714
696.26192	24630.46429
700.20048	24957.32143
704.13626	25071.46429
708.06928	24917.32143
711.99952	24658.46429
715.927	24606.32143
719.85171	24771.60714
723.77365	24893.60714
727.69284	24828.60714
731.60928	24674.32143
735.52295	24689.46429
739.43388	24739.89286
743.34206	24865.17857
747.24749	24935.46429
751.15017	24961.03571
755.05012	25285.46429
758.94733	26353.46429
762.8418	29063.89286
766.73354	33721.32143
770.62254	38550.75
774.50882	41296.03571
778.39237	40142.75
782.27321	35090.46429
786.15132	29881.89286
790.02671	26766.03571
793.89938	25399.89286
797.76935	24913.32143
801.6366	24718.60714
805.50115	24626.89286
809.36299	24479.60714
813.22213	24411.89286
817.07857	24364.60714
820.93231	24370.17857
824.78336	24418.60714
828.63172	24591.17857
832.47738	24701.89286
836.32036	24661.32143
840.16066	24531.46429
843.99827	24489.17857
847.8332	24443.46429
851.66546	24364.75
855.49504	24407.03571
859.32195	24401.89286
863.1462	24387.03571
866.96777	24320.60714
870.78668	24317.17857
874.60293	24328.17857
878.41652	24418.03571
882.22745	24536.03571
886.03573	24647.75
889.84136	24674.32143
893.64433	24497.60714
897.44466	24448.89286
901.24235	24411.60714
905.0374	24269.89286
908.8298	24149.89286
912.61957	23998.32143
916.40671	24063.89286
920.19121	24177.75
923.97308	24461.60714
927.75233	24842.60714
931.52895	25294.32143
935.30295	25141.32143
939.07433	24521.03571
942.84309	23978.89286
946.60924	23592.75
950.37278	23359.89286
954.13371	23246.46429
957.89203	23084.32143
961.64774	23008.46429
965.40086	22920.46429
969.15137	22843.46429
972.89929	22807.75
976.64461	22840.03571
980.38733	22854.32143
984.12747	22938.46429
987.86502	23028.46429
991.59999	23333.17857
995.33237	23711.75
999.06217	24379.89286
1002.78939	25159.46429
1006.51404	25688.60714
1010.23611	26036.03571
1013.95561	26241.03571
1017.67255	26285.89286
1021.38692	26055.46429
1025.09872	25849.75
1028.80796	26021.03571
1032.51465	26609.32143
1036.21877	27266.03571
1039.92035	27427.60714
1043.61937	27144.46429
1047.31584	26584.32143
1051.00976	25928.60714
1054.70114	25342.60714
1058.38998	25160.03571
1062.07627	25083.89286
1065.76003	25003.03571
1069.44126	24993.17857
1073.11995	25094.60714
1076.79611	25464.46429
1080.46974	26002.60714
1084.14085	26805.03571
1087.80943	27432.17857
1091.47549	27616.60714
1095.13903	27138.46429
1098.80005	26287.32143
1102.45857	25769.89286
1106.11456	25657.32143
1109.76805	26050.60714
1113.41903	26794.75
1117.06751	27801.03571
1120.71348	29080.17857
1124.35696	30552.75
1127.99793	31397.75
1131.63641	30940.60714
1135.2724	29367.46429
1138.90589	28041.46429
1142.5369	27045.46429
1146.16542	26428.17857
1149.79145	26054.75
1153.415	25998.46429
1157.03607	26006.46429
1160.65467	26467.89286
1164.27079	27222.46429
1167.88443	28565.60714
1171.49561	30535.03571
1175.10432	33780.60714
1178.71056	38285.32143
1182.31434	42211.89286
1185.91565	43406.17857
1189.51451	42144.03571
1193.11091	39216.03571
1196.70485	36128.32143
1200.29634	34069.60714
1203.88538	32646.46429
1207.47197	30906.89286
1211.05612	29359.03571
1214.63782	28505.03571
1218.21708	28245.17857
1221.79391	28283.46429
1225.36829	28273.17857
1228.94024	28220.89286
1232.50976	27951.32143
1236.07685	27755.89286
1239.6415	27864.89286
1243.20374	28152.03571
1246.76355	28475.46429
1250.32093	28915.17857
1253.8759	29548.75
1257.42845	30497.46429
1260.97859	31402.17857
1264.52631	32302.75
1268.07163	33203.46429
1271.61453	33979.03571
1275.15503	34646.32143
1278.69312	35011.60714
1282.22882	35377.46429
1285.76211	36076.17857
1289.29301	37016.32143
1292.82151	38024.89286
1296.34761	39248.60714
1299.87133	41410.17857
1303.39266	45155.03571
1306.9116	50864.46429
1310.42815	56713.32143
1313.94233	58968.46429
1317.45412	56004.75
1320.96354	50735.60714
1324.47058	45556.60714
1327.97525	41544.89286
1331.47754	39288.32143
1334.97747	38671.75
1338.47502	39366.32143
1341.97022	41110.75
1345.46305	43446.89286
1348.95352	46340.17857
1352.44163	50169.75
1355.92738	56061.89286
1359.41078	64974.89286
1362.89183	72264.17857
1366.37053	68510.46429
1369.84688	56880.60714
1373.32088	46645.17857
1376.79254	40537.17857
1380.26186	37209.03571
1383.72883	35269.89286
1387.19347	33847.32143
1390.65578	32565.03571
1394.11575	31584.17857
1397.57339	31192.89286
1401.0287	31281.75
1404.48168	31541.75
1407.93234	31925.60714
1411.38068	32549.89286
1414.82669	32987.32143
1418.27039	33041.60714
1421.71177	32537.03571
1425.15083	32003.60714
1428.58758	31773.03571
1432.02203	32131.32143
1435.45416	32488.17857
1438.88399	32515.46429
1442.31151	32487.46429
1445.73673	32522.60714
1449.15965	32743.75
1452.58027	32627.03571
1455.9986	32221.17857
1459.41463	32029.32143
1462.82837	32282.46429
1466.23982	32977.32143
1469.64898	33717.75
1473.05586	34238.75
1476.46045	34665.75
1479.86276	35128.75
1483.26279	35944.46429
1486.66054	36919.46429
1490.05602	38171.32143
1493.44922	39928.32143
1496.84016	42435.03571
1500.22882	46445.17857
1503.61521	52392.75
1506.99934	59713.03571
1510.38121	65700.32143
1513.76081	66759.17857
1517.13816	61636.03571
1520.51324	53152.17857
1523.88607	45424.60714
1527.25665	40434.89286
1530.62498	37707.75
1533.99105	36060.17857
1537.35488	35203.17857
1540.71647	34832.17857
1544.07581	34817.89286
1547.4329	34988.46429
1550.78776	35202.75
1554.14038	35326.46429
1557.49077	35651.46429
1560.83892	36178.60714
1564.18484	37026.75
1567.52853	38077.32143
1570.86999	38842.89286
1574.20922	39223.46429
1577.54624	38838.17857
1580.88103	37021.46429
1584.2136	34723.46429
1587.54395	33597.32143
1590.87208	34152.17857
1594.19801	36262.89286
1597.52172	38908.89286
1600.84321	40250.60714
1604.16251	39228.46429
1607.47959	36860.32143
1610.79447	34160.03571
1614.10715	31594.03571
1617.41763	29699.60714
1620.7259	28535.17857
1624.03199	28063.89286
1627.33587	28230.03571
1630.63757	28995.03571
1633.93707	30371.46429
1637.23439	32393.89286
1640.52951	35334.60714
1643.82246	39608.75
1647.11321	44659.75
1650.40179	47911.60714
1653.68819	46025.89286
1656.97241	39880.89286
1660.25446	33564.17857
1663.53433	29392.17857
1666.81203	26966.17857
1670.08756	25595.46429
1673.36092	24723.60714
1676.63211	24166.32143
1679.90115	23746.03571
1683.16801	23441.32143
1686.43272	23261.89286
1689.69527	23135.89286
1692.95567	22973.03571
1696.2139	22918.32143
1699.46999	22927.03571
1702.72392	22888.32143
1705.97571	22791.46429
1709.22535	22831.46429
1712.47284	22791.60714
1715.71819	22802.75
1718.96139	22777.75
1722.20246	22702.32143
1725.44139	22644.46429
1728.67818	22471.60714
1731.91284	22372.89286
1735.14537	22267.75
1738.37576	22198.03571
1741.60403	22096.89286
1744.83017	22036.32143
1748.05418	21973.17857
1751.27607	21963.60714
1754.49584	21952.32143
1757.71349	21879.89286
1760.92903	21851.17857
1764.14244	21855.17857
1767.35375	21838.17857
1770.56294	21755.03571
1773.77002	21755.32143
1776.97499	21686.46429
1780.17785	21634.60714
1783.37861	21612.46429
1786.57727	21542.03571
1789.77382	21521.03571
1792.96828	21534.17857
1796.16064	21520.60714
1799.3509	21462.46429
1802.53907	21441.17857
1805.72514	21381.89286
1808.90913	21301.89286
1812.09102	21261.75
1815.27083	21255.32143
1818.44856	21200.89286
1821.6242	21138.32143
1824.79776	21111.03571
1827.96924	21100.03571
1831.13864	21038.32143
1834.30597	21076.60714
1837.47122	21036.75
1840.6344	21080.75
1843.7955	21044.17857
1846.95454	21028.17857
1850.11151	21038.03571
1853.26642	20993.89286
1856.41926	20968.46429
1859.57004	20938.32143
1862.71876	20939.75
1865.86542	20994.03571
1869.01003	20987.46429
1872.15258	21012.46429
1875.29308	20986.32143
1878.43152	20972.75
1881.56792	20990.89286
1884.70227	20964.46429
1887.83457	20902.46429
1890.96482	20906.60714
1894.09304	20903.17857
1897.21921	20873.17857
1900.34335	20898.75
1903.46544	20868.89286
1906.58551	20860.32143
1909.70353	20825.03571
1912.81953	20839.03571
1915.93349	20809.17857
1919.04543	20795.17857
1922.15534	20787.60714
1925.26322	20726.60714
1928.36908	20652.75
1931.47292	20689.17857
1934.57473	20589.75
1937.67453	20561.60714
1940.77232	20516.89286
1943.86808	20443.60714
1946.96184	20392.32143
1950.05358	20326.60714
1953.14331	20331.89286
1956.23103	20295.03571
1959.31675	20226.32143
1962.40046	20152.75
1965.48217	20088.03571
1968.56188	20085.32143
1971.63959	20054.32143
1974.7153	20050.17857
1977.78901	19958.89286
1980.86073	19837.03571
1983.93046	19815.17857
1986.99819	19750.75
1990.06394	19673.03571
1993.1277	19579.75
1996.18947	19560.75
1999.24925	19451.60714
2002.30706	19396.60714
2005.36288	19348.03571
2008.41672	19333.75
2011.46859	19276.60714
2014.51848	19247.32143
2017.56639	19150.46429
2020.61233	19100.89286
2023.6563	19075.03571
2026.6983	19084.75
2029.73833	19014.75
2032.7764	19008.46429
2035.8125	18984.17857
2038.84664	18894.03571
2041.87881	18876.89286
2044.90903	18835.60714
2047.93729	18855.03571
2050.96359	18872.75
2053.98794	18814.03571
2057.01034	18807.17857
2060.03078	18746.60714
2063.04927	18695.46429
2066.06582	18737.46429
2069.08042	18702.32143
2072.09307	18669.32143
2075.10378	18677.89286
2078.11255	18647.60714
2081.11938	18665.89286
2084.12426	18677.03571
2087.12722	18633.46429
2090.12824	18648.60714
2093.12732	18627.32143
2096.12447	18663.32143
2099.11969	18633.75
2102.11299	18645.03571
2105.10435	18676.32143
2108.09379	18695.89286
2111.08131	18732.75
2114.0669	18703.89286
2117.05057	18761.32143
2120.03233	18753.03571
2123.01216	18775.75
2125.99008	18805.17857
2128.96609	18852.17857
2131.94018	18836.32143
2134.91236	18834.32143
2137.88263	18844.60714
2140.851	18836.60714
2143.81746	18812.89286
2146.78201	18897.03571
2149.74466	18858.03571
2152.7054	18856.60714
2155.66425	18882.75
2158.6212	18820.89286
2161.57625	18799.17857
2164.52941	18800.75
2167.48067	18793.60714
2170.43004	18787.75
2173.37752	18838.60714
2176.32311	18832.17857
2179.26681	18828.75
2182.20863	18824.75
2185.14856	18863.03571
2188.08661	18824.75
2191.02278	18864.32143
2193.95707	18834.60714
2196.88948	18852.17857
2199.82001	18840.32143
2202.74867	18798.03571
2205.67545	18819.75
2208.60037	18802.03571
2211.52341	18795.03571
2214.44458	18715.75
2217.36388	18757.75
2220.28132	18729.17857
2223.1969	18689.60714
2226.11061	18671.03571
2229.02246	18604.17857
2231.93245	18586.03571
2234.84058	18523.17857
2237.74686	18469.17857
2240.65128	18458.75
2243.55385	18477.17857
2246.45456	18441.32143
2249.35343	18463.17857
2252.25044	18447.60714
2255.14561	18444.03571
2258.03893	18452.89286
2260.93041	18404.46429
2263.82004	18409.60714
2266.70783	18342.60714
2269.59378	18293.17857
2272.4779	18277.75
2275.36017	18234.75
2278.24061	18174.17857
2281.11922	18152.46429
2283.996	18140.89286
2286.87094	18101.17857
2289.74405	18113.46429
2292.61534	18074.46429
2295.4848	18076.89286
2298.35243	18056.03571
2301.21824	18025.89286
2304.08223	18037.03571
2306.94439	18062.46429
2309.80474	18082.03571
2312.66327	18105.17857
2315.51999	18069.46429
2318.37489	18098.46429
2321.22797	18062.32143
2324.07925	18053.46429
2326.92871	18016.03571
2329.77637	17994.60714
2332.62222	18002.32143
2335.46626	18019.75
2338.3085	18030.60714
2341.14893	18026.60714
2343.98756	18017.46429
2346.8244	17999.32143
2349.65943	18002.75
2352.49267	18007.75
2355.32411	18036.75
2358.15376	18035.17857
2360.98161	18010.46429
2363.80768	18063.03571
2366.63195	17997.03571
2369.45444	18003.17857
2372.27514	17996.32143
2375.09405	17927.17857
2377.91118	17878.89286
2380.72652	17833.60714
2383.54009	17768.89286
2386.35187	17730.32143
2389.16188	17704.32143
2391.97011	17613.75
2394.77657	17633.75
2397.58125	17566.75
2400.38416	17576.17857
2403.18529	17534.89286
2405.98466	17507.60714
2408.78226	17438.17857
2411.57809	17417.46429
2414.37216	17370.03571
2417.16446	17398.17857
2419.955	17322.46429
2422.74378	17338.89286
2425.5308	17305.60714
2428.31606	17294.89286
2431.09956	17321.32143
2433.88131	17338.32143
2436.6613	17290.17857
2439.43954	17305.46429
2442.21603	17308.17857
2444.99077	17309.03571
2447.76377	17337.17857
2450.53501	17315.75
2453.30451	17319.89286
2456.07226	17286.60714
2458.83827	17266.17857
2461.60254	17242.32143
2464.36507	17216.17857
2467.12586	17227.89286
2469.88492	17214.60714
2472.64224	17190.89286
2475.39782	17224.17857
2478.15167	17276.60714
2480.90379	17308.46429
2483.65417	17341.32143
2486.40283	17373.17857
2489.14976	17420.60714
2491.89497	17405.17857
2494.63845	17433.89286
2497.3802	17435.32143
2500.12024	17405.17857
2502.85855	17368.17857
2505.59514	17341.32143
2508.33002	17270.75
2511.06318	17209.32143
2513.79462	17152.03571
2516.52435	17141.32143
2519.25237	17084.89286
2521.97867	17091.17857
2524.70327	17057.75
2527.42616	16998.17857
2530.14734	17018.32143
2532.86681	16966.32143
2535.58458	16974.60714
2538.30065	16975.75
2541.01501	16968.75
2543.72768	16916.75
2546.43864	16970.32143
2549.14791	16960.89286
2551.85548	16929.17857
2554.56136	16915.17857
2557.26554	16901.75
2559.96803	16880.03571
2562.66883	16853.03571
2565.36794	16817.17857
2568.06536	16826.46429
2570.7611	16827.60714
2573.45514	16745.32143
2576.14751	16747.32143
2578.83819	16754.60714
2581.52719	16713.89286
2584.21451	16703.75
2586.90015	16646.32143
2589.58411	16643.46429
2592.2664	16650.60714
2594.94701	16653.17857
2597.62594	16661.17857
2600.30321	16604.89286
2602.9788	16596.46429
2605.65273	16593.17857
2608.32498	16612.89286
2610.99557	16596.03571
2613.66449	16614.75
2616.33175	16588.32143
2618.99734	16614.75
2621.66128	16617.03571
2624.32355	16574.89286
2626.98416	16582.32143
2629.64311	16549.46429
2632.30041	16551.03571
2634.95605	16527.46429
2637.61004	16501.17857
2640.26238	16483.75
2642.91306	16438.89286
2645.56209	16450.03571
2648.20948	16421.03571
2650.85521	16416.03571
2653.4993	16389.60714
2656.14175	16368.46429
2658.78255	16427.89286
2661.42171	16437.60714
2664.05923	16447.89286
2666.6951	16471.60714
2669.32934	16445.17857
2671.96194	16465.46429
2674.59291	16486.60714
2677.22224	16448.75
2679.84993	16465.32143
2682.476	16464.75
2685.10043	16466.75
2687.72324	16409.89286
2690.34441	16413.89286
2692.96396	16412.17857
2695.58188	16415.46429
2698.19818	16384.03571
2700.81285	16409.89286
2703.4259	16353.60714
2706.03733	16397.17857
2708.64714	16421.46429
2711.25533	16399.17857
2713.86191	16407.60714
2716.46687	16442.17857
2719.07021	16414.03571
2721.67194	16461.17857
2724.27206	16422.46429
2726.87057	16494.32143
2729.46747	16447.46429
2732.06276	16430.32143
2734.65644	16443.17857
2737.24852	16431.46429
2739.83899	16368.32143
2742.42786	16407.17857
2745.01513	16357.46429
2747.60079	16356.03571
2750.18486	16324.75
2752.76733	16306.03571
2755.3482	16302.46429
2757.92747	16308.60714
2760.50515	16328.17857
2763.08123	16330.32143
2765.65573	16256.89286
2768.22863	16239.03571
2770.79994	16226.03571
2773.36967	16240.32143
2775.9378	16218.46429
2778.50435	16232.60714
2781.06932	16243.89286
2783.6327	16216.60714
2786.1945	16203.89286
2788.75471	16172.60714
2791.31335	16149.32143
2793.87041	16152.60714
2796.42589	16119.32143
2798.97979	16130.89286
2801.53212	16099.60714
2804.08288	16106.89286
2806.63206	16067.17857
2809.17967	16090.46429
2811.72571	16039.03571
2814.27018	16049.17857
2816.81308	16044.32143
2819.35442	16021.46429
2821.89419	16007.32143
2824.43239	15986.46429
2826.96904	16009.89286
2829.50412	16005.89286
2832.03763	15985.03571
2834.56959	15983.60714
2837.1	15967.32143
2839.62884	15994.46429
2842.15613	15917.75
2844.68186	15972.17857
2847.20604	15919.89286
2849.72867	15954.17857
2852.24974	15947.89286
2854.76927	15948.03571
2857.28724	15956.89286
2859.80367	15940.32143
2862.31855	15923.32143
2864.83189	15938.60714
2867.34368	15930.17857
2869.85393	15916.03571
2872.36264	15917.32143
2874.8698	15966.17857
2877.37543	15927.46429
2879.87952	15890.60714
2882.38207	15886.03571
2884.88308	15881.60714
2887.38256	15895.17857
2889.88051	15911.46429
2892.37692	15901.60714
2894.8718	15883.75
2897.36515	15913.03571
2899.85698	15897.46429
2902.34727	15925.03571
2904.83604	15937.75
2907.32328	15975.03571
2909.809	15923.75
2912.29319	15957.46429
2914.77587	15968.17857
2917.25702	15932.89286
2919.73665	15934.60714
2922.21476	15908.17857
2924.69136	15911.75
2927.16644	15901.46429
2929.64	15859.32143
2932.11205	15863.60714
2934.58258	15775.60714
2937.05161	15820.89286
2939.51912	15766.03571
2941.98513	15778.32143
2944.44962	15769.75
2946.91261	15699.03571
2949.37409	15745.17857
2951.83407	15720.03571
2954.29254	15716.75
2956.74951	15699.17857
2959.20498	15716.60714
2961.65895	15688.75
2964.11142	15645.03571
2966.56239	15615.03571
2969.01186	15625.60714
2971.45984	15583.32143
2973.90632	15572.89286
2976.35131	15512.17857
2978.7948	15495.60714
2981.23681	15467.46429
2983.67732	15466.60714
2986.11635	15410.03571
2988.55388	15380.89286
2990.98993	15348.32143
2993.4245	15344.17857
2995.85758	15340.75
2998.28917	15333.46429
3000.71928	15268.89286
3003.14791	15268.03571
3005.57506	15282.32143
3008.00073	15203.89286
3010.42493	15224.60714
3012.84764	15196.17857
3015.26888	15182.60714
3017.68865	15150.32143
3020.10694	15154.75
3022.52376	15133.46429
3024.9391	15105.46429
3027.35298	15071.46429
3029.76539	15059.17857
3032.17632	15027.89286
3034.5858	14992.75
3036.9938	14962.32143
3039.40034	14940.75
3041.80542	14953.03571
3044.20903	14919.03571
3046.61118	14907.89286
3049.01187	14881.75
3051.4111	14871.75
3053.80888	14851.17857
3056.20519	14784.32143
3058.60005	14776.17857
3060.99345	14752.46429
3063.3854	14711.60714
3065.7759	14664.89286
3068.16494	14638.60714
3070.55254	14626.17857
3072.93868	14569.75
3075.32338	14533.03571
3077.70662	14530.46429
3080.08842	14480.46429
3082.46878	14466.32143
3084.84769	14425.75
3087.22515	14419.89286
3089.60118	14434.46429
3091.97576	14457.60714
3094.3489	14426.60714
3096.72061	14462.60714
3099.09087	14397.03571
3101.4597	14405.89286
3103.82709	14377.75
3106.19305	14411.32143
3108.55757	14429.03571
3110.92066	14355.75
3113.28232	14361.17857
3115.64255	14323.32143
3118.00134	14316.32143
3120.35871	14291.89286
3122.71466	14238.03571
3125.06917	14230.03571
3127.42226	14206.17857
3129.77393	14228.60714
3132.12417	14191.32143
3134.47299	14184.46429
3136.82039	14185.60714
3139.16636	14209.32143
3141.51092	14152.03571
3143.85406	14209.46429
3146.19579	14223.89286
3148.53609	14223.17857
3150.87499	14223.03571
3153.21246	14248.17857
3155.54853	14269.03571
3157.88318	14253.60714
3160.21642	14274.17857
3162.54826	14271.17857
3164.87868	14264.32143
3167.2077	14238.46429
3169.5353	14252.60714
3171.86151	14258.75
3174.18631	14263.46429
3176.5097	14246.46429
3178.83169	14199.32143
3181.15228	14260.75
3183.47147	14199.03571
3185.78926	14212.17857
3188.10565	14209.75
3190.42065	14209.17857
3192.73424	14215.46429
3195.04645	14183.60714
3197.35725	14185.32143
3199.66667	14189.32143
3201.97469	14214.89286
3204.28132	14197.46429
3206.58656	14260.46429
3208.8904	14277.75
3211.19287	14287.46429
3213.49394	14315.03571
3215.79363	14251.32143
3218.09193	14274.89286
3220.38884	14330.32143
3222.68438	14330.89286
3224.97853	14333.46429
3227.2713	14318.03571
3229.56269	14296.46429
3231.8527	14304.89286
3234.14133	14267.17857
3236.42858	14253.89286
3238.71446	14223.32143
3240.99896	14195.46429
3243.28209	14144.60714
3245.56384	14133.75
3247.84423	14173.75
3250.12324	14169.46429
3252.40088	14163.17857
3254.67715	14141.32143
3256.95205	14155.75
3259.22558	14174.46429
3261.49775	14157.32143
3263.76855	14133.60714
3266.03799	14138.89286
3268.30606	14145.60714
3270.57277	14079.46429
3272.83812	14062.75
3275.10211	14038.32143
3277.36474	14015.03571
3279.62601	14014.46429
3281.88593	14009.89286
3284.14448	14007.46429
3286.40168	14005.46429
3288.65753	13996.89286
3290.91202	14008.46429
3293.16516	13994.60714
3295.41695	13945.75
3297.66738	13895.32143
3299.91647	13812.17857
3302.16421	13771.17857
3304.4106	13691.46429
3306.65564	13598.75
3308.89933	13515.17857
3311.14169	13403.32143
3313.38269	13297.75
3315.62236	13213.60714
3317.86068	13118.17857
3320.09766	13013.75
3322.3333	12960.17857
3324.5676	12915.60714
3326.80056	12698.46429
3329.03219	12642.17857
3331.26248	2.32143
3333.49143	0.03571
3335.71905	0.89286
