Data from AgNPs_FTO_APTES_UA_20uM_CRN_100uM_R6G_10uM_NaF_0.1M_Addition_RamanShift__26__17-48-54-898.txt Node

Date: Thu Feb 17 17:48:54 GMT 2022
User: TCL
Spectrometer: QEP01345
Trigger mode: 4
Integration Time (sec): 1.000000E1
Scans to average: 7
Electric dark correction enabled: true
Nonlinearity correction enabled: false
Boxcar width: 0
XAxis mode: Raman Shifts
Number of Pixels in Spectrum: 1044
>>>>>Begin Spectral Data<<<<<
46.04893	-1.23214
50.45542	-2.08929
54.85868	-0.94643
59.25871	-0.08929
63.6555	59.625
68.04907	63.05357
72.43941	62.19643
76.82654	70.625
81.21044	76.76786
85.59113	74.05357
89.96862	80.76786
94.34289	81.625
98.71396	87.76786
103.08183	84.625
107.4465	93.625
111.80798	86.33929
116.16626	88.48214
120.52136	93.48214
124.87327	95.625
129.222	101.625
133.56755	100.05357
137.90993	110.19643
142.24913	117.19643
146.58517	129.76786
150.91804	145.48214
155.24774	174.625
159.57429	209.91071
163.89768	270.48214
168.21792	357.05357
172.53501	477.33929
176.84895	662.19643
181.15975	931.19643
185.46741	1298.76786
189.77193	1802.48214
194.07331	2406.76786
198.37157	3122.76786
202.6667	3896.76786
206.9587	4632.05357
211.24758	5416.91071
215.53334	6251.76786
219.81599	7163.625
224.09553	8235.76786
228.37195	9405.625
232.64527	10692.91071
236.91549	11982.48214
241.18261	13134.91071
245.44663	14050.76786
249.70755	14788.76786
253.96539	15326.91071
258.22014	15754.76786
262.4718	16043.48214
266.72039	16178.625
270.96589	16162.625
275.20832	15949.76786
279.44768	15519.33929
283.68397	15117.19643
287.91719	14854.48214
292.14735	14934.33929
296.37445	15456.19643
300.59849	16432.33929
304.81948	17663.76786
309.03742	18658.33929
313.25231	18802.91071
317.46415	17805.33929
321.67296	16028.05357
325.87872	14464.33929
330.08145	13733.91071
334.28114	13713.625
338.47781	14046.76786
342.67145	14596.76786
346.86207	15517.48214
351.04966	16846.48214
355.23424	18408.19643
359.4158	19586.33929
363.59435	20084.05357
367.76989	20146.625
371.94243	20065.625
376.11196	19831.19643
380.27849	19622.625
384.44203	19238.19643
388.60257	18730.33929
392.76012	18401.05357
396.91468	18384.76786
401.06626	18907.05357
405.21485	19300.19643
409.36047	18775.33929
413.50311	17361.05357
417.64277	15908.625
421.77947	15080.91071
425.9132	14733.91071
430.04396	14600.76786
434.17176	14718.625
438.2966	15032.625
442.41849	15523.33929
446.53742	16122.33929
450.6534	16593.76786
454.76644	16914.48214
458.87653	16862.625
462.98368	16585.76786
467.08789	16172.33929
471.18916	15680.76786
475.2875	15102.05357
479.38291	14653.05357
483.4754	14286.48214
487.56496	14070.05357
491.6516	13970.33929
495.73531	13923.48214
499.81612	13979.33929
503.89401	14212.19643
507.96899	14598.19643
512.04106	15071.76786
516.11023	15585.76786
520.1765	15986.33929
524.23987	15983.33929
528.30034	15646.19643
532.35792	15212.48214
536.41261	14802.76786
540.46441	14310.625
544.51333	13998.76786
548.55936	13997.91071
552.60252	14339.625
556.64279	14727.19643
560.6802	14988.91071
564.71473	15317.48214
568.7464	16259.33929
572.7752	16785.625
576.80114	15910.05357
580.82422	14793.76786
584.84444	14253.625
588.86181	14215.19643
592.87633	14414.19643
596.888	14707.625
600.89682	15452.625
604.9028	18032.625
608.90594	25398.76786
612.90624	35885.05357
616.90371	35132.91071
620.89834	22468.91071
624.89015	16211.19643
628.87913	14981.76786
632.86528	15142.19643
636.84862	15584.91071
640.82913	15299.48214
644.80683	14319.48214
648.78172	13647.19643
652.75379	13703.625
656.72306	14573.76786
660.68952	15600.625
664.65319	15372.625
668.61405	14160.625
672.57211	13625.625
676.52738	13593.05357
680.47986	13572.625
684.42955	13422.48214
688.37646	13298.33929
692.32058	13364.48214
696.26192	13511.48214
700.20048	13754.19643
704.13626	13901.19643
708.06928	13804.48214
711.99952	13608.625
715.927	13611.33929
719.85171	13774.48214
723.77365	13837.19643
727.69284	13744.05357
731.60928	13635.19643
735.52295	13603.33929
739.43388	13671.91071
743.34206	13723.19643
747.24749	13789.05357
751.15017	13828.76786
755.05012	14115.76786
758.94733	15065.625
762.8418	17343.33929
766.73354	21219.76786
770.62254	25285.48214
774.50882	27921.05357
778.39237	27406.76786
782.27321	23058.76786
786.15132	18378.19643
790.02671	15613.33929
793.89938	14437.05357
797.76935	13999.48214
801.6366	13804.91071
805.50115	13754.48214
809.36299	13632.05357
813.22213	13591.76786
817.07857	13550.19643
820.93231	13551.48214
824.78336	13596.33929
828.63172	13705.91071
832.47738	13745.33929
836.32036	13666.76786
840.16066	13518.33929
843.99827	13416.76786
847.8332	13389.91071
851.66546	13407.76786
855.49504	13433.19643
859.32195	13400.48214
863.1462	13356.625
866.96777	13311.19643
870.78668	13348.48214
874.60293	13404.625
878.41652	13476.19643
882.22745	13623.91071
886.03573	13725.48214
889.84136	13674.33929
893.64433	13600.33929
897.44466	13563.33929
901.24235	13559.33929
905.0374	13522.05357
908.8298	13365.76786
912.61957	13229.76786
916.40671	13223.91071
920.19121	13299.19643
923.97308	13431.91071
927.75233	13703.91071
931.52895	14014.48214
935.30295	13921.48214
939.07433	13415.33929
942.84309	12952.33929
946.60924	12708.91071
950.37278	12556.19643
954.13371	12508.19643
957.89203	12437.05357
961.64774	12417.05357
965.40086	12382.76786
969.15137	12335.91071
972.89929	12291.625
976.64461	12344.48214
980.38733	12309.91071
984.12747	12351.76786
987.86502	12401.76786
991.59999	12481.625
995.33237	12649.33929
999.06217	12914.625
1002.78939	13240.33929
1006.51404	13625.91071
1010.23611	13903.33929
1013.95561	14139.625
1017.67255	14115.91071
1021.38692	13918.05357
1025.09872	13690.33929
1028.80796	13542.19643
1032.51465	13609.48214
1036.21877	13797.33929
1039.92035	13906.625
1043.61937	13939.19643
1047.31584	13897.48214
1051.00976	13800.76786
1054.70114	13673.48214
1058.38998	13599.76786
1062.07627	13590.625
1065.76003	13626.05357
1069.44126	13646.625
1073.11995	13752.76786
1076.79611	14060.05357
1080.46974	14558.91071
1084.14085	15174.05357
1087.80943	15743.48214
1091.47549	15925.91071
1095.13903	15510.48214
1098.80005	14761.48214
1102.45857	14302.625
1106.11456	14197.76786
1109.76805	14487.05357
1113.41903	15074.91071
1117.06751	15947.33929
1120.71348	17120.48214
1124.35696	18404.05357
1127.99793	19220.625
1131.63641	18721.91071
1135.2724	17318.05357
1138.90589	16048.91071
1142.5369	15308.48214
1146.16542	14821.91071
1149.79145	14502.48214
1153.415	14418.33929
1157.03607	14520.625
1160.65467	14819.625
1164.27079	15431.625
1167.88443	16369.91071
1171.49561	17965.91071
1175.10432	20693.05357
1178.71056	24401.91071
1182.31434	27245.19643
1185.91565	27908.05357
1189.51451	26693.625
1193.11091	24499.05357
1196.70485	22156.33929
1200.29634	20606.76786
1203.88538	19398.625
1207.47197	17878.05357
1211.05612	16568.625
1214.63782	15799.19643
1218.21708	15521.05357
1221.79391	15389.05357
1225.36829	15419.05357
1228.94024	15413.48214
1232.50976	15387.91071
1236.07685	15452.19643
1239.6415	15613.48214
1243.20374	15795.05357
1246.76355	15998.91071
1250.32093	16231.91071
1253.8759	16595.76786
1257.42845	17180.33929
1260.97859	17895.48214
1264.52631	18562.33929
1268.07163	19201.48214
1271.61453	19696.05357
1275.15503	19942.625
1278.69312	19971.19643
1282.22882	20009.48214
1285.76211	20534.48214
1289.29301	21361.48214
1292.82151	22142.48214
1296.34761	23021.76786
1299.87133	24535.625
1303.39266	27260.33929
1306.9116	31489.625
1310.42815	35955.19643
1313.94233	37650.33929
1317.45412	35432.19643
1320.96354	31330.33929
1324.47058	27355.48214
1327.97525	24291.91071
1331.47754	22643.625
1334.97747	22279.33929
1338.47502	22892.05357
1341.97022	24287.05357
1345.46305	26359.33929
1348.95352	29084.91071
1352.44163	32556.05357
1355.92738	37647.91071
1359.41078	44783.33929
1362.89183	50242.05357
1366.37053	47050.91071
1369.84688	38284.91071
1373.32088	30525.625
1376.79254	25593.19643
1380.26186	22820.05357
1383.72883	21203.625
1387.19347	19933.48214
1390.65578	18782.05357
1394.11575	17857.33929
1397.57339	17416.19643
1401.0287	17381.19643
1404.48168	17454.05357
1407.93234	17759.33929
1411.38068	18150.33929
1414.82669	18509.48214
1418.27039	18543.19643
1421.71177	18300.48214
1425.15083	18035.48214
1428.58758	17997.33929
1432.02203	18255.05357
1435.45416	18483.05357
1438.88399	18491.91071
1442.31151	18438.05357
1445.73673	18470.91071
1449.15965	18508.91071
1452.58027	18373.91071
1455.9986	17992.76786
1459.41463	17892.91071
1462.82837	18101.19643
1466.23982	18531.19643
1469.64898	19031.76786
1473.05586	19392.48214
1476.46045	19714.91071
1479.86276	20208.33929
1483.26279	20956.625
1486.66054	21758.76786
1490.05602	22927.48214
1493.44922	24477.48214
1496.84016	26886.19643
1500.22882	30684.91071
1503.61521	36006.05357
1506.99934	41894.33929
1510.38121	46787.05357
1513.76081	47747.625
1517.13816	43474.05357
1520.51324	36167.05357
1523.88607	29545.91071
1527.25665	25375.91071
1530.62498	23097.48214
1533.99105	21850.48214
1537.35488	21135.19643
1540.71647	20817.33929
1544.07581	20894.33929
1547.4329	21049.48214
1550.78776	21191.19643
1554.14038	21240.625
1557.49077	21362.19643
1560.83892	21752.91071
1564.18484	22597.33929
1567.52853	23618.33929
1570.86999	24553.91071
1574.20922	25024.48214
1577.54624	24703.91071
1580.88103	23012.05357
1584.2136	20774.76786
1587.54395	19461.48214
1590.87208	19418.76786
1594.19801	20582.76786
1597.52172	22342.48214
1600.84321	23358.33929
1604.16251	22752.48214
1607.47959	21372.33929
1610.79447	19679.76786
1614.10715	17994.91071
1617.41763	16766.625
1620.7259	16000.625
1624.03199	15655.625
1627.33587	15730.625
1630.63757	16135.91071
1633.93707	16926.19643
1637.23439	18311.48214
1640.52951	20497.76786
1643.82246	23727.19643
1647.11321	27786.19643
1650.40179	30657.33929
1653.68819	29689.19643
1656.97241	25221.625
1660.25446	20509.05357
1663.53433	17295.91071
1666.81203	15494.91071
1670.08756	14482.19643
1673.36092	13826.76786
1676.63211	13427.76786
1679.90115	13133.625
1683.16801	12930.91071
1686.43272	12799.05357
1689.69527	12660.76786
1692.95567	12547.05357
1696.2139	12524.76786
1699.46999	12490.33929
1702.72392	12473.625
1705.97571	12469.05357
1709.22535	12460.91071
1712.47284	12462.05357
1715.71819	12466.48214
1718.96139	12477.33929
1722.20246	12426.05357
1725.44139	12350.05357
1728.67818	12269.33929
1731.91284	12130.05357
1735.14537	12082.05357
1738.37576	12007.625
1741.60403	11948.33929
1744.83017	11900.48214
1748.05418	11858.48214
1751.27607	11829.76786
1754.49584	11802.05357
1757.71349	11802.625
1760.92903	11787.91071
1764.14244	11729.91071
1767.35375	11708.48214
1770.56294	11692.48214
1773.77002	11634.91071
1776.97499	11580.19643
1780.17785	11542.05357
1783.37861	11509.48214
1786.57727	11505.625
1789.77382	11483.19643
1792.96828	11436.625
1796.16064	11427.76786
1799.3509	11403.33929
1802.53907	11400.48214
1805.72514	11367.19643
1808.90913	11361.91071
1812.09102	11293.19643
1815.27083	11255.91071
1818.44856	11227.76786
1821.6242	11249.91071
1824.79776	11210.33929
1827.96924	11161.05357
1831.13864	11148.91071
1834.30597	11152.33929
1837.47122	11133.625
1840.6344	11135.33929
1843.7955	11119.76786
1846.95454	11084.625
1850.11151	11113.05357
1853.26642	11092.05357
1856.41926	11068.91071
1859.57004	11057.48214
1862.71876	11068.48214
1865.86542	11098.48214
1869.01003	11088.33929
1872.15258	11102.625
1875.29308	11097.19643
1878.43152	11078.91071
1881.56792	11096.19643
1884.70227	11061.625
1887.83457	11088.33929
1890.96482	11030.19643
1894.09304	11030.33929
1897.21921	11022.05357
1900.34335	11012.19643
1903.46544	11006.625
1906.58551	10991.625
1909.70353	10972.91071
1912.81953	10973.48214
1915.93349	10959.91071
1919.04543	10951.91071
1922.15534	10940.625
1925.26322	10922.48214
1928.36908	10893.625
1931.47292	10875.91071
1934.57473	10845.625
1937.67453	10765.76786
1940.77232	10775.05357
1943.86808	10740.33929
1946.96184	10692.33929
1950.05358	10682.91071
1953.14331	10652.05357
1956.23103	10627.76786
1959.31675	10616.625
1962.40046	10600.19643
1965.48217	10559.625
1968.56188	10543.48214
1971.63959	10526.33929
1974.7153	10500.48214
1977.78901	10467.91071
1980.86073	10433.33929
1983.93046	10382.91071
1986.99819	10336.05357
1990.06394	10288.76786
1993.1277	10280.76786
1996.18947	10209.48214
1999.24925	10157.33929
2002.30706	10161.76786
2005.36288	10131.91071
2008.41672	10088.91071
2011.46859	10047.91071
2014.51848	10029.33929
2017.56639	9998.91071
2020.61233	9985.05357
2023.6563	9953.19643
2026.6983	9922.05357
2029.73833	9924.33929
2032.7764	9894.33929
2035.8125	9878.76786
2038.84664	9848.05357
2041.87881	9825.625
2044.90903	9802.05357
2047.93729	9796.48214
2050.96359	9776.91071
2053.98794	9775.48214
2057.01034	9770.91071
2060.03078	9725.625
2063.04927	9727.76786
2066.06582	9727.19643
2069.08042	9688.91071
2072.09307	9681.05357
2075.10378	9690.76786
2078.11255	9661.76786
2081.11938	9686.48214
2084.12426	9659.19643
2087.12722	9670.625
2090.12824	9669.19643
2093.12732	9691.33929
2096.12447	9670.48214
2099.11969	9662.91071
2102.11299	9666.33929
2105.10435	9683.76786
2108.09379	9698.91071
2111.08131	9697.76786
2114.0669	9681.625
2117.05057	9701.48214
2120.03233	9711.33929
2123.01216	9720.48214
2125.99008	9757.76786
2128.96609	9760.19643
2131.94018	9761.76786
2134.91236	9781.48214
2137.88263	9723.625
2140.851	9741.19643
2143.81746	9765.05357
2146.78201	9738.76786
2149.74466	9737.48214
2152.7054	9726.05357
2155.66425	9727.05357
2158.6212	9724.625
2161.57625	9702.48214
2164.52941	9694.625
2167.48067	9684.05357
2170.43004	9674.05357
2173.37752	9701.19643
2176.32311	9701.76786
2179.26681	9670.19643
2182.20863	9694.48214
2185.14856	9695.625
2188.08661	9686.33929
2191.02278	9685.76786
2193.95707	9690.91071
2196.88948	9658.91071
2199.82001	9661.33929
2202.74867	9634.76786
2205.67545	9651.625
2208.60037	9599.625
2211.52341	9627.48214
2214.44458	9584.48214
2217.36388	9585.91071
2220.28132	9576.625
2223.1969	9527.33929
2226.11061	9517.625
2229.02246	9502.48214
2231.93245	9484.05357
2234.84058	9432.76786
2237.74686	9429.91071
2240.65128	9421.05357
2243.55385	9412.05357
2246.45456	9428.19643
2249.35343	9418.33929
2252.25044	9408.33929
2255.14561	9397.19643
2258.03893	9413.33929
2260.93041	9405.76786
2263.82004	9397.625
2266.70783	9382.625
2269.59378	9358.91071
2272.4779	9311.76786
2275.36017	9307.625
2278.24061	9290.76786
2281.11922	9280.33929
2283.996	9245.76786
2286.87094	9240.05357
2289.74405	9195.33929
2292.61534	9213.33929
2295.4848	9183.19643
2298.35243	9178.91071
2301.21824	9144.33929
2304.08223	9150.625
2306.94439	9138.91071
2309.80474	9130.91071
2312.66327	9146.91071
2315.51999	9136.19643
2318.37489	9140.19643
2321.22797	9100.76786
2324.07925	9109.76786
2326.92871	9085.625
2329.77637	9058.48214
2332.62222	9046.33929
2335.46626	9057.48214
2338.3085	9043.19643
2341.14893	9055.625
2343.98756	9048.33929
2346.8244	9046.19643
2349.65943	9057.33929
2352.49267	9090.33929
2355.32411	9076.625
2358.15376	9114.19643
2360.98161	9102.625
2363.80768	9125.19643
2366.63195	9124.48214
2369.45444	9125.625
2372.27514	9117.19643
2375.09405	9090.05357
2377.91118	9083.91071
2380.72652	9033.48214
2383.54009	8992.76786
2386.35187	8971.76786
2389.16188	8922.48214
2391.97011	8891.625
2394.77657	8870.33929
2397.58125	8846.48214
2400.38416	8811.625
2403.18529	8816.05357
2405.98466	8786.48214
2408.78226	8751.91071
2411.57809	8747.19643
2414.37216	8715.48214
2417.16446	8723.33929
2419.955	8700.48214
2422.74378	8688.33929
2425.5308	8696.76786
2428.31606	8705.76786
2431.09956	8695.05357
2433.88131	8705.91071
2436.6613	8676.19643
2439.43954	8711.05357
2442.21603	8716.91071
2444.99077	8686.05357
2447.76377	8704.33929
2450.53501	8711.05357
2453.30451	8706.05357
2456.07226	8684.91071
2458.83827	8682.76786
2461.60254	8664.05357
2464.36507	8654.48214
2467.12586	8647.48214
2469.88492	8614.91071
2472.64224	8635.33929
2475.39782	8661.625
2478.15167	8679.625
2480.90379	8712.33929
2483.65417	8735.33929
2486.40283	8748.33929
2489.14976	8770.625
2491.89497	8760.76786
2494.63845	8770.48214
2497.3802	8773.33929
2500.12024	8760.33929
2502.85855	8724.33929
2505.59514	8693.48214
2508.33002	8629.05357
2511.06318	8591.19643
2513.79462	8556.91071
2516.52435	8527.19643
2519.25237	8465.33929
2521.97867	8449.48214
2524.70327	8452.48214
2527.42616	8440.625
2530.14734	8419.05357
2532.86681	8392.625
2535.58458	8401.05357
2538.30065	8409.19643
2541.01501	8405.33929
2543.72768	8410.05357
2546.43864	8407.05357
2549.14791	8412.91071
2551.85548	8388.05357
2554.56136	8375.91071
2557.26554	8370.76786
2559.96803	8351.76786
2562.66883	8367.76786
2565.36794	8326.19643
2568.06536	8345.625
2570.7611	8302.91071
2573.45514	8278.76786
2576.14751	8301.33929
2578.83819	8233.05357
2581.52719	8240.19643
2584.21451	8228.625
2586.90015	8211.19643
2589.58411	8191.19643
2592.2664	8189.33929
2594.94701	8164.91071
2597.62594	8154.05357
2600.30321	8170.19643
2602.9788	8156.91071
2605.65273	8152.76786
2608.32498	8155.76786
2610.99557	8156.05357
2613.66449	8147.48214
2616.33175	8126.33929
2618.99734	8176.33929
2621.66128	8141.91071
2624.32355	8122.91071
2626.98416	8100.625
2629.64311	8106.625
2632.30041	8082.76786
2634.95605	8082.625
2637.61004	8043.33929
2640.26238	8039.76786
2642.91306	8006.05357
2645.56209	8033.19643
2648.20948	8032.05357
2650.85521	7991.625
2653.4993	8012.76786
2656.14175	8000.91071
2658.78255	8008.48214
2661.42171	8011.91071
2664.05923	8043.48214
2666.6951	8061.05357
2669.32934	8037.625
2671.96194	8048.33929
2674.59291	8067.33929
2677.22224	8071.05357
2679.84993	8075.76786
2682.476	8056.91071
2685.10043	8047.33929
2687.72324	8043.625
2690.34441	8040.19643
2692.96396	8040.19643
2695.58188	8038.05357
2698.19818	8021.91071
2700.81285	8032.91071
2703.4259	8019.48214
2706.03733	8057.33929
2708.64714	8043.76786
2711.25533	8063.76786
2713.86191	8065.33929
2716.46687	8078.48214
2719.07021	8091.48214
2721.67194	8085.33929
2724.27206	8058.91071
2726.87057	8086.625
2729.46747	8111.05357
2732.06276	8052.76786
2734.65644	8040.625
2737.24852	8035.91071
2739.83899	8016.48214
2742.42786	8008.48214
2745.01513	7994.05357
2747.60079	7992.48214
2750.18486	7973.76786
2752.76733	7971.19643
2755.3482	7964.76786
2757.92747	7951.76786
2760.50515	7937.76786
2763.08123	7945.05357
2765.65573	7906.76786
2768.22863	7915.33929
2770.79994	7915.19643
2773.36967	7901.19643
2775.9378	7904.05357
2778.50435	7893.19643
2781.06932	7854.76786
2783.6327	7894.05357
2786.1945	7863.76786
2788.75471	7880.76786
2791.31335	7860.48214
2793.87041	7878.91071
2796.42589	7849.76786
2798.97979	7871.91071
2801.53212	7833.05357
2804.08288	7848.76786
2806.63206	7844.33929
2809.17967	7839.91071
2811.72571	7833.05357
2814.27018	7866.19643
2816.81308	7844.625
2819.35442	7845.76786
2821.89419	7834.05357
2824.43239	7846.48214
2826.96904	7846.33929
2829.50412	7851.33929
2832.03763	7836.76786
2834.56959	7877.05357
2837.1	7846.48214
2839.62884	7867.33929
2842.15613	7868.91071
2844.68186	7919.91071
2847.20604	7939.625
2849.72867	7970.91071
2852.24974	7982.19643
2854.76927	7993.76786
2857.28724	7974.33929
2859.80367	7978.48214
2862.31855	7970.33929
2864.83189	7967.625
2867.34368	7969.05357
2869.85393	7953.33929
2872.36264	7938.48214
2874.8698	7930.05357
2877.37543	7941.19643
2879.87952	7920.05357
2882.38207	7885.48214
2884.88308	7876.05357
2887.38256	7877.625
2889.88051	7862.625
2892.37692	7856.76786
2894.8718	7861.91071
2897.36515	7857.625
2899.85698	7862.05357
2902.34727	7891.05357
2904.83604	7888.05357
2907.32328	7895.19643
2909.809	7874.91071
2912.29319	7878.05357
2914.77587	7859.33929
2917.25702	7873.625
2919.73665	7850.48214
2922.21476	7831.76786
2924.69136	7856.625
2927.16644	7848.76786
2929.64	7797.05357
2932.11205	7789.48214
2934.58258	7765.91071
2937.05161	7743.05357
2939.51912	7748.05357
2941.98513	7736.33929
2944.44962	7704.33929
2946.91261	7648.625
2949.37409	7649.33929
2951.83407	7643.48214
2954.29254	7611.33929
2956.74951	7620.33929
2959.20498	7623.19643
2961.65895	7566.33929
2964.11142	7560.33929
2966.56239	7546.33929
2969.01186	7557.33929
2971.45984	7521.48214
2973.90632	7523.33929
2976.35131	7485.33929
2978.7948	7475.33929
2981.23681	7438.19643
2983.67732	7459.05357
2986.11635	7413.05357
2988.55388	7392.05357
2990.98993	7389.33929
2993.4245	7382.33929
2995.85758	7375.19643
2998.28917	7364.48214
3000.71928	7344.33929
3003.14791	7339.19643
3005.57506	7321.33929
3008.00073	7307.625
3010.42493	7309.05357
3012.84764	7291.05357
3015.26888	7321.76786
3017.68865	7293.48214
3020.10694	7259.625
3022.52376	7260.625
3024.9391	7275.05357
3027.35298	7214.05357
3029.76539	7227.48214
3032.17632	7205.91071
3034.5858	7160.33929
3036.9938	7182.48214
3039.40034	7188.05357
3041.80542	7142.76786
3044.20903	7157.19643
3046.61118	7128.05357
3049.01187	7136.625
3051.4111	7106.05357
3053.80888	7100.05357
3056.20519	7090.19643
3058.60005	7087.33929
3060.99345	7077.33929
3063.3854	7046.625
3065.7759	7023.625
3068.16494	7015.76786
3070.55254	6982.48214
3072.93868	6955.33929
3075.32338	6940.625
3077.70662	6961.33929
3080.08842	6921.19643
3082.46878	6886.19643
3084.84769	6887.33929
3087.22515	6887.48214
3089.60118	6895.19643
3091.97576	6889.91071
3094.3489	6873.625
3096.72061	6891.33929
3099.09087	6878.48214
3101.4597	6877.19643
3103.82709	6871.33929
3106.19305	6856.91071
3108.55757	6873.48214
3110.92066	6835.19643
3113.28232	6842.91071
3115.64255	6825.91071
3118.00134	6829.33929
3120.35871	6810.48214
3122.71466	6836.05357
3125.06917	6791.48214
3127.42226	6781.05357
3129.77393	6784.19643
3132.12417	6800.91071
3134.47299	6819.48214
3136.82039	6793.625
3139.16636	6789.05357
3141.51092	6798.33929
3143.85406	6818.625
3146.19579	6825.76786
3148.53609	6793.76786
3150.87499	6832.76786
3153.21246	6837.625
3155.54853	6855.48214
3157.88318	6877.76786
3160.21642	6832.76786
3162.54826	6853.76786
3164.87868	6879.48214
3167.2077	6863.76786
3169.5353	6879.76786
3171.86151	6871.19643
3174.18631	6866.91071
3176.5097	6857.48214
3178.83169	6860.33929
3181.15228	6857.625
3183.47147	6860.48214
3185.78926	6861.625
3188.10565	6836.05357
3190.42065	6861.33929
3192.73424	6849.76786
3195.04645	6871.76786
3197.35725	6871.625
3199.66667	6862.625
3201.97469	6864.05357
3204.28132	6877.48214
3206.58656	6907.76786
3208.8904	6915.33929
3211.19287	6903.91071
3213.49394	6901.19643
3215.79363	6915.48214
3218.09193	6943.91071
3220.38884	6929.33929
3222.68438	6972.05357
3224.97853	6941.625
3227.2713	6935.05357
3229.56269	6933.05357
3231.8527	6933.76786
3234.14133	6908.625
3236.42858	6904.05357
3238.71446	6901.48214
3240.99896	6866.91071
3243.28209	6852.33929
3245.56384	6859.33929
3247.84423	6846.76786
3250.12324	6879.625
3252.40088	6870.91071
3254.67715	6855.76786
3256.95205	6838.33929
3259.22558	6843.91071
3261.49775	6835.33929
3263.76855	6801.05357
3266.03799	6840.48214
3268.30606	6807.76786
3270.57277	6821.33929
3272.83812	6799.76786
3275.10211	6772.33929
3277.36474	6757.48214
3279.62601	6761.48214
3281.88593	6753.19643
3284.14448	6748.625
3286.40168	6763.91071
3288.65753	6767.05357
3290.91202	6759.48214
3293.16516	6722.91071
3295.41695	6742.19643
3297.66738	6695.05357
3299.91647	6644.05357
3302.16421	6617.19643
3304.4106	6577.33929
3306.65564	6552.33929
3308.89933	6492.33929
3311.14169	6460.05357
3313.38269	6386.76786
3315.62236	6363.91071
3317.86068	6297.33929
3320.09766	6255.625
3322.3333	6194.19643
3324.5676	6183.05357
3326.80056	6104.76786
3329.03219	6072.625
3331.26248	2.91071
3333.49143	0.76786
3335.71905	-0.80357
