Data from AgNPs_FTO_APTES_UA_10uM_CRN_50uM_R6G_10uM_NaF_0.1M_Addition_RamanShift__16__16-54-04-830.txt Node

Date: Thu Feb 17 16:54:04 GMT 2022
User: TCL
Spectrometer: QEP01345
Trigger mode: 4
Integration Time (sec): 1.000000E1
Scans to average: 7
Electric dark correction enabled: true
Nonlinearity correction enabled: false
Boxcar width: 0
XAxis mode: Raman Shifts
Number of Pixels in Spectrum: 1044
>>>>>Begin Spectral Data<<<<<
46.04893	0.69643
50.45542	-1.73214
54.85868	0.69643
59.25871	-1.73214
63.6555	67.98214
68.04907	67.69643
72.43941	71.83929
76.82654	76.83929
81.21044	81.55357
85.59113	83.26786
89.96862	90.55357
94.34289	88.98214
98.71396	92.98214
103.08183	90.125
107.4465	98.26786
111.80798	99.125
116.16626	99.98214
120.52136	103.83929
124.87327	104.125
129.222	113.26786
133.56755	111.98214
137.90993	123.83929
142.24913	134.55357
146.58517	147.55357
150.91804	167.26786
155.24774	189.98214
159.57429	237.125
163.89768	297.125
168.21792	394.26786
172.53501	538.55357
176.84895	744.125
181.15975	1050.26786
185.46741	1480.55357
189.77193	2042.125
194.07331	2768.26786
198.37157	3561.83929
202.6667	4421.83929
206.9587	5285.69643
211.24758	6106.41071
215.53334	6934.125
219.81599	7794.55357
224.09553	8740.125
228.37195	9801.26786
232.64527	10923.98214
236.91549	12202.69643
241.18261	13440.69643
245.44663	14637.55357
249.70755	15773.125
253.96539	16718.26786
258.22014	17466.83929
262.4718	18038.41071
266.72039	18509.55357
270.96589	18686.69643
275.20832	18650.125
279.44768	18506.26786
283.68397	18238.26786
287.91719	17950.98214
292.14735	17753.69643
296.37445	17675.69643
300.59849	17689.125
304.81948	17688.125
309.03742	17723.55357
313.25231	17593.69643
317.46415	17365.55357
321.67296	17068.26786
325.87872	16836.125
330.08145	16782.41071
334.28114	16859.41071
338.47781	17020.55357
342.67145	17304.98214
346.86207	17588.41071
351.04966	17937.98214
355.23424	18309.26786
359.4158	18628.125
363.59435	18931.69643
367.76989	19206.98214
371.94243	19347.125
376.11196	19488.69643
380.27849	19636.98214
384.44203	19723.83929
388.60257	19796.83929
392.76012	19894.83929
396.91468	20035.55357
401.06626	20249.55357
405.21485	20423.69643
409.36047	20401.55357
413.50311	20186.26786
417.64277	19922.26786
421.77947	19813.98214
425.9132	19769.125
430.04396	19857.41071
434.17176	19953.125
438.2966	20093.55357
442.41849	20307.125
446.53742	20652.26786
450.6534	20940.26786
454.76644	21260.55357
458.87653	21413.98214
462.98368	21417.41071
467.08789	21375.125
471.18916	21223.125
475.2875	21031.83929
479.38291	20971.69643
483.4754	20856.83929
487.56496	20803.26786
491.6516	20734.125
495.73531	20690.98214
499.81612	20694.41071
503.89401	20827.83929
507.96899	20999.83929
512.04106	21005.55357
516.11023	21114.55357
520.1765	21228.26786
524.23987	21265.98214
528.30034	21246.41071
532.35792	21209.125
536.41261	21168.125
540.46441	21039.41071
544.51333	20977.55357
548.55936	20949.55357
552.60252	20967.69643
556.64279	21115.55357
560.6802	21164.83929
564.71473	21104.69643
568.7464	21177.55357
572.7752	21206.55357
576.80114	21142.125
580.82422	21157.41071
584.84444	21227.83929
588.86181	21351.26786
592.87633	21576.26786
596.888	21767.125
600.89682	22032.125
604.9028	22779.55357
608.90594	24676.98214
612.90624	26851.41071
616.90371	26034.26786
620.89834	23112.98214
624.89015	21809.98214
628.87913	21707.69643
632.86528	21752.125
636.84862	21746.69643
640.82913	21610.26786
644.80683	21345.26786
648.78172	21106.55357
652.75379	21085.41071
656.72306	21278.55357
660.68952	21540.55357
664.65319	21560.69643
668.61405	21410.83929
672.57211	21505.83929
676.52738	21634.98214
680.47986	21683.98214
684.42955	21615.41071
688.37646	21417.83929
692.32058	21422.69643
696.26192	21432.26786
700.20048	21481.83929
704.13626	21545.83929
708.06928	21475.26786
711.99952	21336.125
715.927	21290.98214
719.85171	21305.55357
723.77365	21328.125
727.69284	21388.83929
731.60928	21323.98214
735.52295	21351.83929
739.43388	21321.55357
743.34206	21444.26786
747.24749	21379.41071
751.15017	21323.41071
755.05012	21344.55357
758.94733	21514.98214
762.8418	22043.98214
766.73354	22987.26786
770.62254	24173.55357
774.50882	24985.69643
778.39237	24657.98214
782.27321	23503.26786
786.15132	22346.26786
790.02671	21615.41071
793.89938	21242.55357
797.76935	21087.26786
801.6366	21030.55357
805.50115	21039.125
809.36299	20951.98214
813.22213	20884.125
817.07857	20812.26786
820.93231	20774.98214
824.78336	20760.26786
828.63172	20807.83929
832.47738	20759.125
836.32036	20833.55357
840.16066	20870.41071
843.99827	20962.26786
847.8332	20960.125
851.66546	20868.125
855.49504	20875.55357
859.32195	20931.41071
863.1462	20982.41071
866.96777	20975.55357
870.78668	21003.98214
874.60293	21048.98214
878.41652	21070.98214
882.22745	21088.83929
886.03573	21123.26786
889.84136	21094.83929
893.64433	21002.69643
897.44466	20912.83929
901.24235	20843.125
905.0374	20752.41071
908.8298	20661.26786
912.61957	20597.83929
916.40671	20653.83929
920.19121	20693.69643
923.97308	20854.98214
927.75233	20949.83929
931.52895	20955.69643
935.30295	20942.55357
939.07433	20795.26786
942.84309	20616.69643
946.60924	20466.55357
950.37278	20440.26786
954.13371	20346.26786
957.89203	20250.55357
961.64774	20178.55357
965.40086	20096.98214
969.15137	20035.26786
972.89929	20010.98214
976.64461	19958.125
980.38733	19960.83929
984.12747	20090.125
987.86502	20186.69643
991.59999	20340.83929
995.33237	20549.125
999.06217	20841.83929
1002.78939	21232.26786
1006.51404	21335.41071
1010.23611	21351.55357
1013.95561	21456.55357
1017.67255	21490.41071
1021.38692	21482.83929
1025.09872	21359.98214
1028.80796	21516.55357
1032.51465	21939.55357
1036.21877	22342.83929
1039.92035	22399.55357
1043.61937	22242.83929
1047.31584	21857.26786
1051.00976	21492.125
1054.70114	21305.69643
1058.38998	21276.26786
1062.07627	21229.125
1065.76003	21213.69643
1069.44126	21182.98214
1073.11995	21206.26786
1076.79611	21312.83929
1080.46974	21455.41071
1084.14085	21560.83929
1087.80943	21632.83929
1091.47549	21693.26786
1095.13903	21562.26786
1098.80005	21419.41071
1102.45857	21296.69643
1106.11456	21218.55357
1109.76805	21268.55357
1113.41903	21398.98214
1117.06751	21523.41071
1120.71348	21675.55357
1124.35696	21857.98214
1127.99793	22080.55357
1131.63641	22218.26786
1135.2724	22153.125
1138.90589	21850.41071
1142.5369	21601.69643
1146.16542	21367.26786
1149.79145	21165.69643
1153.415	21042.41071
1157.03607	20987.98214
1160.65467	21131.98214
1164.27079	21430.55357
1167.88443	21953.98214
1171.49561	22674.98214
1175.10432	23478.125
1178.71056	24644.69643
1182.31434	25840.26786
1185.91565	26493.41071
1189.51451	26398.69643
1193.11091	25659.26786
1196.70485	24736.69643
1200.29634	24003.55357
1203.88538	23424.41071
1207.47197	22863.69643
1211.05612	22401.41071
1214.63782	22145.55357
1218.21708	22069.41071
1221.79391	22141.98214
1225.36829	22289.26786
1228.94024	22268.125
1232.50976	22037.41071
1236.07685	21864.125
1239.6415	21794.26786
1243.20374	21819.83929
1246.76355	21956.41071
1250.32093	22138.41071
1253.8759	22410.55357
1257.42845	22762.55357
1260.97859	23052.41071
1264.52631	23386.98214
1268.07163	23690.69643
1271.61453	24098.69643
1275.15503	24612.69643
1278.69312	24964.69643
1282.22882	25236.69643
1285.76211	25358.125
1289.29301	25486.69643
1292.82151	25736.26786
1296.34761	26043.41071
1299.87133	26736.69643
1303.39266	27792.55357
1306.9116	29183.41071
1310.42815	30647.69643
1313.94233	31472.83929
1317.45412	31085.55357
1320.96354	29937.98214
1324.47058	28648.26786
1327.97525	27472.26786
1331.47754	26643.69643
1334.97747	26196.98214
1338.47502	26145.83929
1341.97022	26398.26786
1345.46305	26894.83929
1348.95352	27563.55357
1352.44163	28572.98214
1355.92738	29942.26786
1359.41078	31591.26786
1362.89183	32844.98214
1366.37053	32175.55357
1369.84688	29565.26786
1373.32088	26838.98214
1376.79254	25036.55357
1380.26186	24082.26786
1383.72883	23628.125
1387.19347	23220.55357
1390.65578	22713.55357
1394.11575	22361.83929
1397.57339	22229.41071
1401.0287	22213.55357
1404.48168	22217.69643
1407.93234	22234.83929
1411.38068	22271.125
1414.82669	22192.69643
1418.27039	22164.55357
1421.71177	22072.55357
1425.15083	21906.26786
1428.58758	21758.69643
1432.02203	21787.98214
1435.45416	21927.69643
1438.88399	22094.26786
1442.31151	22105.55357
1445.73673	22157.26786
1449.15965	22243.69643
1452.58027	22289.55357
1455.9986	22305.69643
1459.41463	22362.125
1462.82837	22544.26786
1466.23982	22829.41071
1469.64898	23126.41071
1473.05586	23327.26786
1476.46045	23454.26786
1479.86276	23520.41071
1483.26279	23540.83929
1486.66054	23591.69643
1490.05602	23770.26786
1493.44922	24015.83929
1496.84016	24493.83929
1500.22882	25167.69643
1503.61521	26295.83929
1506.99934	27527.41071
1510.38121	28610.26786
1513.76081	28865.83929
1517.13816	28085.98214
1520.51324	26633.41071
1523.88607	25269.69643
1527.25665	24312.69643
1530.62498	23768.83929
1533.99105	23426.55357
1537.35488	23218.26786
1540.71647	23129.26786
1544.07581	23054.69643
1547.4329	22996.26786
1550.78776	23036.26786
1554.14038	23014.83929
1557.49077	23105.69643
1560.83892	23161.55357
1564.18484	23249.55357
1567.52853	23456.98214
1570.86999	23609.125
1574.20922	23748.26786
1577.54624	23718.98214
1580.88103	23415.83929
1584.2136	22931.69643
1587.54395	22792.26786
1590.87208	23045.41071
1594.19801	23784.125
1597.52172	24810.98214
1600.84321	25341.69643
1604.16251	24904.69643
1607.47959	24016.41071
1610.79447	23074.69643
1614.10715	22156.55357
1617.41763	21446.41071
1620.7259	20972.125
1624.03199	20671.83929
1627.33587	20658.26786
1630.63757	20829.55357
1633.93707	21259.55357
1637.23439	21956.69643
1640.52951	22848.98214
1643.82246	24019.98214
1647.11321	25127.98214
1650.40179	25674.98214
1653.68819	25069.69643
1656.97241	23440.125
1660.25446	21742.55357
1663.53433	20554.26786
1666.81203	19844.41071
1670.08756	19366.26786
1673.36092	19068.98214
1676.63211	18896.69643
1679.90115	18726.41071
1683.16801	18626.83929
1686.43272	18482.125
1689.69527	18477.41071
1692.95567	18407.55357
1696.2139	18308.26786
1699.46999	18297.69643
1702.72392	18273.83929
1705.97571	18275.125
1709.22535	18230.125
1712.47284	18236.55357
1715.71819	18240.125
1718.96139	18219.26786
1722.20246	18189.98214
1725.44139	18114.125
1728.67818	18122.125
1731.91284	18049.26786
1735.14537	17988.83929
1738.37576	17983.41071
1741.60403	17870.98214
1744.83017	17844.83929
1748.05418	17896.98214
1751.27607	17859.26786
1754.49584	17865.69643
1757.71349	17820.83929
1760.92903	17847.98214
1764.14244	17761.98214
1767.35375	17735.41071
1770.56294	17720.69643
1773.77002	17639.55357
1776.97499	17644.26786
1780.17785	17622.55357
1783.37861	17601.98214
1786.57727	17526.55357
1789.77382	17523.55357
1792.96828	17513.69643
1796.16064	17464.125
1799.3509	17461.55357
1802.53907	17431.26786
1805.72514	17378.41071
1808.90913	17364.98214
1812.09102	17329.26786
1815.27083	17298.125
1818.44856	17294.55357
1821.6242	17277.98214
1824.79776	17225.55357
1827.96924	17221.55357
1831.13864	17155.26786
1834.30597	17141.69643
1837.47122	17170.83929
1840.6344	17129.69643
1843.7955	17167.26786
1846.95454	17140.69643
1850.11151	17116.55357
1853.26642	17128.41071
1856.41926	17063.69643
1859.57004	17111.26786
1862.71876	17071.69643
1865.86542	17049.83929
1869.01003	17081.98214
1872.15258	17074.125
1875.29308	17081.125
1878.43152	17017.125
1881.56792	17003.69643
1884.70227	16988.41071
1887.83457	16958.55357
1890.96482	16968.98214
1894.09304	16929.41071
1897.21921	16912.125
1900.34335	16931.125
1903.46544	16891.41071
1906.58551	16869.55357
1909.70353	16850.98214
1912.81953	16846.125
1915.93349	16798.69643
1919.04543	16787.69643
1922.15534	16755.83929
1925.26322	16745.98214
1928.36908	16717.83929
1931.47292	16724.98214
1934.57473	16671.98214
1937.67453	16655.26786
1940.77232	16613.125
1943.86808	16584.98214
1946.96184	16502.55357
1950.05358	16463.98214
1953.14331	16438.26786
1956.23103	16435.41071
1959.31675	16400.98214
1962.40046	16341.41071
1965.48217	16291.83929
1968.56188	16217.26786
1971.63959	16221.41071
1974.7153	16165.69643
1977.78901	16128.41071
1980.86073	16086.26786
1983.93046	16055.26786
1986.99819	15972.83929
1990.06394	15932.69643
1993.1277	15898.125
1996.18947	15854.125
1999.24925	15822.83929
2002.30706	15801.55357
2005.36288	15702.55357
2008.41672	15693.26786
2011.46859	15666.69643
2014.51848	15613.125
2017.56639	15565.41071
2020.61233	15488.125
2023.6563	15498.69643
2026.6983	15450.41071
2029.73833	15391.26786
2032.7764	15413.26786
2035.8125	15399.83929
2038.84664	15363.26786
2041.87881	15353.125
2044.90903	15296.26786
2047.93729	15285.83929
2050.96359	15266.69643
2053.98794	15254.41071
2057.01034	15229.125
2060.03078	15240.41071
2063.04927	15250.83929
2066.06582	15222.41071
2069.08042	15192.26786
2072.09307	15222.125
2075.10378	15210.41071
2078.11255	15185.41071
2081.11938	15155.125
2084.12426	15165.83929
2087.12722	15182.98214
2090.12824	15185.98214
2093.12732	15189.98214
2096.12447	15159.41071
2099.11969	15167.55357
2102.11299	15170.125
2105.10435	15180.83929
2108.09379	15165.55357
2111.08131	15234.41071
2114.0669	15211.26786
2117.05057	15232.125
2120.03233	15238.55357
2123.01216	15255.41071
2125.99008	15311.69643
2128.96609	15328.55357
2131.94018	15334.26786
2134.91236	15334.125
2137.88263	15355.55357
2140.851	15355.55357
2143.81746	15352.69643
2146.78201	15381.69643
2149.74466	15375.55357
2152.7054	15390.98214
2155.66425	15375.55357
2158.6212	15365.98214
2161.57625	15347.125
2164.52941	15344.83929
2167.48067	15356.26786
2170.43004	15338.26786
2173.37752	15361.98214
2176.32311	15344.98214
2179.26681	15351.69643
2182.20863	15334.69643
2185.14856	15379.55357
2188.08661	15349.98214
2191.02278	15420.125
2193.95707	15366.55357
2196.88948	15367.125
2199.82001	15363.83929
2202.74867	15364.83929
2205.67545	15318.98214
2208.60037	15316.41071
2211.52341	15300.69643
2214.44458	15276.98214
2217.36388	15296.41071
2220.28132	15296.26786
2223.1969	15212.69643
2226.11061	15189.55357
2229.02246	15151.125
2231.93245	15122.83929
2234.84058	15132.98214
2237.74686	15058.26786
2240.65128	15089.125
2243.55385	15053.41071
2246.45456	15070.55357
2249.35343	15055.26786
2252.25044	15024.69643
2255.14561	15011.69643
2258.03893	14999.55357
2260.93041	14986.83929
2263.82004	14907.98214
2266.70783	14898.26786
2269.59378	14864.83929
2272.4779	14827.83929
2275.36017	14836.69643
2278.24061	14777.83929
2281.11922	14775.55357
2283.996	14744.98214
2286.87094	14728.98214
2289.74405	14692.69643
2292.61534	14706.55357
2295.4848	14708.55357
2298.35243	14703.69643
2301.21824	14706.98214
2304.08223	14735.55357
2306.94439	14687.26786
2309.80474	14665.125
2312.66327	14703.55357
2315.51999	14716.26786
2318.37489	14707.55357
2321.22797	14641.125
2324.07925	14638.83929
2326.92871	14614.98214
2329.77637	14586.98214
2332.62222	14579.69643
2335.46626	14584.41071
2338.3085	14530.69643
2341.14893	14563.83929
2343.98756	14592.41071
2346.8244	14518.26786
2349.65943	14497.69643
2352.49267	14522.125
2355.32411	14545.125
2358.15376	14510.55357
2360.98161	14533.125
2363.80768	14506.41071
2366.63195	14452.69643
2369.45444	14422.69643
2372.27514	14429.41071
2375.09405	14397.83929
2377.91118	14377.98214
2380.72652	14360.69643
2383.54009	14298.83929
2386.35187	14283.41071
2389.16188	14240.125
2391.97011	14219.55357
2394.77657	14247.55357
2397.58125	14249.125
2400.38416	14213.98214
2403.18529	14176.83929
2405.98466	14150.98214
2408.78226	14105.125
2411.57809	14098.125
2414.37216	14109.98214
2417.16446	14089.55357
2419.955	14054.69643
2422.74378	14090.55357
2425.5308	14014.55357
2428.31606	14021.26786
2431.09956	14023.41071
2433.88131	13977.98214
2436.6613	14008.41071
2439.43954	13983.83929
2442.21603	13976.83929
2444.99077	13963.41071
2447.76377	13959.26786
2450.53501	13972.55357
2453.30451	13963.125
2456.07226	13948.55357
2458.83827	13912.69643
2461.60254	13892.69643
2464.36507	13894.41071
2467.12586	13890.55357
2469.88492	13889.69643
2472.64224	13865.55357
2475.39782	13866.41071
2478.15167	13873.69643
2480.90379	13867.83929
2483.65417	13897.83929
2486.40283	13906.83929
2489.14976	13888.83929
2491.89497	13876.98214
2494.63845	13887.55357
2497.3802	13910.125
2500.12024	13916.41071
2502.85855	13888.55357
2505.59514	13840.55357
2508.33002	13827.83929
2511.06318	13773.55357
2513.79462	13777.98214
2516.52435	13756.55357
2519.25237	13757.125
2521.97867	13718.41071
2524.70327	13750.69643
2527.42616	13733.125
2530.14734	13713.83929
2532.86681	13687.26786
2535.58458	13696.41071
2538.30065	13695.41071
2541.01501	13707.69643
2543.72768	13685.98214
2546.43864	13646.83929
2549.14791	13604.55357
2551.85548	13612.125
2554.56136	13561.125
2557.26554	13560.55357
2559.96803	13557.83929
2562.66883	13556.55357
2565.36794	13499.125
2568.06536	13479.98214
2570.7611	13441.55357
2573.45514	13439.83929
2576.14751	13431.41071
2578.83819	13419.98214
2581.52719	13422.69643
2584.21451	13408.83929
2586.90015	13380.26786
2589.58411	13338.69643
2592.2664	13341.98214
2594.94701	13283.83929
2597.62594	13324.26786
2600.30321	13273.83929
2602.9788	13289.55357
2605.65273	13229.26786
2608.32498	13236.55357
2610.99557	13242.41071
2613.66449	13222.26786
2616.33175	13171.69643
2618.99734	13209.125
2621.66128	13217.26786
2624.32355	13182.41071
2626.98416	13163.55357
2629.64311	13139.98214
2632.30041	13151.69643
2634.95605	13134.125
2637.61004	13134.26786
2640.26238	13090.98214
2642.91306	13102.83929
2645.56209	13054.26786
2648.20948	13114.41071
2650.85521	13066.41071
2653.4993	13063.55357
2656.14175	13069.69643
2658.78255	13062.98214
2661.42171	13041.26786
2664.05923	13112.41071
2666.6951	13051.98214
2669.32934	13073.69643
2671.96194	13048.41071
2674.59291	13076.41071
2677.22224	13044.55357
2679.84993	13066.83929
2682.476	13043.55357
2685.10043	12993.26786
2687.72324	13048.98214
2690.34441	13052.125
2692.96396	13013.125
2695.58188	13035.41071
2698.19818	12999.98214
2700.81285	13028.83929
2703.4259	12979.83929
2706.03733	13004.69643
2708.64714	13004.125
2711.25533	13023.69643
2713.86191	13028.69643
2716.46687	13062.83929
2719.07021	13051.83929
2721.67194	12996.69643
2724.27206	13024.69643
2726.87057	13055.98214
2729.46747	13051.125
2732.06276	13022.125
2734.65644	13019.69643
2737.24852	13031.125
2739.83899	13016.69643
2742.42786	13030.125
2745.01513	12984.83929
2747.60079	12966.98214
2750.18486	12942.98214
2752.76733	12951.125
2755.3482	12931.26786
2757.92747	12939.83929
2760.50515	12904.26786
2763.08123	12922.69643
2765.65573	12923.83929
2768.22863	12897.26786
2770.79994	12886.125
2773.36967	12856.83929
2775.9378	12845.83929
2778.50435	12844.41071
2781.06932	12807.83929
2783.6327	12807.83929
2786.1945	12806.125
2788.75471	12770.125
2791.31335	12779.41071
2793.87041	12740.98214
2796.42589	12754.55357
2798.97979	12702.98214
2801.53212	12724.26786
2804.08288	12693.98214
2806.63206	12629.125
2809.17967	12652.26786
2811.72571	12621.55357
2814.27018	12598.69643
2816.81308	12591.98214
2819.35442	12512.26786
2821.89419	12518.41071
2824.43239	12524.26786
2826.96904	12513.98214
2829.50412	12511.125
2832.03763	12489.41071
2834.56959	12509.98214
2837.1	12483.55357
2839.62884	12484.125
2842.15613	12445.83929
2844.68186	12453.55357
2847.20604	12451.26786
2849.72867	12479.26786
2852.24974	12447.69643
2854.76927	12442.125
2857.28724	12425.69643
2859.80367	12397.55357
2862.31855	12380.98214
2864.83189	12360.41071
2867.34368	12360.125
2869.85393	12356.98214
2872.36264	12325.41071
2874.8698	12339.83929
2877.37543	12338.69643
2879.87952	12317.98214
2882.38207	12318.55357
2884.88308	12338.55357
2887.38256	12356.83929
2889.88051	12353.98214
2892.37692	12366.41071
2894.8718	12354.98214
2897.36515	12366.55357
2899.85698	12344.41071
2902.34727	12448.69643
2904.83604	12389.69643
2907.32328	12419.98214
2909.809	12433.125
2912.29319	12473.41071
2914.77587	12443.125
2917.25702	12468.41071
2919.73665	12418.125
2922.21476	12449.69643
2924.69136	12424.125
2927.16644	12448.83929
2929.64	12452.41071
2932.11205	12423.83929
2934.58258	12398.69643
2937.05161	12396.125
2939.51912	12398.125
2941.98513	12419.55357
2944.44962	12408.41071
2946.91261	12368.83929
2949.37409	12395.69643
2951.83407	12399.55357
2954.29254	12384.125
2956.74951	12368.55357
2959.20498	12375.26786
2961.65895	12337.69643
2964.11142	12369.83929
2966.56239	12346.69643
2969.01186	12320.26786
2971.45984	12312.26786
2973.90632	12312.83929
2976.35131	12307.69643
2978.7948	12294.98214
2981.23681	12255.55357
2983.67732	12231.26786
2986.11635	12190.83929
2988.55388	12176.41071
2990.98993	12187.98214
2993.4245	12166.26786
2995.85758	12146.98214
2998.28917	12145.125
3000.71928	12095.69643
3003.14791	12089.26786
3005.57506	12066.55357
3008.00073	12063.125
3010.42493	12044.55357
3012.84764	12022.69643
3015.26888	12014.26786
3017.68865	12012.41071
3020.10694	11990.69643
3022.52376	12019.125
3024.9391	11958.69643
3027.35298	11935.83929
3029.76539	11967.69643
3032.17632	11919.26786
3034.5858	11920.83929
3036.9938	11929.69643
3039.40034	11893.69643
3041.80542	11901.83929
3044.20903	11877.26786
3046.61118	11848.125
3049.01187	11862.125
3051.4111	11852.55357
3053.80888	11869.98214
3056.20519	11827.41071
3058.60005	11784.125
3060.99345	11808.26786
3063.3854	11753.69643
3065.7759	11734.26786
3068.16494	11713.26786
3070.55254	11701.26786
3072.93868	11706.41071
3075.32338	11681.55357
3077.70662	11687.26786
3080.08842	11639.41071
3082.46878	11631.55357
3084.84769	11663.98214
3087.22515	11649.125
3089.60118	11624.83929
3091.97576	11655.55357
3094.3489	11675.69643
3096.72061	11658.55357
3099.09087	11682.69643
3101.4597	11693.41071
3103.82709	11690.83929
3106.19305	11645.98214
3108.55757	11685.98214
3110.92066	11668.41071
3113.28232	11705.125
3115.64255	11624.26786
3118.00134	11644.41071
3120.35871	11627.98214
3122.71466	11598.41071
3125.06917	11585.55357
3127.42226	11572.55357
3129.77393	11586.41071
3132.12417	11560.98214
3134.47299	11556.125
3136.82039	11558.98214
3139.16636	11585.26786
3141.51092	11583.83929
3143.85406	11627.55357
3146.19579	11596.41071
3148.53609	11602.69643
3150.87499	11595.26786
3153.21246	11630.26786
3155.54853	11665.55357
3157.88318	11642.26786
3160.21642	11690.83929
3162.54826	11681.55357
3164.87868	11702.26786
3167.2077	11680.98214
3169.5353	11729.83929
3171.86151	11713.41071
3174.18631	11709.69643
3176.5097	11708.69643
3178.83169	11688.125
3181.15228	11689.26786
3183.47147	11675.125
3185.78926	11667.69643
3188.10565	11676.98214
3190.42065	11677.69643
3192.73424	11684.125
3195.04645	11684.98214
3197.35725	11668.69643
3199.66667	11663.69643
3201.97469	11658.83929
3204.28132	11652.83929
3206.58656	11678.98214
3208.8904	11688.83929
3211.19287	11729.55357
3213.49394	11743.125
3215.79363	11750.98214
3218.09193	11742.69643
3220.38884	11760.41071
3222.68438	11773.55357
3224.97853	11781.69643
3227.2713	11787.98214
3229.56269	11764.55357
3231.8527	11758.69643
3234.14133	11723.69643
3236.42858	11724.69643
3238.71446	11709.26786
3240.99896	11686.69643
3243.28209	11680.41071
3245.56384	11661.98214
3247.84423	11660.83929
3250.12324	11651.69643
3252.40088	11656.98214
3254.67715	11652.83929
3256.95205	11629.98214
3259.22558	11654.98214
3261.49775	11659.26786
3263.76855	11650.83929
3266.03799	11630.83929
3268.30606	11642.55357
3270.57277	11611.125
3272.83812	11618.55357
3275.10211	11557.98214
3277.36474	11529.125
3279.62601	11557.55357
3281.88593	11560.98214
3284.14448	11539.98214
3286.40168	11533.26786
3288.65753	11509.69643
3290.91202	11523.98214
3293.16516	11530.98214
3295.41695	11511.41071
3297.66738	11435.83929
3299.91647	11376.55357
3302.16421	11332.26786
3304.4106	11265.125
3306.65564	11208.98214
3308.89933	11141.55357
3311.14169	11061.41071
3313.38269	11017.98214
3315.62236	10941.125
3317.86068	10831.26786
3320.09766	10790.125
3322.3333	10719.83929
3324.5676	10681.98214
3326.80056	10513.69643
3329.03219	10479.41071
3331.26248	2.125
3333.49143	0.55357
3335.71905	-1.30357
