Data from AgNPs_FTO_APTES_UA_20uM_CRN_100uM_R6G_10uM_NaF_0.1M_Addition_RamanShift__19__17-40-44-888.txt Node

Date: Thu Feb 17 17:40:44 GMT 2022
User: TCL
Spectrometer: QEP01345
Trigger mode: 4
Integration Time (sec): 1.000000E1
Scans to average: 7
Electric dark correction enabled: true
Nonlinearity correction enabled: false
Boxcar width: 0
XAxis mode: Raman Shifts
Number of Pixels in Spectrum: 1044
>>>>>Begin Spectral Data<<<<<
46.04893	0.46429
50.45542	-0.82143
54.85868	-0.10714
59.25871	-1.39286
63.6555	82.03571
68.04907	81.17857
72.43941	87.03571
76.82654	91.46429
81.21044	97.60714
85.59113	100.60714
89.96862	101.03571
94.34289	103.46429
98.71396	108.32143
103.08183	107.89286
107.4465	116.17857
111.80798	115.75
116.16626	121.03571
120.52136	124.75
124.87327	128.46429
129.222	130.03571
133.56755	138.17857
137.90993	150.32143
142.24913	156.17857
146.58517	179.46429
150.91804	204.60714
155.24774	242.60714
159.57429	287.75
163.89768	372.46429
168.21792	498.75
172.53501	666.17857
176.84895	943.75
181.15975	1318.03571
185.46741	1863.32143
189.77193	2582.60714
194.07331	3467.17857
198.37157	4516.60714
202.6667	5610.32143
206.9587	6710.75
211.24758	7804.03571
215.53334	8881.03571
219.81599	10020.60714
224.09553	11321.60714
228.37195	12726.46429
232.64527	14310.03571
236.91549	15935.46429
241.18261	17562.89286
245.44663	19080.60714
249.70755	20405.32143
253.96539	21559.32143
258.22014	22484.46429
262.4718	23269.17857
266.72039	23844.46429
270.96589	24056.89286
275.20832	24025.60714
279.44768	23731.89286
283.68397	23366.60714
287.91719	22977.60714
292.14735	22748.03571
296.37445	22808.03571
300.59849	23088.17857
304.81948	23395.17857
309.03742	23674.17857
313.25231	23573.89286
317.46415	23121.89286
321.67296	22355.89286
325.87872	21788.17857
330.08145	21606.17857
334.28114	21584.32143
338.47781	21890.32143
342.67145	22301.03571
346.86207	22748.46429
351.04966	23448.03571
355.23424	24254.03571
359.4158	24889.75
363.59435	25426.03571
367.76989	25739.03571
371.94243	25871.89286
376.11196	25995.32143
380.27849	26077.75
384.44203	26093.60714
388.60257	26053.32143
392.76012	26100.75
396.91468	26251.75
401.06626	26586.32143
405.21485	26922.46429
409.36047	26821.32143
413.50311	26306.89286
417.64277	25778.60714
421.77947	25465.17857
425.9132	25448.32143
430.04396	25510.03571
434.17176	25686.75
438.2966	25966.17857
442.41849	26492.60714
446.53742	27066.32143
450.6534	27686.32143
454.76644	28162.75
458.87653	28342.60714
462.98368	28234.75
467.08789	27945.46429
471.18916	27546.46429
475.2875	27152.03571
479.38291	26812.17857
483.4754	26551.89286
487.56496	26311.46429
491.6516	26197.75
495.73531	26073.32143
499.81612	26114.17857
503.89401	26266.89286
507.96899	26449.89286
512.04106	26643.46429
516.11023	26831.75
520.1765	27123.60714
524.23987	27093.89286
528.30034	27033.46429
532.35792	26922.75
536.41261	26771.60714
540.46441	26514.32143
544.51333	26379.89286
548.55936	26379.32143
552.60252	26604.17857
556.64279	26867.75
560.6802	27006.03571
564.71473	27062.03571
568.7464	27336.32143
572.7752	27618.03571
576.80114	27343.03571
580.82422	27101.03571
584.84444	27187.32143
588.86181	27463.32143
592.87633	27965.75
596.888	28404.17857
600.89682	28783.03571
604.9028	29987.17857
608.90594	33562.75
612.90624	38208.60714
616.90371	37145.89286
620.89834	31052.32143
624.89015	28140.03571
628.87913	27712.75
632.86528	27736.60714
636.84862	27770.75
640.82913	27523.03571
644.80683	26992.89286
648.78172	26531.75
652.75379	26477.32143
656.72306	26859.60714
660.68952	27419.46429
664.65319	27380.46429
668.61405	26986.03571
672.57211	26852.17857
676.52738	26925.17857
680.47986	26993.89286
684.42955	26871.89286
688.37646	26749.89286
692.32058	26770.60714
696.26192	26837.03571
700.20048	26963.60714
704.13626	27099.46429
708.06928	26958.17857
711.99952	26759.75
715.927	26653.03571
719.85171	26706.03571
723.77365	26733.32143
727.69284	26726.32143
731.60928	26670.32143
735.52295	26682.46429
739.43388	26723.46429
743.34206	26843.17857
747.24749	26887.17857
751.15017	26909.46429
755.05012	27048.75
758.94733	27480.32143
762.8418	28575.46429
766.73354	30651.03571
770.62254	32854.75
774.50882	34199.89286
778.39237	33550.17857
782.27321	31196.60714
786.15132	28920.75
790.02671	27491.60714
793.89938	26790.03571
797.76935	26600.75
801.6366	26530.89286
805.50115	26461.75
809.36299	26449.17857
813.22213	26319.89286
817.07857	26268.17857
820.93231	26240.89286
824.78336	26271.03571
828.63172	26375.32143
832.47738	26384.75
836.32036	26423.17857
840.16066	26447.17857
843.99827	26524.46429
847.8332	26560.89286
851.66546	26490.89286
855.49504	26476.17857
859.32195	26544.03571
863.1462	26546.89286
866.96777	26579.75
870.78668	26523.32143
874.60293	26549.89286
878.41652	26581.17857
882.22745	26606.75
886.03573	26637.46429
889.84136	26630.75
893.64433	26553.32143
897.44466	26403.46429
901.24235	26333.32143
905.0374	26233.75
908.8298	26149.17857
912.61957	26055.03571
916.40671	26156.32143
920.19121	26281.03571
923.97308	26429.03571
927.75233	26672.03571
931.52895	26830.60714
935.30295	26802.75
939.07433	26457.46429
942.84309	26150.89286
946.60924	25989.89286
950.37278	25865.03571
954.13371	25721.89286
957.89203	25565.60714
961.64774	25502.60714
965.40086	25367.75
969.15137	25293.75
972.89929	25258.89286
976.64461	25242.46429
980.38733	25292.89286
984.12747	25372.32143
987.86502	25555.03571
991.59999	25845.75
995.33237	26208.17857
999.06217	26800.89286
1002.78939	27446.32143
1006.51404	27813.03571
1010.23611	28033.32143
1013.95561	28123.32143
1017.67255	28231.32143
1021.38692	28094.32143
1025.09872	27956.03571
1028.80796	28205.46429
1032.51465	28857.03571
1036.21877	29468.32143
1039.92035	29636.89286
1043.61937	29282.89286
1047.31584	28642.75
1051.00976	27955.17857
1054.70114	27462.75
1058.38998	27341.46429
1062.07627	27236.89286
1065.76003	27235.60714
1069.44126	27169.17857
1073.11995	27238.32143
1076.79611	27462.60714
1080.46974	27654.03571
1084.14085	27903.03571
1087.80943	28178.46429
1091.47549	28282.89286
1095.13903	28126.17857
1098.80005	27696.46429
1102.45857	27500.46429
1106.11456	27378.89286
1109.76805	27574.89286
1113.41903	27882.32143
1117.06751	28223.32143
1120.71348	28720.60714
1124.35696	29189.03571
1127.99793	29675.17857
1131.63641	29715.60714
1135.2724	29151.17857
1138.90589	28641.03571
1142.5369	28191.89286
1146.16542	27824.89286
1149.79145	27601.17857
1153.415	27493.46429
1157.03607	27548.46429
1160.65467	27772.17857
1164.27079	28342.46429
1167.88443	29231.03571
1171.49561	30407.89286
1175.10432	32117.46429
1178.71056	34518.75
1182.31434	36788.46429
1185.91565	37897.75
1189.51451	37596.32143
1193.11091	36113.17857
1196.70485	34368.46429
1200.29634	33099.03571
1203.88538	32078.89286
1207.47197	31200.46429
1211.05612	30367.03571
1214.63782	29921.60714
1218.21708	29859.89286
1221.79391	29977.17857
1225.36829	30179.17857
1228.94024	30079.89286
1232.50976	29717.17857
1236.07685	29433.32143
1239.6415	29370.32143
1243.20374	29426.89286
1246.76355	29686.89286
1250.32093	30027.89286
1253.8759	30492.32143
1257.42845	31108.32143
1260.97859	31667.89286
1264.52631	32157.17857
1268.07163	32713.75
1271.61453	33317.75
1275.15503	33983.17857
1278.69312	34591.17857
1282.22882	35094.17857
1285.76211	35544.17857
1289.29301	35957.75
1292.82151	36525.89286
1296.34761	37346.60714
1299.87133	38744.89286
1303.39266	40891.17857
1306.9116	43813.32143
1310.42815	46884.60714
1313.94233	48388.03571
1317.45412	47478.32143
1320.96354	45014.46429
1324.47058	42524.03571
1327.97525	40374.17857
1331.47754	39024.60714
1334.97747	38517.03571
1338.47502	38821.60714
1341.97022	39547.75
1345.46305	40388.32143
1348.95352	41529.46429
1352.44163	42977.32143
1355.92738	45468.75
1359.41078	49115.32143
1362.89183	52295.46429
1366.37053	50908.60714
1369.84688	45327.03571
1373.32088	39967.60714
1376.79254	36482.17857
1380.26186	34703.46429
1383.72883	33781.75
1387.19347	33105.75
1390.65578	32399.75
1394.11575	31985.17857
1397.57339	31891.75
1401.0287	32118.46429
1404.48168	32409.32143
1407.93234	32793.75
1411.38068	33150.89286
1414.82669	33378.03571
1418.27039	33174.89286
1421.71177	32724.17857
1425.15083	32208.32143
1428.58758	31908.03571
1432.02203	31978.32143
1435.45416	32276.32143
1438.88399	32494.46429
1442.31151	32550.17857
1445.73673	32610.32143
1449.15965	32787.89286
1452.58027	32751.60714
1455.9986	32595.03571
1459.41463	32505.89286
1462.82837	32749.46429
1466.23982	33276.46429
1469.64898	33831.89286
1473.05586	34312.46429
1476.46045	34606.32143
1479.86276	34800.32143
1483.26279	35095.03571
1486.66054	35424.03571
1490.05602	35872.60714
1493.44922	36480.75
1496.84016	37244.32143
1500.22882	38594.89286
1503.61521	40667.03571
1506.99934	43326.17857
1510.38121	45451.60714
1513.76081	45743.75
1517.13816	43771.46429
1520.51324	40552.32143
1523.88607	37698.32143
1527.25665	35730.46429
1530.62498	34716.75
1533.99105	34132.89286
1537.35488	33840.75
1540.71647	33757.89286
1544.07581	33724.89286
1547.4329	33752.32143
1550.78776	33654.32143
1554.14038	33616.46429
1557.49077	33645.60714
1560.83892	33758.32143
1564.18484	33942.60714
1567.52853	34221.46429
1570.86999	34396.60714
1574.20922	34614.17857
1577.54624	34491.60714
1580.88103	33854.46429
1584.2136	33128.46429
1587.54395	33009.89286
1590.87208	33732.89286
1594.19801	35403.89286
1597.52172	37528.75
1600.84321	38608.46429
1604.16251	37915.46429
1607.47959	36120.60714
1610.79447	33975.75
1614.10715	31940.75
1617.41763	30464.89286
1620.7259	29492.75
1624.03199	28991.75
1627.33587	29020.60714
1630.63757	29558.60714
1633.93707	30508.17857
1637.23439	31891.03571
1640.52951	33767.60714
1643.82246	36102.75
1647.11321	38355.60714
1650.40179	39280.46429
1653.68819	37810.75
1656.97241	34400.32143
1660.25446	31050.46429
1663.53433	28681.89286
1666.81203	27342.32143
1670.08756	26446.32143
1673.36092	25867.03571
1676.63211	25513.75
1679.90115	25245.75
1683.16801	25018.03571
1686.43272	24874.03571
1689.69527	24736.89286
1692.95567	24667.17857
1696.2139	24582.89286
1699.46999	24597.46429
1702.72392	24520.46429
1705.97571	24513.60714
1709.22535	24487.89286
1712.47284	24458.17857
1715.71819	24491.32143
1718.96139	24403.60714
1722.20246	24332.32143
1725.44139	24267.60714
1728.67818	24188.46429
1731.91284	24138.75
1735.14537	24057.03571
1738.37576	24010.03571
1741.60403	23942.60714
1744.83017	23849.60714
1748.05418	23851.89286
1751.27607	23839.32143
1754.49584	23813.89286
1757.71349	23808.17857
1760.92903	23751.46429
1764.14244	23776.17857
1767.35375	23714.32143
1770.56294	23643.75
1773.77002	23640.17857
1776.97499	23613.03571
1780.17785	23611.46429
1783.37861	23574.89286
1786.57727	23525.46429
1789.77382	23481.17857
1792.96828	23523.03571
1796.16064	23454.75
1799.3509	23445.46429
1802.53907	23400.17857
1805.72514	23362.89286
1808.90913	23297.89286
1812.09102	23290.89286
1815.27083	23209.32143
1818.44856	23220.46429
1821.6242	23208.46429
1824.79776	23151.46429
1827.96924	23115.46429
1831.13864	23062.03571
1834.30597	23079.17857
1837.47122	23083.75
1840.6344	23054.03571
1843.7955	23076.60714
1846.95454	23056.17857
1850.11151	23054.03571
1853.26642	23019.60714
1856.41926	22982.46429
1859.57004	23013.03571
1862.71876	23034.32143
1865.86542	23029.46429
1869.01003	23052.60714
1872.15258	23043.46429
1875.29308	23008.03571
1878.43152	22952.60714
1881.56792	22995.03571
1884.70227	22972.75
1887.83457	22929.32143
1890.96482	22905.89286
1894.09304	22876.60714
1897.21921	22881.60714
1900.34335	22852.17857
1903.46544	22814.89286
1906.58551	22842.17857
1909.70353	22824.60714
1912.81953	22790.32143
1915.93349	22806.60714
1919.04543	22756.60714
1922.15534	22718.75
1925.26322	22667.75
1928.36908	22681.32143
1931.47292	22640.60714
1934.57473	22574.60714
1937.67453	22552.17857
1940.77232	22540.46429
1943.86808	22448.60714
1946.96184	22375.89286
1950.05358	22351.89286
1953.14331	22325.17857
1956.23103	22285.03571
1959.31675	22221.60714
1962.40046	22126.75
1965.48217	22091.60714
1968.56188	22041.75
1971.63959	21973.32143
1974.7153	21940.46429
1977.78901	21870.17857
1980.86073	21822.03571
1983.93046	21769.89286
1986.99819	21673.17857
1990.06394	21626.03571
1993.1277	21564.75
1996.18947	21476.46429
1999.24925	21427.89286
2002.30706	21350.03571
2005.36288	21306.46429
2008.41672	21259.32143
2011.46859	21240.32143
2014.51848	21202.89286
2017.56639	21127.46429
2020.61233	21079.03571
2023.6563	21037.46429
2026.6983	20979.46429
2029.73833	20934.46429
2032.7764	20942.46429
2035.8125	20899.60714
2038.84664	20827.17857
2041.87881	20856.89286
2044.90903	20788.75
2047.93729	20733.17857
2050.96359	20781.17857
2053.98794	20767.32143
2057.01034	20726.89286
2060.03078	20723.32143
2063.04927	20653.89286
2066.06582	20686.75
2069.08042	20602.89286
2072.09307	20660.60714
2075.10378	20615.17857
2078.11255	20654.03571
2081.11938	20624.17857
2084.12426	20622.46429
2087.12722	20633.32143
2090.12824	20576.17857
2093.12732	20605.17857
2096.12447	20612.75
2099.11969	20567.46429
2102.11299	20606.32143
2105.10435	20634.46429
2108.09379	20637.60714
2111.08131	20643.46429
2114.0669	20723.46429
2117.05057	20729.32143
2120.03233	20744.46429
2123.01216	20721.46429
2125.99008	20786.03571
2128.96609	20837.17857
2131.94018	20801.60714
2134.91236	20844.75
2137.88263	20862.46429
2140.851	20849.75
2143.81746	20895.17857
2146.78201	20881.03571
2149.74466	20910.89286
2152.7054	20923.03571
2155.66425	20916.89286
2158.6212	20882.89286
2161.57625	20861.46429
2164.52941	20878.46429
2167.48067	20837.32143
2170.43004	20873.75
2173.37752	20898.75
2176.32311	20906.03571
2179.26681	20867.32143
2182.20863	20861.75
2185.14856	20930.75
2188.08661	20891.89286
2191.02278	20902.46429
2193.95707	20919.17857
2196.88948	20914.46429
2199.82001	20921.17857
2202.74867	20920.32143
2205.67545	20889.17857
2208.60037	20914.17857
2211.52341	20864.17857
2214.44458	20826.17857
2217.36388	20809.03571
2220.28132	20791.17857
2223.1969	20757.46429
2226.11061	20688.89286
2229.02246	20694.60714
2231.93245	20653.89286
2234.84058	20611.03571
2237.74686	20538.89286
2240.65128	20577.89286
2243.55385	20519.32143
2246.45456	20528.60714
2249.35343	20519.60714
2252.25044	20494.89286
2255.14561	20461.75
2258.03893	20432.46429
2260.93041	20402.03571
2263.82004	20357.03571
2266.70783	20308.03571
2269.59378	20263.03571
2272.4779	20226.03571
2275.36017	20221.89286
2278.24061	20171.46429
2281.11922	20116.46429
2283.996	20137.17857
2286.87094	20129.32143
2289.74405	20066.32143
2292.61534	20110.03571
2295.4848	20063.46429
2298.35243	20066.17857
2301.21824	20054.32143
2304.08223	20055.17857
2306.94439	20066.17857
2309.80474	20087.89286
2312.66327	20150.46429
2315.51999	20089.03571
2318.37489	20101.75
2321.22797	20084.03571
2324.07925	20039.75
2326.92871	20059.03571
2329.77637	19995.75
2332.62222	19948.75
2335.46626	19952.17857
2338.3085	19959.32143
2341.14893	19959.32143
2343.98756	19945.03571
2346.8244	19973.17857
2349.65943	19936.32143
2352.49267	19963.89286
2355.32411	19959.89286
2358.15376	19933.75
2360.98161	19942.17857
2363.80768	19936.75
2366.63195	19886.60714
2369.45444	19830.60714
2372.27514	19785.32143
2375.09405	19727.46429
2377.91118	19768.60714
2380.72652	19705.03571
2383.54009	19633.17857
2386.35187	19600.17857
2389.16188	19556.46429
2391.97011	19524.32143
2394.77657	19506.32143
2397.58125	19496.32143
2400.38416	19514.89286
2403.18529	19462.03571
2405.98466	19430.89286
2408.78226	19367.75
2411.57809	19348.03571
2414.37216	19288.03571
2417.16446	19320.75
2419.955	19258.17857
2422.74378	19264.32143
2425.5308	19246.60714
2428.31606	19219.89286
2431.09956	19224.32143
2433.88131	19186.03571
2436.6613	19198.03571
2439.43954	19215.60714
2442.21603	19193.03571
2444.99077	19195.32143
2447.76377	19213.32143
2450.53501	19236.89286
2453.30451	19189.17857
2456.07226	19129.75
2458.83827	19098.46429
2461.60254	19116.75
2464.36507	19089.17857
2467.12586	19046.75
2469.88492	19038.75
2472.64224	19035.32143
2475.39782	19056.89286
2478.15167	19100.46429
2480.90379	19094.03571
2483.65417	19144.75
2486.40283	19150.89286
2489.14976	19147.75
2491.89497	19164.89286
2494.63845	19185.17857
2497.3802	19176.03571
2500.12024	19170.17857
2502.85855	19088.89286
2505.59514	19111.46429
2508.33002	19068.03571
2511.06318	19055.89286
2513.79462	19006.03571
2516.52435	18970.46429
2519.25237	18971.89286
2521.97867	18868.75
2524.70327	18937.17857
2527.42616	18893.03571
2530.14734	18865.60714
2532.86681	18841.46429
2535.58458	18851.03571
2538.30065	18820.17857
2541.01501	18848.46429
2543.72768	18829.75
2546.43864	18830.32143
2549.14791	18775.32143
2551.85548	18775.89286
2554.56136	18761.75
2557.26554	18727.60714
2559.96803	18677.32143
2562.66883	18680.75
2565.36794	18682.75
2568.06536	18599.46429
2570.7611	18615.46429
2573.45514	18611.17857
2576.14751	18599.75
2578.83819	18534.75
2581.52719	18539.17857
2584.21451	18482.60714
2586.90015	18509.03571
2589.58411	18471.03571
2592.2664	18489.17857
2594.94701	18386.17857
2597.62594	18444.03571
2600.30321	18386.46429
2602.9788	18397.46429
2605.65273	18405.46429
2608.32498	18377.89286
2610.99557	18388.46429
2613.66449	18376.60714
2616.33175	18355.60714
2618.99734	18353.89286
2621.66128	18372.03571
2624.32355	18309.46429
2626.98416	18363.17857
2629.64311	18325.75
2632.30041	18321.03571
2634.95605	18304.60714
2637.61004	18273.60714
2640.26238	18239.17857
2642.91306	18209.89286
2645.56209	18247.60714
2648.20948	18254.32143
2650.85521	18176.32143
2653.4993	18163.17857
2656.14175	18173.46429
2658.78255	18157.60714
2661.42171	18159.75
2664.05923	18190.60714
2666.6951	18209.75
2669.32934	18193.89286
2671.96194	18206.60714
2674.59291	18200.89286
2677.22224	18234.89286
2679.84993	18179.60714
2682.476	18200.32143
2685.10043	18182.17857
2687.72324	18199.75
2690.34441	18149.89286
2692.96396	18155.03571
2695.58188	18135.75
2698.19818	18103.46429
2700.81285	18120.32143
2703.4259	18054.03571
2706.03733	18101.46429
2708.64714	18154.89286
2711.25533	18158.03571
2713.86191	18169.60714
2716.46687	18178.03571
2719.07021	18196.46429
2721.67194	18169.60714
2724.27206	18143.75
2726.87057	18205.75
2729.46747	18189.03571
2732.06276	18169.89286
2734.65644	18167.60714
2737.24852	18168.03571
2739.83899	18104.89286
2742.42786	18113.89286
2745.01513	18056.75
2747.60079	18108.46429
2750.18486	18079.60714
2752.76733	18060.75
2755.3482	18048.17857
2757.92747	18061.17857
2760.50515	18078.32143
2763.08123	18083.46429
2765.65573	17987.75
2768.22863	18001.89286
2770.79994	17967.75
2773.36967	18004.32143
2775.9378	17996.17857
2778.50435	17923.46429
2781.06932	17980.75
2783.6327	17941.89286
2786.1945	17889.32143
2788.75471	17907.75
2791.31335	17890.32143
2793.87041	17874.17857
2796.42589	17810.89286
2798.97979	17818.89286
2801.53212	17773.32143
2804.08288	17784.46429
2806.63206	17724.89286
2809.17967	17688.60714
2811.72571	17680.03571
2814.27018	17651.03571
2816.81308	17632.17857
2819.35442	17581.60714
2821.89419	17579.75
2824.43239	17540.17857
2826.96904	17570.60714
2829.50412	17549.03571
2832.03763	17522.17857
2834.56959	17526.75
2837.1	17540.46429
2839.62884	17488.60714
2842.15613	17450.03571
2844.68186	17482.32143
2847.20604	17448.75
2849.72867	17474.46429
2852.24974	17444.75
2854.76927	17492.03571
2857.28724	17426.89286
2859.80367	17455.89286
2862.31855	17397.32143
2864.83189	17371.32143
2867.34368	17359.03571
2869.85393	17377.46429
2872.36264	17329.60714
2874.8698	17342.60714
2877.37543	17371.60714
2879.87952	17346.60714
2882.38207	17312.89286
2884.88308	17333.17857
2887.38256	17362.17857
2889.88051	17369.17857
2892.37692	17384.17857
2894.8718	17370.89286
2897.36515	17383.60714
2899.85698	17413.03571
2902.34727	17482.60714
2904.83604	17448.75
2907.32328	17514.89286
2909.809	17491.46429
2912.29319	17509.89286
2914.77587	17513.03571
2917.25702	17493.03571
2919.73665	17493.89286
2922.21476	17524.89286
2924.69136	17474.89286
2927.16644	17492.32143
2929.64	17447.17857
2932.11205	17437.60714
2934.58258	17382.46429
2937.05161	17419.03571
2939.51912	17449.89286
2941.98513	17450.60714
2944.44962	17392.03571
2946.91261	17349.03571
2949.37409	17393.75
2951.83407	17368.75
2954.29254	17346.17857
2956.74951	17362.46429
2959.20498	17341.17857
2961.65895	17284.03571
2964.11142	17274.17857
2966.56239	17270.75
2969.01186	17256.60714
2971.45984	17209.46429
2973.90632	17225.32143
2976.35131	17170.75
2978.7948	17164.89286
2981.23681	17107.60714
2983.67732	17096.32143
2986.11635	17047.46429
2988.55388	17006.03571
2990.98993	16989.03571
2993.4245	16966.60714
2995.85758	16963.89286
2998.28917	16912.75
3000.71928	16906.89286
3003.14791	16887.60714
3005.57506	16863.03571
3008.00073	16860.75
3010.42493	16826.03571
3012.84764	16810.46429
3015.26888	16772.46429
3017.68865	16738.60714
3020.10694	16748.60714
3022.52376	16687.75
3024.9391	16669.46429
3027.35298	16631.46429
3029.76539	16663.89286
3032.17632	16655.32143
3034.5858	16608.75
3036.9938	16599.89286
3039.40034	16598.32143
3041.80542	16537.89286
3044.20903	16562.75
3046.61118	16576.89286
3049.01187	16524.75
3051.4111	16486.46429
3053.80888	16485.46429
3056.20519	16447.46429
3058.60005	16388.60714
3060.99345	16391.75
3063.3854	16362.17857
3065.7759	16283.75
3068.16494	16278.75
3070.55254	16207.03571
3072.93868	16175.75
3075.32338	16140.03571
3077.70662	16146.46429
3080.08842	16122.32143
3082.46878	16089.89286
3084.84769	16082.46429
3087.22515	16098.75
3089.60118	16094.75
3091.97576	16107.46429
3094.3489	16087.32143
3096.72061	16112.75
3099.09087	16122.60714
3101.4597	16086.75
3103.82709	16096.89286
3106.19305	16096.32143
3108.55757	16112.46429
3110.92066	16112.17857
3113.28232	16064.89286
3115.64255	16019.60714
3118.00134	16011.75
3120.35871	15999.03571
3122.71466	15954.03571
3125.06917	15940.03571
3127.42226	15857.32143
3129.77393	15909.60714
3132.12417	15941.75
3134.47299	15870.03571
3136.82039	15854.17857
3139.16636	15867.75
3141.51092	15896.46429
3143.85406	15904.89286
3146.19579	15906.46429
3148.53609	15901.75
3150.87499	15921.32143
3153.21246	15912.60714
3155.54853	15957.75
3157.88318	15946.46429
3160.21642	15945.03571
3162.54826	15984.46429
3164.87868	15959.17857
3167.2077	15936.17857
3169.5353	15960.17857
3171.86151	16002.60714
3174.18631	15943.03571
3176.5097	15935.32143
3178.83169	15916.17857
3181.15228	15938.03571
3183.47147	15892.60714
3185.78926	15891.03571
3188.10565	15907.17857
3190.42065	15895.32143
3192.73424	15908.60714
3195.04645	15863.75
3197.35725	15862.03571
3199.66667	15881.46429
3201.97469	15850.75
3204.28132	15869.60714
3206.58656	15958.17857
3208.8904	15942.89286
3211.19287	15912.89286
3213.49394	15970.32143
3215.79363	15938.46429
3218.09193	15951.17857
3220.38884	15985.75
3222.68438	16017.60714
3224.97853	15991.17857
3227.2713	15973.32143
3229.56269	15963.03571
3231.8527	15957.89286
3234.14133	15922.32143
3236.42858	15891.75
3238.71446	15898.32143
3240.99896	15849.89286
3243.28209	15814.75
3245.56384	15809.46429
3247.84423	15835.75
3250.12324	15817.89286
3252.40088	15818.17857
3254.67715	15810.03571
3256.95205	15796.89286
3259.22558	15807.17857
3261.49775	15808.60714
3263.76855	15791.60714
3266.03799	15783.03571
3268.30606	15766.32143
3270.57277	15746.32143
3272.83812	15735.17857
3275.10211	15661.32143
3277.36474	15670.75
3279.62601	15670.46429
3281.88593	15657.89286
3284.14448	15670.32143
3286.40168	15630.60714
3288.65753	15621.89286
3290.91202	15627.75
3293.16516	15571.03571
3295.41695	15601.46429
3297.66738	15490.32143
3299.91647	15458.32143
3302.16421	15330.89286
3304.4106	15272.75
3306.65564	15225.75
3308.89933	15092.32143
3311.14169	14993.03571
3313.38269	14907.75
3315.62236	14843.17857
3317.86068	14699.89286
3320.09766	14615.03571
3322.3333	14521.60714
3324.5676	14460.46429
3326.80056	14259.03571
3329.03219	14139.32143
3331.26248	3.17857
3333.49143	-0.67857
3335.71905	-0.53571
