Data from AgNPs_FTO_APTES_UA_20uM_CRN_10uM_R6G_10uM_NaF_0.1M_Addition_RamanShift__21__14-34-52-211.txt Node

Date: Thu Feb 17 14:34:52 GMT 2022
User: TCL
Spectrometer: QEP01345
Trigger mode: 4
Integration Time (sec): 7.000000E0
Scans to average: 10
Electric dark correction enabled: true
Nonlinearity correction enabled: false
Boxcar width: 0
XAxis mode: Raman Shifts
Number of Pixels in Spectrum: 1044
>>>>>Begin Spectral Data<<<<<
46.04893	-0.3375
50.45542	-2.2375
54.85868	-3.6375
59.25871	-1.6375
63.6555	126.0625
68.04907	128.7625
72.43941	133.2625
76.82654	135.3625
81.21044	137.9625
85.59113	145.6625
89.96862	146.6625
94.34289	147.3625
98.71396	154.6625
103.08183	162.7625
107.4465	167.0625
111.80798	168.9625
116.16626	174.1625
120.52136	185.5625
124.87327	191.9625
129.222	206.0625
133.56755	221.0625
137.90993	236.0625
142.24913	263.0625
146.58517	299.0625
150.91804	351.7625
155.24774	423.0625
159.57429	532.4625
163.89768	685.4625
168.21792	915.7625
172.53501	1268.9625
176.84895	1777.7625
181.15975	2512.8625
185.46741	3542.8625
189.77193	4907.0625
194.07331	6569.8625
198.37157	8500.2625
202.6667	10557.8625
206.9587	12564.2625
211.24758	14527.9625
215.53334	16468.7625
219.81599	18550.2625
224.09553	20821.8625
228.37195	23362.4625
232.64527	26188.5625
236.91549	29188.3625
241.18261	32240.4625
245.44663	35178.4625
249.70755	37811.9625
253.96539	40150.5625
258.22014	42151.3625
262.4718	43750.2625
266.72039	44983.9625
270.96589	45637.0625
275.20832	45770.6625
279.44768	45529.0625
283.68397	45122.9625
287.91719	44701.1625
292.14735	44415.6625
296.37445	44330.0625
300.59849	44354.2625
304.81948	44422.6625
309.03742	44422.4625
313.25231	44011.4625
317.46415	43364.4625
321.67296	42563.3625
325.87872	41946.3625
330.08145	41663.4625
334.28114	41724.0625
338.47781	42049.7625
342.67145	42623.8625
346.86207	43307.1625
351.04966	44162.6625
355.23424	45035.0625
359.4158	45850.7625
363.59435	46402.9625
367.76989	46868.0625
371.94243	47226.7625
376.11196	47549.3625
380.27849	47893.2625
384.44203	48124.3625
388.60257	48341.5625
392.76012	48658.8625
396.91468	49176.7625
401.06626	49802.5625
405.21485	50345.9625
409.36047	50326.4625
413.50311	49811.3625
417.64277	49435.7625
421.77947	49192.0625
425.9132	49349.3625
430.04396	49711.2625
434.17176	50072.1625
438.2966	50560.6625
442.41849	51445.2625
446.53742	52634.0625
450.6534	53940.1625
454.76644	55016.1625
458.87653	55430.6625
462.98368	55172.7625
467.08789	54552.0625
471.18916	53789.7625
475.2875	53035.1625
479.38291	52566.8625
483.4754	52103.2625
487.56496	51582.7625
491.6516	51142.2625
495.73531	50788.4625
499.81612	50610.1625
503.89401	50878.7625
507.96899	50953.6625
512.04106	50864.3625
516.11023	50792.3625
520.1765	50751.6625
524.23987	50653.5625
528.30034	50511.8625
532.35792	50222.4625
536.41261	49910.8625
540.46441	49565.1625
544.51333	49506.0625
548.55936	49916.6625
552.60252	50683.2625
556.64279	51498.7625
560.6802	52005.9625
564.71473	52178.3625
568.7464	52512.3625
572.7752	53214.6625
576.80114	53624.5625
580.82422	54132.0625
584.84444	54717.3625
588.86181	55500.7625
592.87633	56414.3625
596.888	56859.5625
600.89682	56951.8625
604.9028	58438.0625
608.90594	62695.3625
612.90624	67058.0625
616.90371	64015.1625
620.89834	56203.9625
624.89015	52792.5625
628.87913	52383.0625
632.86528	52216.8625
636.84862	51831.1625
640.82913	51263.3625
644.80683	50365.0625
648.78172	49737.1625
652.75379	49642.1625
656.72306	50214.2625
660.68952	50983.7625
664.65319	50942.8625
668.61405	50262.2625
672.57211	50152.5625
676.52738	50310.1625
680.47986	50295.2625
684.42955	50119.0625
688.37646	50135.6625
692.32058	50365.2625
696.26192	50792.2625
700.20048	51235.5625
704.13626	51498.6625
708.06928	51346.6625
711.99952	50992.9625
715.927	50854.5625
719.85171	51037.5625
723.77365	51039.7625
727.69284	50629.6625
731.60928	50349.3625
735.52295	50261.3625
739.43388	50376.8625
743.34206	50618.4625
747.24749	50780.3625
751.15017	51126.7625
755.05012	51679.2625
758.94733	52661.3625
762.8418	54512.4625
766.73354	57550.1625
770.62254	60518.0625
774.50882	61415.8625
778.39237	59349.3625
782.27321	55914.4625
786.15132	53147.2625
790.02671	51494.5625
793.89938	50718.1625
797.76935	50424.7625
801.6366	50323.5625
805.50115	50228.9625
809.36299	50101.9625
813.22213	49818.4625
817.07857	49742.0625
820.93231	49681.1625
824.78336	49691.4625
828.63172	49697.9625
832.47738	49739.2625
836.32036	49860.4625
840.16066	50130.7625
843.99827	50212.3625
847.8332	50206.1625
851.66546	50014.2625
855.49504	49920.7625
859.32195	49962.6625
863.1462	49872.0625
866.96777	49803.3625
870.78668	49776.5625
874.60293	49822.0625
878.41652	49831.6625
882.22745	49901.1625
886.03573	49967.2625
889.84136	49952.6625
893.64433	49730.0625
897.44466	49486.6625
901.24235	49422.4625
905.0374	49381.8625
908.8298	49292.4625
912.61957	49351.7625
916.40671	49714.7625
920.19121	50139.9625
923.97308	50550.8625
927.75233	50739.3625
931.52895	50604.7625
935.30295	50176.8625
939.07433	49605.4625
942.84309	49195.3625
946.60924	49043.2625
950.37278	48943.0625
954.13371	48809.4625
957.89203	48636.3625
961.64774	48471.4625
965.40086	48370.1625
969.15137	48270.0625
972.89929	48069.4625
976.64461	48044.7625
980.38733	48128.6625
984.12747	48265.4625
987.86502	48673.2625
991.59999	49270.3625
995.33237	50069.9625
999.06217	51394.5625
1002.78939	52826.2625
1006.51404	53665.7625
1010.23611	54065.5625
1013.95561	54317.3625
1017.67255	54469.1625
1021.38692	54165.3625
1025.09872	53919.9625
1028.80796	54400.8625
1032.51465	55598.6625
1036.21877	56700.7625
1039.92035	56701.7625
1043.61937	56048.7625
1047.31584	54821.2625
1051.00976	53449.0625
1054.70114	52817.9625
1058.38998	52592.1625
1062.07627	52755.6625
1065.76003	52876.3625
1069.44126	53080.8625
1073.11995	53402.3625
1076.79611	53794.6625
1080.46974	54091.7625
1084.14085	54554.9625
1087.80943	54983.2625
1091.47549	55188.3625
1095.13903	54926.6625
1098.80005	54369.6625
1102.45857	53759.9625
1106.11456	53470.8625
1109.76805	53549.3625
1113.41903	53983.5625
1117.06751	54365.2625
1120.71348	54805.7625
1124.35696	55164.1625
1127.99793	55395.7625
1131.63641	55443.7625
1135.2724	55106.8625
1138.90589	54648.6625
1142.5369	54421.3625
1146.16542	54258.8625
1149.79145	54274.3625
1153.415	54520.7625
1157.03607	55115.1625
1160.65467	55864.1625
1164.27079	57370.2625
1167.88443	59421.0625
1171.49561	62116.2625
1175.10432	65637.0625
1178.71056	70151.4625
1182.31434	74522.7625
1185.91565	76713.9625
1189.51451	76381.7625
1193.11091	74183.9625
1196.70485	71285.1625
1200.29634	68669.9625
1203.88538	66792.5625
1207.47197	65322.4625
1211.05612	63999.2625
1214.63782	63144.9625
1218.21708	62947.2625
1221.79391	63112.7625
1225.36829	63206.8625
1228.94024	62732.7625
1232.50976	61695.1625
1236.07685	60872.5625
1239.6415	60476.3625
1243.20374	60571.4625
1246.76355	61020.8625
1250.32093	61793.2625
1253.8759	62844.1625
1257.42845	64094.6625
1260.97859	65367.9625
1264.52631	66414.3625
1268.07163	67680.7625
1271.61453	69084.5625
1275.15503	70741.3625
1278.69312	72364.0625
1282.22882	73722.3625
1285.76211	74866.8625
1289.29301	76065.4625
1292.82151	77470.2625
1296.34761	79687.4625
1299.87133	82741.6625
1303.39266	86879.3625
1306.9116	91845.3625
1310.42815	96788.5625
1313.94233	100049.9625
1317.45412	100189.3625
1320.96354	98211.5625
1324.47058	95631.5625
1327.97525	93219.0625
1331.47754	91454.5625
1334.97747	90978.5625
1338.47502	91646.8625
1341.97022	92403.1625
1345.46305	92559.2625
1348.95352	92015.9625
1352.44163	91682.5625
1355.92738	92969.7625
1359.41078	96428.8625
1362.89183	99569.0625
1366.37053	97542.7625
1369.84688	90198.2625
1373.32088	81944.5625
1376.79254	76377.8625
1380.26186	73724.9625
1383.72883	72929.4625
1387.19347	72489.3625
1390.65578	71825.8625
1394.11575	71539.2625
1397.57339	71972.1625
1401.0287	73206.2625
1404.48168	74508.8625
1407.93234	75523.7625
1411.38068	75951.2625
1414.82669	75451.1625
1418.27039	73764.7625
1421.71177	71461.5625
1425.15083	69332.1625
1428.58758	68202.3625
1432.02203	68294.7625
1435.45416	69081.2625
1438.88399	70140.1625
1442.31151	71062.6625
1445.73673	71747.2625
1449.15965	72450.0625
1452.58027	72653.8625
1455.9986	72634.2625
1459.41463	72865.7625
1462.82837	73589.6625
1466.23982	74859.8625
1469.64898	76283.7625
1473.05586	77324.3625
1476.46045	77887.0625
1479.86276	77939.0625
1483.26279	77733.7625
1486.66054	77510.9625
1490.05602	77814.9625
1493.44922	78304.1625
1496.84016	78690.1625
1500.22882	79329.1625
1503.61521	80891.9625
1506.99934	83277.9625
1510.38121	85326.5625
1513.76081	85580.4625
1517.13816	83596.4625
1520.51324	80482.5625
1523.88607	77776.2625
1527.25665	76178.1625
1530.62498	75522.1625
1533.99105	75302.9625
1537.35488	75108.8625
1540.71647	74765.6625
1544.07581	74325.7625
1547.4329	73571.2625
1550.78776	72540.3625
1554.14038	71862.1625
1557.49077	71434.6625
1560.83892	71060.2625
1564.18484	70885.9625
1567.52853	70924.7625
1570.86999	70971.1625
1574.20922	71335.4625
1577.54624	71515.2625
1580.88103	71056.9625
1584.2136	70945.7625
1587.54395	72154.4625
1590.87208	74989.0625
1594.19801	79467.4625
1597.52172	84250.0625
1600.84321	86434.7625
1604.16251	84411.1625
1607.47959	79651.2625
1610.79447	74254.0625
1614.10715	69139.4625
1617.41763	65094.5625
1620.7259	62153.8625
1624.03199	60634.5625
1627.33587	60470.4625
1630.63757	61610.8625
1633.93707	64187.1625
1637.23439	68136.6625
1640.52951	73549.3625
1643.82246	79442.0625
1647.11321	83798.6625
1650.40179	84176.8625
1653.68819	79600.6625
1656.97241	71819.7625
1660.25446	64322.0625
1663.53433	58859.2625
1666.81203	55353.5625
1670.08756	53118.0625
1673.36092	51610.0625
1676.63211	50602.3625
1679.90115	49868.8625
1683.16801	49310.7625
1686.43272	48900.9625
1689.69527	48629.3625
1692.95567	48421.0625
1696.2139	48238.3625
1699.46999	48148.0625
1702.72392	48060.4625
1705.97571	48067.0625
1709.22535	47918.6625
1712.47284	47957.6625
1715.71819	47998.3625
1718.96139	47864.2625
1722.20246	47771.8625
1725.44139	47600.6625
1728.67818	47438.2625
1731.91284	47143.1625
1735.14537	47010.5625
1738.37576	46840.9625
1741.60403	46734.7625
1744.83017	46533.2625
1748.05418	46472.8625
1751.27607	46407.4625
1754.49584	46407.4625
1757.71349	46411.1625
1760.92903	46421.5625
1764.14244	46341.4625
1767.35375	46275.7625
1770.56294	46181.3625
1773.77002	46193.2625
1776.97499	46158.2625
1780.17785	46107.8625
1783.37861	46033.6625
1786.57727	45950.8625
1789.77382	45880.0625
1792.96828	45877.5625
1796.16064	45848.2625
1799.3509	45797.7625
1802.53907	45744.8625
1805.72514	45649.7625
1808.90913	45554.4625
1812.09102	45442.6625
1815.27083	45406.6625
1818.44856	45349.5625
1821.6242	45287.8625
1824.79776	45234.6625
1827.96924	45262.3625
1831.13864	45199.5625
1834.30597	45206.3625
1837.47122	45153.5625
1840.6344	45044.3625
1843.7955	45090.9625
1846.95454	45034.0625
1850.11151	45034.0625
1853.26642	45053.8625
1856.41926	45102.5625
1859.57004	45054.3625
1862.71876	45025.1625
1865.86542	45018.4625
1869.01003	44951.6625
1872.15258	44908.1625
1875.29308	44904.0625
1878.43152	44867.5625
1881.56792	44930.7625
1884.70227	44941.8625
1887.83457	44953.8625
1890.96482	44817.4625
1894.09304	44812.6625
1897.21921	44766.0625
1900.34335	44728.4625
1903.46544	44679.5625
1906.58551	44697.1625
1909.70353	44684.6625
1912.81953	44598.0625
1915.93349	44570.5625
1919.04543	44501.2625
1922.15534	44418.9625
1925.26322	44379.5625
1928.36908	44295.4625
1931.47292	44263.4625
1934.57473	44207.0625
1937.67453	44132.3625
1940.77232	44008.7625
1943.86808	43922.1625
1946.96184	43792.2625
1950.05358	43622.3625
1953.14331	43544.3625
1956.23103	43428.5625
1959.31675	43349.5625
1962.40046	43137.2625
1965.48217	43042.6625
1968.56188	42918.1625
1971.63959	42798.1625
1974.7153	42681.5625
1977.78901	42590.6625
1980.86073	42480.6625
1983.93046	42381.1625
1986.99819	42250.9625
1990.06394	42126.6625
1993.1277	42054.8625
1996.18947	41854.2625
1999.24925	41853.6625
2002.30706	41810.2625
2005.36288	41628.8625
2008.41672	41429.4625
2011.46859	41429.0625
2014.51848	41277.3625
2017.56639	41209.2625
2020.61233	41103.4625
2023.6563	41029.6625
2026.6983	40875.9625
2029.73833	40855.5625
2032.7764	40749.9625
2035.8125	40710.7625
2038.84664	40610.6625
2041.87881	40586.0625
2044.90903	40571.5625
2047.93729	40507.3625
2050.96359	40478.6625
2053.98794	40399.6625
2057.01034	40450.7625
2060.03078	40415.6625
2063.04927	40391.7625
2066.06582	40307.8625
2069.08042	40305.9625
2072.09307	40220.6625
2075.10378	40193.9625
2078.11255	40184.9625
2081.11938	40234.5625
2084.12426	40189.7625
2087.12722	40118.4625
2090.12824	40064.0625
2093.12732	40138.9625
2096.12447	40105.2625
2099.11969	40175.8625
2102.11299	40123.5625
2105.10435	40146.2625
2108.09379	40204.4625
2111.08131	40201.5625
2114.0669	40160.7625
2117.05057	40216.0625
2120.03233	40314.8625
2123.01216	40358.5625
2125.99008	40407.0625
2128.96609	40481.9625
2131.94018	40441.9625
2134.91236	40495.5625
2137.88263	40544.7625
2140.851	40515.9625
2143.81746	40557.6625
2146.78201	40592.7625
2149.74466	40670.8625
2152.7054	40639.9625
2155.66425	40681.3625
2158.6212	40657.5625
2161.57625	40632.0625
2164.52941	40609.3625
2167.48067	40607.8625
2170.43004	40585.8625
2173.37752	40528.0625
2176.32311	40647.9625
2179.26681	40631.8625
2182.20863	40647.7625
2185.14856	40717.1625
2188.08661	40666.6625
2191.02278	40641.9625
2193.95707	40629.9625
2196.88948	40662.8625
2199.82001	40621.1625
2202.74867	40574.3625
2205.67545	40571.1625
2208.60037	40556.3625
2211.52341	40515.9625
2214.44458	40533.8625
2217.36388	40485.4625
2220.28132	40425.0625
2223.1969	40290.7625
2226.11061	40244.1625
2229.02246	40154.5625
2231.93245	40097.9625
2234.84058	40012.6625
2237.74686	39900.8625
2240.65128	39885.3625
2243.55385	39853.7625
2246.45456	39860.7625
2249.35343	39850.9625
2252.25044	39803.1625
2255.14561	39707.9625
2258.03893	39652.6625
2260.93041	39564.3625
2263.82004	39525.2625
2266.70783	39473.9625
2269.59378	39375.3625
2272.4779	39317.3625
2275.36017	39228.0625
2278.24061	39184.8625
2281.11922	39047.8625
2283.996	38973.5625
2286.87094	39069.7625
2289.74405	38965.6625
2292.61534	38965.7625
2295.4848	38882.5625
2298.35243	38928.4625
2301.21824	38908.9625
2304.08223	38924.7625
2306.94439	38965.4625
2309.80474	39027.7625
2312.66327	38996.0625
2315.51999	38966.5625
2318.37489	38969.5625
2321.22797	38959.1625
2324.07925	38913.5625
2326.92871	38832.2625
2329.77637	38789.7625
2332.62222	38779.5625
2335.46626	38782.3625
2338.3085	38768.9625
2341.14893	38726.3625
2343.98756	38744.6625
2346.8244	38776.9625
2349.65943	38795.9625
2352.49267	38791.5625
2355.32411	38810.9625
2358.15376	38745.2625
2360.98161	38711.3625
2363.80768	38647.4625
2366.63195	38617.2625
2369.45444	38555.9625
2372.27514	38537.4625
2375.09405	38465.8625
2377.91118	38376.8625
2380.72652	38289.1625
2383.54009	38153.7625
2386.35187	38167.2625
2389.16188	38001.8625
2391.97011	37959.9625
2394.77657	37954.1625
2397.58125	37933.7625
2400.38416	37863.4625
2403.18529	37786.0625
2405.98466	37729.2625
2408.78226	37630.5625
2411.57809	37590.7625
2414.37216	37567.9625
2417.16446	37513.3625
2419.955	37456.6625
2422.74378	37408.4625
2425.5308	37399.3625
2428.31606	37382.0625
2431.09956	37376.8625
2433.88131	37310.8625
2436.6613	37363.5625
2439.43954	37350.7625
2442.21603	37350.5625
2444.99077	37231.0625
2447.76377	37232.7625
2450.53501	37199.9625
2453.30451	37229.1625
2456.07226	37163.3625
2458.83827	37121.0625
2461.60254	37101.7625
2464.36507	37107.2625
2467.12586	37137.2625
2469.88492	37124.1625
2472.64224	37149.7625
2475.39782	37120.7625
2478.15167	37190.5625
2480.90379	37176.3625
2483.65417	37210.7625
2486.40283	37234.5625
2489.14976	37191.7625
2491.89497	37188.7625
2494.63845	37266.3625
2497.3802	37227.6625
2500.12024	37258.8625
2502.85855	37175.6625
2505.59514	37197.4625
2508.33002	37097.7625
2511.06318	37092.7625
2513.79462	37073.7625
2516.52435	37005.9625
2519.25237	36911.4625
2521.97867	36933.8625
2524.70327	36963.4625
2527.42616	36949.1625
2530.14734	36886.5625
2532.86681	36854.7625
2535.58458	36860.0625
2538.30065	36847.7625
2541.01501	36849.5625
2543.72768	36845.5625
2546.43864	36754.8625
2549.14791	36745.1625
2551.85548	36687.9625
2554.56136	36597.8625
2557.26554	36503.7625
2559.96803	36465.0625
2562.66883	36487.5625
2565.36794	36476.6625
2568.06536	36428.4625
2570.7611	36371.7625
2573.45514	36308.9625
2576.14751	36321.9625
2578.83819	36245.3625
2581.52719	36317.4625
2584.21451	36229.5625
2586.90015	36244.1625
2589.58411	36185.6625
2592.2664	36185.5625
2594.94701	36145.1625
2597.62594	36154.2625
2600.30321	36119.4625
2602.9788	36137.3625
2605.65273	36121.5625
2608.32498	36147.9625
2610.99557	36062.7625
2613.66449	36119.6625
2616.33175	36099.7625
2618.99734	36078.6625
2621.66128	36059.0625
2624.32355	36065.7625
2626.98416	36065.8625
2629.64311	36051.1625
2632.30041	36078.7625
2634.95605	36029.7625
2637.61004	36036.7625
2640.26238	35969.7625
2642.91306	35847.0625
2645.56209	35789.4625
2648.20948	35856.0625
2650.85521	35795.6625
2653.4993	35784.2625
2656.14175	35781.0625
2658.78255	35852.2625
2661.42171	35817.0625
2664.05923	35904.8625
2666.6951	35859.6625
2669.32934	35918.3625
2671.96194	35899.4625
2674.59291	35958.8625
2677.22224	35950.4625
2679.84993	35947.8625
2682.476	35908.6625
2685.10043	35886.6625
2687.72324	35835.3625
2690.34441	35831.9625
2692.96396	35804.6625
2695.58188	35821.7625
2698.19818	35846.2625
2700.81285	35733.1625
2703.4259	35719.3625
2706.03733	35827.8625
2708.64714	35788.5625
2711.25533	35788.5625
2713.86191	35799.0625
2716.46687	35902.0625
2719.07021	35861.0625
2721.67194	35852.3625
2724.27206	35841.0625
2726.87057	35861.6625
2729.46747	35843.9625
2732.06276	35857.6625
2734.65644	35824.3625
2737.24852	35931.6625
2739.83899	35920.9625
2742.42786	35923.3625
2745.01513	35874.8625
2747.60079	35909.5625
2750.18486	35845.3625
2752.76733	35867.2625
2755.3482	35778.9625
2757.92747	35778.7625
2760.50515	35726.9625
2763.08123	35721.3625
2765.65573	35669.2625
2768.22863	35733.3625
2770.79994	35635.2625
2773.36967	35713.3625
2775.9378	35710.5625
2778.50435	35726.5625
2781.06932	35660.3625
2783.6327	35617.0625
2786.1945	35581.7625
2788.75471	35533.1625
2791.31335	35465.0625
2793.87041	35467.6625
2796.42589	35393.3625
2798.97979	35357.3625
2801.53212	35260.2625
2804.08288	35227.1625
2806.63206	35140.4625
2809.17967	35114.7625
2811.72571	35004.3625
2814.27018	34879.7625
2816.81308	34758.0625
2819.35442	34760.3625
2821.89419	34745.1625
2824.43239	34846.2625
2826.96904	34785.6625
2829.50412	34757.2625
2832.03763	34703.6625
2834.56959	34694.5625
2837.1	34636.0625
2839.62884	34612.0625
2842.15613	34496.8625
2844.68186	34485.0625
2847.20604	34436.9625
2849.72867	34451.0625
2852.24974	34388.7625
2854.76927	34346.2625
2857.28724	34304.1625
2859.80367	34358.8625
2862.31855	34310.3625
2864.83189	34253.6625
2867.34368	34189.6625
2869.85393	34212.5625
2872.36264	34182.7625
2874.8698	34201.1625
2877.37543	34112.6625
2879.87952	34106.0625
2882.38207	34079.1625
2884.88308	34107.2625
2887.38256	34174.8625
2889.88051	34148.1625
2892.37692	34174.3625
2894.8718	34178.0625
2897.36515	34226.8625
2899.85698	34234.0625
2902.34727	34261.9625
2904.83604	34278.1625
2907.32328	34331.9625
2909.809	34328.4625
2912.29319	34333.1625
2914.77587	34395.5625
2917.25702	34399.8625
2919.73665	34304.0625
2922.21476	34351.3625
2924.69136	34297.8625
2927.16644	34264.1625
2929.64	34195.5625
2932.11205	34123.1625
2934.58258	34064.1625
2937.05161	34168.9625
2939.51912	34172.9625
2941.98513	34147.9625
2944.44962	34094.1625
2946.91261	34041.5625
2949.37409	34081.2625
2951.83407	34094.1625
2954.29254	34074.0625
2956.74951	34039.9625
2959.20498	34025.4625
2961.65895	34005.0625
2964.11142	34007.3625
2966.56239	33942.9625
2969.01186	33951.7625
2971.45984	33879.9625
2973.90632	33840.2625
2976.35131	33809.4625
2978.7948	33706.4625
2981.23681	33674.6625
2983.67732	33633.5625
2986.11635	33570.7625
2988.55388	33515.8625
2990.98993	33467.7625
2993.4245	33369.8625
2995.85758	33385.8625
2998.28917	33292.5625
3000.71928	33230.9625
3003.14791	33153.5625
3005.57506	33158.8625
3008.00073	32998.7625
3010.42493	32999.4625
3012.84764	32891.2625
3015.26888	32900.6625
3017.68865	32871.8625
3020.10694	32816.8625
3022.52376	32724.1625
3024.9391	32732.4625
3027.35298	32662.6625
3029.76539	32679.0625
3032.17632	32638.4625
3034.5858	32579.7625
3036.9938	32576.1625
3039.40034	32556.2625
3041.80542	32516.7625
3044.20903	32473.2625
3046.61118	32426.0625
3049.01187	32332.4625
3051.4111	32314.8625
3053.80888	32237.8625
3056.20519	32158.3625
3058.60005	32096.1625
3060.99345	32067.3625
3063.3854	32003.4625
3065.7759	31860.2625
3068.16494	31761.8625
3070.55254	31709.1625
3072.93868	31634.8625
3075.32338	31509.2625
3077.70662	31500.0625
3080.08842	31355.6625
3082.46878	31322.9625
3084.84769	31244.6625
3087.22515	31269.0625
3089.60118	31248.2625
3091.97576	31268.9625
3094.3489	31233.6625
3096.72061	31238.6625
3099.09087	31256.3625
3101.4597	31215.4625
3103.82709	31210.6625
3106.19305	31193.9625
3108.55757	31203.6625
3110.92066	31115.3625
3113.28232	31103.6625
3115.64255	30973.7625
3118.00134	30924.4625
3120.35871	30816.9625
3122.71466	30764.2625
3125.06917	30707.8625
3127.42226	30667.5625
3129.77393	30670.5625
3132.12417	30625.8625
3134.47299	30578.5625
3136.82039	30562.1625
3139.16636	30569.3625
3141.51092	30534.3625
3143.85406	30546.1625
3146.19579	30534.2625
3148.53609	30540.3625
3150.87499	30593.1625
3153.21246	30590.4625
3155.54853	30636.8625
3157.88318	30592.4625
3160.21642	30574.6625
3162.54826	30559.6625
3164.87868	30539.6625
3167.2077	30472.3625
3169.5353	30442.5625
3171.86151	30425.9625
3174.18631	30460.6625
3176.5097	30405.4625
3178.83169	30388.1625
3181.15228	30333.4625
3183.47147	30269.0625
3185.78926	30298.5625
3188.10565	30264.2625
3190.42065	30244.6625
3192.73424	30201.8625
3195.04645	30104.3625
3197.35725	30121.0625
3199.66667	30144.2625
3201.97469	30154.5625
3204.28132	30092.8625
3206.58656	30114.9625
3208.8904	30090.5625
3211.19287	30125.6625
3213.49394	30124.3625
3215.79363	30153.8625
3218.09193	30177.6625
3220.38884	30122.0625
3222.68438	30183.4625
3224.97853	30079.5625
3227.2713	30110.3625
3229.56269	30058.6625
3231.8527	30057.8625
3234.14133	30027.0625
3236.42858	29927.2625
3238.71446	29898.8625
3240.99896	29841.3625
3243.28209	29882.6625
3245.56384	29821.1625
3247.84423	29813.7625
3250.12324	29740.7625
3252.40088	29749.0625
3254.67715	29754.3625
3256.95205	29724.2625
3259.22558	29684.0625
3261.49775	29629.7625
3263.76855	29635.3625
3266.03799	29586.6625
3268.30606	29515.9625
3270.57277	29465.2625
3272.83812	29441.4625
3275.10211	29318.0625
3277.36474	29345.4625
3279.62601	29357.7625
3281.88593	29263.9625
3284.14448	29308.6625
3286.40168	29258.5625
3288.65753	29246.5625
3290.91202	29218.9625
3293.16516	29162.9625
3295.41695	29104.4625
3297.66738	28973.3625
3299.91647	28820.8625
3302.16421	28660.9625
3304.4106	28488.2625
3306.65564	28324.9625
3308.89933	28131.0625
3311.14169	28010.3625
3313.38269	27796.5625
3315.62236	27698.0625
3317.86068	27448.8625
3320.09766	27217.9625
3322.3333	27023.3625
3324.5676	26927.0625
3326.80056	26540.3625
3329.03219	26386.6625
3331.26248	7.4625
3333.49143	2.0625
3335.71905	-0.7375
