Data from AgNPs_FTO_APTES_UA_20uM_CRN_100uM_R6G_10uM_NaF_0.1M_Addition_RamanShift__15__17-36-04-882.txt Node

Date: Thu Feb 17 17:36:04 GMT 2022
User: TCL
Spectrometer: QEP01345
Trigger mode: 4
Integration Time (sec): 1.000000E1
Scans to average: 7
Electric dark correction enabled: true
Nonlinearity correction enabled: false
Boxcar width: 0
XAxis mode: Raman Shifts
Number of Pixels in Spectrum: 1044
>>>>>Begin Spectral Data<<<<<
46.04893	-0.19643
50.45542	-0.33929
54.85868	0.08929
59.25871	-0.48214
63.6555	73.66071
68.04907	79.51786
72.43941	79.94643
76.82654	85.51786
81.21044	88.66071
85.59113	94.08929
89.96862	95.375
94.34289	95.375
98.71396	106.375
103.08183	104.66071
107.4465	108.66071
111.80798	107.23214
116.16626	107.94643
120.52136	113.23214
124.87327	118.51786
129.222	123.51786
133.56755	124.94643
137.90993	140.80357
142.24913	147.375
146.58517	165.08929
150.91804	185.66071
155.24774	217.08929
159.57429	264.23214
163.89768	344.23214
168.21792	448.08929
172.53501	602.375
176.84895	846.51786
181.15975	1197.51786
185.46741	1700.375
189.77193	2356.80357
194.07331	3174.23214
198.37157	4123.80357
202.6667	5105.66071
206.9587	6099.08929
211.24758	7079.08929
215.53334	8044.08929
219.81599	9040.375
224.09553	10124.51786
228.37195	11326.94643
232.64527	12694.08929
236.91549	14168.66071
241.18261	15618.94643
245.44663	16997.66071
249.70755	18245.23214
253.96539	19378.375
258.22014	20291.08929
262.4718	21006.375
266.72039	21524.375
270.96589	21792.66071
275.20832	21813.66071
279.44768	21576.94643
283.68397	21255.08929
287.91719	20958.80357
292.14735	20706.80357
296.37445	20634.375
300.59849	20714.66071
304.81948	20824.94643
309.03742	20852.80357
313.25231	20741.375
317.46415	20437.08929
321.67296	20104.375
325.87872	19799.375
330.08145	19723.08929
334.28114	19777.51786
338.47781	19953.66071
342.67145	20221.80357
346.86207	20605.66071
351.04966	21042.94643
355.23424	21489.94643
359.4158	21930.23214
363.59435	22320.08929
367.76989	22542.80357
371.94243	22786.94643
376.11196	22946.08929
380.27849	23087.66071
384.44203	23221.08929
388.60257	23296.80357
392.76012	23382.94643
396.91468	23520.08929
401.06626	23806.375
405.21485	24025.80357
409.36047	24036.66071
413.50311	23783.375
417.64277	23469.23214
421.77947	23331.08929
425.9132	23343.66071
430.04396	23420.08929
434.17176	23571.375
438.2966	23821.66071
442.41849	24142.23214
446.53742	24558.08929
450.6534	25047.23214
454.76644	25377.66071
458.87653	25571.80357
462.98368	25524.94643
467.08789	25352.08929
471.18916	25105.94643
475.2875	24862.66071
479.38291	24692.23214
483.4754	24507.375
487.56496	24370.23214
491.6516	24311.08929
495.73531	24251.66071
499.81612	24311.375
503.89401	24403.23214
507.96899	24562.66071
512.04106	24626.66071
516.11023	24769.51786
520.1765	24821.94643
524.23987	24866.94643
528.30034	24826.375
532.35792	24785.08929
536.41261	24688.51786
540.46441	24523.80357
544.51333	24435.08929
548.55936	24425.51786
552.60252	24609.375
556.64279	24817.80357
560.6802	24902.66071
564.71473	24897.66071
568.7464	25000.08929
572.7752	25120.08929
576.80114	25144.23214
580.82422	25083.51786
584.84444	25224.375
588.86181	25481.08929
592.87633	25839.94643
596.888	26175.51786
600.89682	26363.375
604.9028	27153.66071
608.90594	29328.80357
612.90624	31935.80357
616.90371	31093.08929
620.89834	27432.80357
624.89015	25710.94643
628.87913	25468.80357
632.86528	25506.375
636.84862	25478.08929
640.82913	25317.08929
644.80683	24973.23214
648.78172	24693.80357
652.75379	24685.23214
656.72306	24915.80357
660.68952	25302.08929
664.65319	25271.08929
668.61405	25076.66071
672.57211	25040.94643
676.52738	25190.94643
680.47986	25211.94643
684.42955	25184.23214
688.37646	25114.23214
692.32058	25090.94643
696.26192	25134.23214
700.20048	25291.23214
704.13626	25348.08929
708.06928	25189.23214
711.99952	25070.08929
715.927	24999.51786
719.85171	25028.94643
723.77365	25007.08929
727.69284	25044.375
731.60928	24990.66071
735.52295	24978.51786
739.43388	24955.08929
743.34206	25061.94643
747.24749	25084.375
751.15017	25083.66071
755.05012	25165.08929
758.94733	25415.08929
762.8418	26077.51786
766.73354	27347.08929
770.62254	28754.23214
774.50882	29616.08929
778.39237	29163.94643
782.27321	27661.23214
786.15132	26251.375
790.02671	25438.51786
793.89938	24951.94643
797.76935	24815.08929
801.6366	24802.80357
805.50115	24733.51786
809.36299	24679.375
813.22213	24584.51786
817.07857	24530.23214
820.93231	24516.80357
824.78336	24562.375
828.63172	24550.66071
832.47738	24542.08929
836.32036	24605.08929
840.16066	24670.80357
843.99827	24719.51786
847.8332	24731.375
851.66546	24689.375
855.49504	24685.66071
859.32195	24773.375
863.1462	24793.23214
866.96777	24847.94643
870.78668	24805.375
874.60293	24812.94643
878.41652	24837.66071
882.22745	24865.66071
886.03573	24888.08929
889.84136	24884.80357
893.64433	24804.51786
897.44466	24695.23214
901.24235	24637.80357
905.0374	24512.375
908.8298	24388.375
912.61957	24411.51786
916.40671	24476.66071
920.19121	24552.51786
923.97308	24684.23214
927.75233	24801.66071
931.52895	24873.375
935.30295	24861.66071
939.07433	24648.66071
942.84309	24405.08929
946.60924	24286.80357
950.37278	24244.51786
954.13371	24119.23214
957.89203	23988.23214
961.64774	23914.94643
965.40086	23837.80357
969.15137	23751.08929
972.89929	23705.23214
976.64461	23727.375
980.38733	23771.375
984.12747	23849.08929
987.86502	24052.375
991.59999	24232.23214
995.33237	24489.08929
999.06217	24908.80357
1002.78939	25388.80357
1006.51404	25609.80357
1010.23611	25638.51786
1013.95561	25818.375
1017.67255	25848.66071
1021.38692	25758.08929
1025.09872	25690.375
1028.80796	25812.23214
1032.51465	26289.23214
1036.21877	26831.80357
1039.92035	26873.66071
1043.61937	26624.66071
1047.31584	26147.80357
1051.00976	25698.375
1054.70114	25453.51786
1058.38998	25355.80357
1062.07627	25360.66071
1065.76003	25341.66071
1069.44126	25293.66071
1073.11995	25371.08929
1076.79611	25532.80357
1080.46974	25675.51786
1084.14085	25820.23214
1087.80943	25980.375
1091.47549	26038.80357
1095.13903	25919.80357
1098.80005	25713.66071
1102.45857	25545.375
1106.11456	25527.66071
1109.76805	25550.08929
1113.41903	25744.23214
1117.06751	25922.80357
1120.71348	26109.66071
1124.35696	26359.80357
1127.99793	26534.94643
1131.63641	26712.80357
1135.2724	26496.80357
1138.90589	26178.66071
1142.5369	25858.94643
1146.16542	25660.51786
1149.79145	25522.51786
1153.415	25447.51786
1157.03607	25417.51786
1160.65467	25621.08929
1164.27079	26075.23214
1167.88443	26745.375
1171.49561	27592.375
1175.10432	28808.80357
1178.71056	30374.80357
1182.31434	31984.94643
1185.91565	32762.51786
1189.51451	32649.94643
1193.11091	31785.375
1196.70485	30597.23214
1200.29634	29673.80357
1203.88538	28931.375
1207.47197	28227.375
1211.05612	27633.66071
1214.63782	27303.94643
1218.21708	27242.80357
1221.79391	27287.80357
1225.36829	27440.375
1228.94024	27420.375
1232.50976	27137.375
1236.07685	26848.94643
1239.6415	26746.66071
1243.20374	26765.80357
1246.76355	26970.23214
1250.32093	27227.08929
1253.8759	27579.66071
1257.42845	27976.08929
1260.97859	28367.23214
1264.52631	28764.23214
1268.07163	29150.94643
1271.61453	29686.66071
1275.15503	30207.94643
1278.69312	30706.08929
1282.22882	31109.66071
1285.76211	31314.51786
1289.29301	31560.375
1292.82151	31948.94643
1296.34761	32494.51786
1299.87133	33460.08929
1303.39266	34844.23214
1306.9116	36735.94643
1310.42815	38755.375
1313.94233	39837.51786
1317.45412	39524.80357
1320.96354	38036.66071
1324.47058	36403.80357
1327.97525	35067.51786
1331.47754	34113.80357
1334.97747	33596.08929
1338.47502	33664.08929
1341.97022	34021.94643
1345.46305	34505.66071
1348.95352	35136.80357
1352.44163	36132.51786
1355.92738	37689.66071
1359.41078	39813.94643
1362.89183	41646.375
1366.37053	40926.51786
1369.84688	37522.08929
1373.32088	33960.94643
1376.79254	31502.66071
1380.26186	30282.51786
1383.72883	29704.51786
1387.19347	29236.66071
1390.65578	28730.94643
1394.11575	28353.51786
1397.57339	28253.375
1401.0287	28332.94643
1404.48168	28498.08929
1407.93234	28642.51786
1411.38068	28750.94643
1414.82669	28834.80357
1418.27039	28697.80357
1421.71177	28394.80357
1425.15083	27998.94643
1428.58758	27804.66071
1432.02203	27814.375
1435.45416	28028.375
1438.88399	28270.375
1442.31151	28388.94643
1445.73673	28461.08929
1449.15965	28569.80357
1452.58027	28542.08929
1455.9986	28469.51786
1459.41463	28477.375
1462.82837	28651.375
1466.23982	29033.08929
1469.64898	29451.08929
1473.05586	29780.66071
1476.46045	30035.08929
1479.86276	30217.94643
1483.26279	30276.375
1486.66054	30394.08929
1490.05602	30624.375
1493.44922	30913.80357
1496.84016	31395.08929
1500.22882	32117.94643
1503.61521	33235.80357
1506.99934	34682.66071
1510.38121	35939.66071
1513.76081	36151.23214
1517.13816	35189.94643
1520.51324	33495.80357
1523.88607	31803.94643
1527.25665	30677.51786
1530.62498	30121.80357
1533.99105	29748.08929
1537.35488	29578.375
1540.71647	29566.08929
1544.07581	29393.51786
1547.4329	29360.51786
1550.78776	29265.23214
1554.14038	29132.94643
1557.49077	29176.80357
1560.83892	29229.94643
1564.18484	29294.23214
1567.52853	29407.51786
1570.86999	29542.66071
1574.20922	29723.66071
1577.54624	29727.94643
1580.88103	29423.80357
1584.2136	29015.51786
1587.54395	28903.08929
1590.87208	29439.08929
1594.19801	30634.375
1597.52172	32049.66071
1600.84321	32844.66071
1604.16251	32374.51786
1607.47959	31139.94643
1610.79447	29653.94643
1614.10715	28239.51786
1617.41763	27157.51786
1620.7259	26354.23214
1624.03199	25938.51786
1627.33587	25886.80357
1630.63757	26213.66071
1633.93707	26869.94643
1637.23439	27879.80357
1640.52951	29197.23214
1643.82246	30938.23214
1647.11321	32444.66071
1650.40179	33089.23214
1653.68819	31939.375
1656.97241	29683.80357
1660.25446	27364.23214
1663.53433	25740.51786
1666.81203	24710.94643
1670.08756	24085.08929
1673.36092	23654.08929
1676.63211	23427.51786
1679.90115	23158.94643
1683.16801	23022.66071
1686.43272	22867.94643
1689.69527	22793.94643
1692.95567	22703.80357
1696.2139	22655.51786
1699.46999	22637.51786
1702.72392	22603.08929
1705.97571	22562.375
1709.22535	22520.23214
1712.47284	22540.80357
1715.71819	22512.51786
1718.96139	22457.66071
1722.20246	22414.66071
1725.44139	22367.94643
1728.67818	22305.80357
1731.91284	22241.08929
1735.14537	22194.80357
1738.37576	22112.23214
1741.60403	22080.80357
1744.83017	22056.94643
1748.05418	22025.66071
1751.27607	22014.375
1754.49584	21984.94643
1757.71349	22027.51786
1760.92903	21968.51786
1764.14244	21936.23214
1767.35375	21949.66071
1770.56294	21890.375
1773.77002	21826.94643
1776.97499	21822.23214
1780.17785	21799.51786
1783.37861	21777.08929
1786.57727	21741.08929
1789.77382	21696.23214
1792.96828	21649.80357
1796.16064	21652.08929
1799.3509	21595.375
1802.53907	21597.08929
1805.72514	21514.375
1808.90913	21482.08929
1812.09102	21506.08929
1815.27083	21449.94643
1818.44856	21392.80357
1821.6242	21402.375
1824.79776	21369.51786
1827.96924	21283.51786
1831.13864	21297.51786
1834.30597	21271.80357
1837.47122	21326.66071
1840.6344	21261.375
1843.7955	21289.66071
1846.95454	21272.94643
1850.11151	21237.375
1853.26642	21238.66071
1856.41926	21197.80357
1859.57004	21186.08929
1862.71876	21231.23214
1865.86542	21242.66071
1869.01003	21194.51786
1872.15258	21206.375
1875.29308	21184.80357
1878.43152	21157.66071
1881.56792	21146.08929
1884.70227	21146.66071
1887.83457	21103.51786
1890.96482	21093.375
1894.09304	21073.51786
1897.21921	21043.94643
1900.34335	21059.23214
1903.46544	21017.375
1906.58551	21009.375
1909.70353	20991.66071
1912.81953	20957.375
1915.93349	20943.80357
1919.04543	20899.375
1922.15534	20905.08929
1925.26322	20892.23214
1928.36908	20836.80357
1931.47292	20825.375
1934.57473	20798.66071
1937.67453	20748.66071
1940.77232	20709.94643
1943.86808	20637.80357
1946.96184	20609.08929
1950.05358	20545.375
1953.14331	20538.375
1956.23103	20477.375
1959.31675	20419.375
1962.40046	20365.23214
1965.48217	20323.66071
1968.56188	20267.23214
1971.63959	20225.51786
1974.7153	20160.80357
1977.78901	20130.23214
1980.86073	20018.23214
1983.93046	20027.80357
1986.99819	19948.08929
1990.06394	19858.66071
1993.1277	19860.94643
1996.18947	19801.66071
1999.24925	19694.51786
2002.30706	19624.94643
2005.36288	19641.51786
2008.41672	19575.94643
2011.46859	19560.94643
2014.51848	19483.08929
2017.56639	19436.66071
2020.61233	19386.08929
2023.6563	19339.23214
2026.6983	19314.375
2029.73833	19266.23214
2032.7764	19256.80357
2035.8125	19223.375
2038.84664	19186.80357
2041.87881	19190.80357
2044.90903	19105.23214
2047.93729	19114.66071
2050.96359	19115.51786
2053.98794	19068.94643
2057.01034	19047.51786
2060.03078	19022.51786
2063.04927	19012.23214
2066.06582	18987.94643
2069.08042	18983.51786
2072.09307	18988.94643
2075.10378	19008.23214
2078.11255	18966.94643
2081.11938	19000.80357
2084.12426	18988.51786
2087.12722	18989.66071
2090.12824	18964.08929
2093.12732	18968.51786
2096.12447	18970.51786
2099.11969	18982.66071
2102.11299	19018.375
2105.10435	19032.08929
2108.09379	19028.51786
2111.08131	19032.23214
2114.0669	19074.66071
2117.05057	19065.51786
2120.03233	19044.51786
2123.01216	19097.94643
2125.99008	19166.375
2128.96609	19168.08929
2131.94018	19211.66071
2134.91236	19190.08929
2137.88263	19203.66071
2140.851	19169.08929
2143.81746	19284.08929
2146.78201	19224.80357
2149.74466	19275.80357
2152.7054	19292.23214
2155.66425	19269.66071
2158.6212	19274.23214
2161.57625	19239.375
2164.52941	19248.23214
2167.48067	19213.94643
2170.43004	19217.23214
2173.37752	19272.80357
2176.32311	19253.51786
2179.26681	19209.23214
2182.20863	19271.66071
2185.14856	19322.51786
2188.08661	19249.375
2191.02278	19270.08929
2193.95707	19284.08929
2196.88948	19286.08929
2199.82001	19255.80357
2202.74867	19222.08929
2205.67545	19249.23214
2208.60037	19248.375
2211.52341	19212.80357
2214.44458	19162.375
2217.36388	19158.80357
2220.28132	19130.94643
2223.1969	19101.23214
2226.11061	19061.08929
2229.02246	19053.51786
2231.93245	19012.375
2234.84058	18949.51786
2237.74686	18894.08929
2240.65128	18913.94643
2243.55385	18894.08929
2246.45456	18905.08929
2249.35343	18895.375
2252.25044	18859.66071
2255.14561	18816.80357
2258.03893	18823.375
2260.93041	18779.23214
2263.82004	18741.23214
2266.70783	18736.08929
2269.59378	18651.08929
2272.4779	18617.94643
2275.36017	18588.66071
2278.24061	18595.23214
2281.11922	18516.23214
2283.996	18550.80357
2286.87094	18494.375
2289.74405	18475.08929
2292.61534	18478.94643
2295.4848	18444.94643
2298.35243	18484.66071
2301.21824	18510.94643
2304.08223	18474.51786
2306.94439	18478.51786
2309.80474	18472.23214
2312.66327	18473.23214
2315.51999	18460.375
2318.37489	18493.51786
2321.22797	18472.51786
2324.07925	18396.08929
2326.92871	18385.66071
2329.77637	18353.51786
2332.62222	18350.375
2335.46626	18352.94643
2338.3085	18349.23214
2341.14893	18314.80357
2343.98756	18324.80357
2346.8244	18319.23214
2349.65943	18302.23214
2352.49267	18293.23214
2355.32411	18339.08929
2358.15376	18330.23214
2360.98161	18272.375
2363.80768	18247.375
2366.63195	18216.94643
2369.45444	18191.66071
2372.27514	18181.80357
2375.09405	18142.66071
2377.91118	18101.08929
2380.72652	18094.08929
2383.54009	18030.51786
2386.35187	18039.08929
2389.16188	17974.23214
2391.97011	17961.66071
2394.77657	17937.80357
2397.58125	17963.23214
2400.38416	17919.08929
2403.18529	17899.51786
2405.98466	17857.94643
2408.78226	17837.94643
2411.57809	17823.51786
2414.37216	17770.51786
2417.16446	17741.94643
2419.955	17717.08929
2422.74378	17770.08929
2425.5308	17704.51786
2428.31606	17662.08929
2431.09956	17664.23214
2433.88131	17645.80357
2436.6613	17644.08929
2439.43954	17668.23214
2442.21603	17653.66071
2444.99077	17644.51786
2447.76377	17681.23214
2450.53501	17651.375
2453.30451	17619.375
2456.07226	17562.51786
2458.83827	17544.375
2461.60254	17558.375
2464.36507	17520.66071
2467.12586	17511.23214
2469.88492	17487.375
2472.64224	17519.23214
2475.39782	17551.08929
2478.15167	17531.94643
2480.90379	17509.08929
2483.65417	17567.80357
2486.40283	17593.80357
2489.14976	17577.94643
2491.89497	17559.66071
2494.63845	17571.23214
2497.3802	17580.375
2500.12024	17561.51786
2502.85855	17528.80357
2505.59514	17537.23214
2508.33002	17473.94643
2511.06318	17404.94643
2513.79462	17437.66071
2516.52435	17410.08929
2519.25237	17372.08929
2521.97867	17386.80357
2524.70327	17380.51786
2527.42616	17360.23214
2530.14734	17334.94643
2532.86681	17304.23214
2535.58458	17344.66071
2538.30065	17291.80357
2541.01501	17323.80357
2543.72768	17272.80357
2546.43864	17265.80357
2549.14791	17204.51786
2551.85548	17179.66071
2554.56136	17194.94643
2557.26554	17163.08929
2559.96803	17138.80357
2562.66883	17128.375
2565.36794	17098.08929
2568.06536	17075.66071
2570.7611	17039.51786
2573.45514	17037.94643
2576.14751	17000.80357
2578.83819	16993.375
2581.52719	17022.51786
2584.21451	16986.08929
2586.90015	16963.94643
2589.58411	16949.08929
2592.2664	16948.94643
2594.94701	16908.94643
2597.62594	16871.51786
2600.30321	16813.66071
2602.9788	16840.51786
2605.65273	16830.51786
2608.32498	16815.94643
2610.99557	16791.23214
2613.66449	16807.94643
2616.33175	16767.51786
2618.99734	16786.80357
2621.66128	16781.08929
2624.32355	16767.375
2626.98416	16753.66071
2629.64311	16719.23214
2632.30041	16721.375
2634.95605	16721.66071
2637.61004	16668.51786
2640.26238	16646.51786
2642.91306	16648.08929
2645.56209	16661.66071
2648.20948	16633.66071
2650.85521	16621.23214
2653.4993	16633.66071
2656.14175	16610.51786
2658.78255	16611.94643
2661.42171	16588.08929
2664.05923	16610.08929
2666.6951	16596.23214
2669.32934	16656.51786
2671.96194	16628.375
2674.59291	16669.375
2677.22224	16603.66071
2679.84993	16636.375
2682.476	16599.51786
2685.10043	16597.23214
2687.72324	16555.23214
2690.34441	16536.51786
2692.96396	16581.08929
2695.58188	16570.08929
2698.19818	16552.08929
2700.81285	16552.80357
2703.4259	16516.80357
2706.03733	16520.66071
2708.64714	16592.66071
2711.25533	16596.08929
2713.86191	16613.08929
2716.46687	16616.94643
2719.07021	16621.94643
2721.67194	16606.23214
2724.27206	16583.08929
2726.87057	16628.80357
2729.46747	16614.94643
2732.06276	16640.08929
2734.65644	16621.66071
2737.24852	16586.08929
2739.83899	16543.23214
2742.42786	16595.94643
2745.01513	16520.80357
2747.60079	16511.94643
2750.18486	16535.66071
2752.76733	16495.94643
2755.3482	16490.23214
2757.92747	16501.66071
2760.50515	16484.23214
2763.08123	16508.94643
2765.65573	16468.08929
2768.22863	16452.66071
2770.79994	16423.23214
2773.36967	16424.94643
2775.9378	16409.51786
2778.50435	16385.51786
2781.06932	16385.375
2783.6327	16357.08929
2786.1945	16356.80357
2788.75471	16341.23214
2791.31335	16285.94643
2793.87041	16298.375
2796.42589	16273.80357
2798.97979	16242.08929
2801.53212	16210.66071
2804.08288	16220.94643
2806.63206	16156.375
2809.17967	16124.80357
2811.72571	16087.51786
2814.27018	16096.08929
2816.81308	16041.23214
2819.35442	16026.80357
2821.89419	15969.51786
2824.43239	15976.80357
2826.96904	15955.66071
2829.50412	15925.51786
2832.03763	15939.80357
2834.56959	15979.66071
2837.1	15934.08929
2839.62884	15940.375
2842.15613	15862.375
2844.68186	15910.80357
2847.20604	15905.94643
2849.72867	15876.80357
2852.24974	15877.08929
2854.76927	15846.66071
2857.28724	15856.66071
2859.80367	15836.23214
2862.31855	15825.08929
2864.83189	15816.94643
2867.34368	15716.80357
2869.85393	15804.375
2872.36264	15763.08929
2874.8698	15768.66071
2877.37543	15774.51786
2879.87952	15775.375
2882.38207	15741.08929
2884.88308	15739.94643
2887.38256	15761.375
2889.88051	15799.66071
2892.37692	15770.375
2894.8718	15786.08929
2897.36515	15810.23214
2899.85698	15814.375
2902.34727	15858.23214
2904.83604	15848.08929
2907.32328	15867.51786
2909.809	15829.08929
2912.29319	15938.94643
2914.77587	15893.94643
2917.25702	15914.23214
2919.73665	15909.23214
2922.21476	15906.94643
2924.69136	15912.66071
2927.16644	15902.51786
2929.64	15878.80357
2932.11205	15876.23214
2934.58258	15797.66071
2937.05161	15833.80357
2939.51912	15862.23214
2941.98513	15859.66071
2944.44962	15863.66071
2946.91261	15789.08929
2949.37409	15846.94643
2951.83407	15848.80357
2954.29254	15831.23214
2956.74951	15814.80357
2959.20498	15811.66071
2961.65895	15778.66071
2964.11142	15765.80357
2966.56239	15753.80357
2969.01186	15740.51786
2971.45984	15748.08929
2973.90632	15722.23214
2976.35131	15649.66071
2978.7948	15672.375
2981.23681	15624.80357
2983.67732	15608.51786
2986.11635	15571.23214
2988.55388	15571.08929
2990.98993	15566.23214
2993.4245	15526.51786
2995.85758	15505.51786
2998.28917	15470.80357
3000.71928	15421.66071
3003.14791	15392.94643
3005.57506	15431.23214
3008.00073	15396.94643
3010.42493	15379.375
3012.84764	15378.80357
3015.26888	15364.51786
3017.68865	15347.80357
3020.10694	15328.51786
3022.52376	15267.94643
3024.9391	15271.66071
3027.35298	15248.80357
3029.76539	15232.375
3032.17632	15225.08929
3034.5858	15222.08929
3036.9938	15168.66071
3039.40034	15216.375
3041.80542	15200.94643
3044.20903	15123.80357
3046.61118	15142.66071
3049.01187	15159.08929
3051.4111	15096.66071
3053.80888	15092.51786
3056.20519	15041.66071
3058.60005	15059.66071
3060.99345	15045.375
3063.3854	15012.08929
3065.7759	14952.80357
3068.16494	14907.66071
3070.55254	14918.80357
3072.93868	14872.51786
3075.32338	14837.94643
3077.70662	14840.08929
3080.08842	14794.80357
3082.46878	14813.51786
3084.84769	14776.08929
3087.22515	14781.80357
3089.60118	14823.08929
3091.97576	14826.51786
3094.3489	14817.51786
3096.72061	14847.94643
3099.09087	14840.08929
3101.4597	14801.23214
3103.82709	14807.51786
3106.19305	14785.23214
3108.55757	14837.66071
3110.92066	14814.51786
3113.28232	14823.66071
3115.64255	14770.08929
3118.00134	14750.80357
3120.35871	14715.375
3122.71466	14706.23214
3125.06917	14675.375
3127.42226	14646.80357
3129.77393	14671.08929
3132.12417	14644.08929
3134.47299	14652.66071
3136.82039	14634.94643
3139.16636	14620.80357
3141.51092	14647.66071
3143.85406	14686.66071
3146.19579	14667.94643
3148.53609	14658.66071
3150.87499	14679.23214
3153.21246	14697.08929
3155.54853	14735.23214
3157.88318	14743.51786
3160.21642	14734.375
3162.54826	14727.51786
3164.87868	14747.66071
3167.2077	14765.375
3169.5353	14777.80357
3171.86151	14771.23214
3174.18631	14791.94643
3176.5097	14747.23214
3178.83169	14760.94643
3181.15228	14754.51786
3183.47147	14755.23214
3185.78926	14714.80357
3188.10565	14698.94643
3190.42065	14713.80357
3192.73424	14716.51786
3195.04645	14703.375
3197.35725	14697.94643
3199.66667	14684.51786
3201.97469	14707.08929
3204.28132	14680.80357
3206.58656	14739.23214
3208.8904	14755.23214
3211.19287	14749.94643
3213.49394	14741.375
3215.79363	14757.80357
3218.09193	14816.23214
3220.38884	14766.08929
3222.68438	14833.66071
3224.97853	14771.94643
3227.2713	14816.08929
3229.56269	14778.66071
3231.8527	14793.23214
3234.14133	14751.08929
3236.42858	14758.375
3238.71446	14708.94643
3240.99896	14677.23214
3243.28209	14656.80357
3245.56384	14618.80357
3247.84423	14678.23214
3250.12324	14618.375
3252.40088	14657.66071
3254.67715	14644.94643
3256.95205	14650.51786
3259.22558	14669.80357
3261.49775	14652.66071
3263.76855	14669.94643
3266.03799	14581.66071
3268.30606	14618.94643
3270.57277	14613.23214
3272.83812	14539.23214
3275.10211	14549.375
3277.36474	14523.23214
3279.62601	14525.08929
3281.88593	14491.94643
3284.14448	14502.66071
3286.40168	14507.23214
3288.65753	14518.375
3290.91202	14462.66071
3293.16516	14484.08929
3295.41695	14446.08929
3297.66738	14395.375
3299.91647	14302.08929
3302.16421	14232.375
3304.4106	14172.375
3306.65564	14092.94643
3308.89933	14020.51786
3311.14169	13903.23214
3313.38269	13809.375
3315.62236	13743.94643
3317.86068	13595.94643
3320.09766	13553.08929
3322.3333	13463.66071
3324.5676	13418.94643
3326.80056	13183.80357
3329.03219	13162.51786
3331.26248	2.80357
3333.49143	-0.48214
3335.71905	-0.625
