Data from AgNPs_UA_0uM_CRN_0uM_R6G_10uM_Q_RamanShift__2__11-20-48-747.txt Node

Date: Wed Jul 13 11:20:48 BST 2022
User: TCL
Spectrometer: QEP01345
Trigger mode: 4
Integration Time (sec): 7.000000E0
Scans to average: 10
Electric dark correction enabled: true
Nonlinearity correction enabled: false
Boxcar width: 0
XAxis mode: Raman Shifts
Number of Pixels in Spectrum: 1044
>>>>>Begin Spectral Data<<<<<
46.04893	-0.4375
50.45542	-0.0375
54.85868	-0.9375
59.25871	-0.6375
63.6555	39.6625
68.04907	47.1625
72.43941	52.5625
76.82654	54.7625
81.21044	61.3625
85.59113	65.4625
89.96862	69.8625
94.34289	69.0625
98.71396	67.0625
103.08183	72.0625
107.4465	75.7625
111.80798	75.9625
116.16626	78.9625
120.52136	78.0625
124.87327	79.9625
129.222	80.5625
133.56755	80.7625
137.90993	88.4625
142.24913	95.9625
146.58517	97.6625
150.91804	111.0625
155.24774	123.6625
159.57429	148.7625
163.89768	177.6625
168.21792	230.9625
172.53501	297.0625
176.84895	408.4625
181.15975	560.7625
185.46741	790.8625
189.77193	1083.3625
194.07331	1461.5625
198.37157	1921.4625
202.6667	2395.8625
206.9587	2889.7625
211.24758	3397.0625
215.53334	3925.8625
219.81599	4507.7625
224.09553	5157.5625
228.37195	5887.8625
232.64527	6687.1625
236.91549	7551.3625
241.18261	8451.1625
245.44663	9322.6625
249.70755	10137.8625
253.96539	10825.8625
258.22014	11399.7625
262.4718	11791.8625
266.72039	11918.8625
270.96589	11870.4625
275.20832	11621.2625
279.44768	11196.4625
283.68397	10636.2625
287.91719	10050.9625
292.14735	9457.4625
296.37445	8890.5625
300.59849	8414.8625
304.81948	8010.5625
309.03742	7667.4625
313.25231	7299.9625
317.46415	6826.3625
321.67296	6315.2625
325.87872	5867.3625
330.08145	5587.2625
334.28114	5460.9625
338.47781	5399.5625
342.67145	5405.2625
346.86207	5476.2625
351.04966	5596.1625
355.23424	5752.1625
359.4158	5815.8625
363.59435	5760.6625
367.76989	5694.4625
371.94243	5587.5625
376.11196	5526.0625
380.27849	5464.8625
384.44203	5424.5625
388.60257	5377.8625
392.76012	5395.9625
396.91468	5441.0625
401.06626	5515.3625
405.21485	5565.3625
409.36047	5475.6625
413.50311	5298.4625
417.64277	5158.8625
421.77947	5056.0625
425.9132	5034.1625
430.04396	5041.4625
434.17176	5034.5625
438.2966	5072.6625
442.41849	5118.6625
446.53742	5187.1625
450.6534	5223.5625
454.76644	5257.1625
458.87653	5245.5625
462.98368	5239.2625
467.08789	5228.6625
471.18916	5172.7625
475.2875	5114.1625
479.38291	5056.5625
483.4754	5031.0625
487.56496	5006.6625
491.6516	5009.7625
495.73531	4987.5625
499.81612	5013.6625
503.89401	5047.5625
507.96899	5086.4625
512.04106	5151.1625
516.11023	5204.6625
520.1765	5279.8625
524.23987	5340.6625
528.30034	5387.7625
532.35792	5408.2625
536.41261	5415.3625
540.46441	5398.1625
544.51333	5422.0625
548.55936	5486.3625
552.60252	5570.4625
556.64279	5664.9625
560.6802	5741.3625
564.71473	5867.0625
568.7464	5988.3625
572.7752	5948.1625
576.80114	5684.4625
580.82422	5461.9625
584.84444	5319.2625
588.86181	5260.8625
592.87633	5260.7625
596.888	5334.8625
600.89682	5559.9625
604.9028	6134.8625
608.90594	7394.8625
612.90624	8844.1625
616.90371	8510.5625
620.89834	6845.2625
624.89015	6057.9625
628.87913	5821.1625
632.86528	5727.9625
636.84862	5656.6625
640.82913	5503.2625
644.80683	5313.8625
648.78172	5205.4625
652.75379	5257.8625
656.72306	5433.8625
660.68952	5678.2625
664.65319	5768.2625
668.61405	5875.1625
672.57211	6109.3625
676.52738	6459.9625
680.47986	6783.2625
684.42955	7011.3625
688.37646	7105.4625
692.32058	7159.0625
696.26192	7121.0625
700.20048	7040.5625
704.13626	6981.5625
708.06928	6839.0625
711.99952	6690.6625
715.927	6516.6625
719.85171	6335.0625
723.77365	6168.6625
727.69284	6003.1625
731.60928	5842.7625
735.52295	5737.8625
739.43388	5705.4625
743.34206	5634.3625
747.24749	5600.8625
751.15017	5571.1625
755.05012	5567.1625
758.94733	5707.9625
762.8418	6116.9625
766.73354	6768.9625
770.62254	7277.2625
774.50882	7364.2625
778.39237	7130.8625
782.27321	6683.3625
786.15132	6169.2625
790.02671	5846.8625
793.89938	5671.3625
797.76935	5588.9625
801.6366	5573.6625
805.50115	5570.5625
809.36299	5581.2625
813.22213	5594.8625
817.07857	5637.9625
820.93231	5650.6625
824.78336	5695.4625
828.63172	5705.8625
832.47738	5706.5625
836.32036	5662.4625
840.16066	5634.1625
843.99827	5631.3625
847.8332	5635.3625
851.66546	5627.2625
855.49504	5645.6625
859.32195	5653.0625
863.1462	5673.4625
866.96777	5701.0625
870.78668	5738.9625
874.60293	5775.4625
878.41652	5848.3625
882.22745	5911.4625
886.03573	6011.9625
889.84136	6061.5625
893.64433	6164.1625
897.44466	6299.2625
901.24235	6440.2625
905.0374	6595.3625
908.8298	6759.4625
912.61957	6845.6625
916.40671	6906.0625
920.19121	6914.2625
923.97308	6886.7625
927.75233	6883.0625
931.52895	6877.0625
935.30295	6770.4625
939.07433	6616.4625
942.84309	6448.3625
946.60924	6358.1625
950.37278	6288.6625
954.13371	6223.8625
957.89203	6164.2625
961.64774	6116.1625
965.40086	6089.9625
969.15137	6060.1625
972.89929	6058.7625
976.64461	6037.6625
980.38733	6028.3625
984.12747	6022.1625
987.86502	6024.4625
991.59999	6047.2625
995.33237	6068.4625
999.06217	6090.7625
1002.78939	6147.9625
1006.51404	6238.3625
1010.23611	6325.1625
1013.95561	6332.7625
1017.67255	6384.1625
1021.38692	6423.1625
1025.09872	6448.1625
1028.80796	6495.6625
1032.51465	6597.5625
1036.21877	6823.6625
1039.92035	7128.2625
1043.61937	7565.4625
1047.31584	8063.4625
1051.00976	8467.3625
1054.70114	8670.2625
1058.38998	8498.0625
1062.07627	8030.5625
1065.76003	7443.9625
1069.44126	6911.6625
1073.11995	6570.8625
1076.79611	6357.0625
1080.46974	6278.9625
1084.14085	6301.5625
1087.80943	6335.0625
1091.47549	6309.8625
1095.13903	6202.5625
1098.80005	6071.8625
1102.45857	6040.9625
1106.11456	6043.6625
1109.76805	6015.6625
1113.41903	6037.8625
1117.06751	6121.5625
1120.71348	6257.2625
1124.35696	6411.9625
1127.99793	6595.8625
1131.63641	6514.5625
1135.2724	6283.5625
1138.90589	6088.2625
1142.5369	5998.0625
1146.16542	5903.0625
1149.79145	5861.8625
1153.415	5840.3625
1157.03607	5840.0625
1160.65467	5864.2625
1164.27079	5953.9625
1167.88443	6097.9625
1171.49561	6321.2625
1175.10432	6682.5625
1178.71056	7222.8625
1182.31434	7657.9625
1185.91565	7673.0625
1189.51451	7451.9625
1193.11091	7179.4625
1196.70485	6918.7625
1200.29634	6746.7625
1203.88538	6626.9625
1207.47197	6414.9625
1211.05612	6226.5625
1214.63782	6094.5625
1218.21708	6037.7625
1221.79391	6004.1625
1225.36829	5999.6625
1228.94024	6021.7625
1232.50976	6048.7625
1236.07685	6075.1625
1239.6415	6142.9625
1243.20374	6156.8625
1246.76355	6203.5625
1250.32093	6266.1625
1253.8759	6325.8625
1257.42845	6430.7625
1260.97859	6566.2625
1264.52631	6768.0625
1268.07163	6901.5625
1271.61453	7024.2625
1275.15503	7088.5625
1278.69312	7118.2625
1282.22882	7141.2625
1285.76211	7267.8625
1289.29301	7500.6625
1292.82151	7695.7625
1296.34761	7883.0625
1299.87133	8127.2625
1303.39266	8551.2625
1306.9116	9221.1625
1310.42815	9999.9625
1313.94233	10328.1625
1317.45412	9940.2625
1320.96354	9271.1625
1324.47058	8709.1625
1327.97525	8289.7625
1331.47754	8017.4625
1334.97747	7882.4625
1338.47502	7880.3625
1341.97022	8027.6625
1345.46305	8381.8625
1348.95352	8906.2625
1352.44163	9457.7625
1355.92738	10014.2625
1359.41078	10965.4625
1362.89183	12036.1625
1366.37053	11935.3625
1369.84688	10502.7625
1373.32088	9124.9625
1376.79254	8374.5625
1380.26186	8070.0625
1383.72883	7882.4625
1387.19347	7720.9625
1390.65578	7572.4625
1394.11575	7512.4625
1397.57339	7508.9625
1401.0287	7522.4625
1404.48168	7553.6625
1407.93234	7594.7625
1411.38068	7662.9625
1414.82669	7812.0625
1418.27039	7895.9625
1421.71177	7982.5625
1425.15083	8025.1625
1428.58758	8034.9625
1432.02203	8073.9625
1435.45416	8149.9625
1438.88399	8180.0625
1442.31151	8168.3625
1445.73673	8158.1625
1449.15965	8152.7625
1452.58027	8130.9625
1455.9986	8111.9625
1459.41463	8089.1625
1462.82837	8055.8625
1466.23982	8064.1625
1469.64898	8097.8625
1473.05586	8069.1625
1476.46045	8016.0625
1479.86276	8004.7625
1483.26279	7970.8625
1486.66054	7977.7625
1490.05602	8017.4625
1493.44922	8216.6625
1496.84016	8515.1625
1500.22882	9082.7625
1503.61521	9892.6625
1506.99934	10869.7625
1510.38121	11649.1625
1513.76081	11729.9625
1517.13816	10906.0625
1520.51324	9617.3625
1523.88607	8513.8625
1527.25665	7749.4625
1530.62498	7311.2625
1533.99105	7058.4625
1537.35488	6880.4625
1540.71647	6753.0625
1544.07581	6657.3625
1547.4329	6617.0625
1550.78776	6586.3625
1554.14038	6627.7625
1557.49077	6663.7625
1560.83892	6756.0625
1564.18484	6902.0625
1567.52853	7133.6625
1570.86999	7309.8625
1574.20922	7399.7625
1577.54624	7348.6625
1580.88103	7044.4625
1584.2136	6644.2625
1587.54395	6394.5625
1590.87208	6332.8625
1594.19801	6372.3625
1597.52172	6505.3625
1600.84321	6509.0625
1604.16251	6395.8625
1607.47959	6260.0625
1610.79447	6160.6625
1614.10715	6046.6625
1617.41763	5906.9625
1620.7259	5861.1625
1624.03199	5812.6625
1627.33587	5831.8625
1630.63757	5888.0625
1633.93707	5986.1625
1637.23439	6151.6625
1640.52951	6496.7625
1643.82246	7028.9625
1647.11321	7698.9625
1650.40179	8264.5625
1653.68819	8155.6625
1656.97241	7477.4625
1660.25446	6674.6625
1663.53433	6110.8625
1666.81203	5782.9625
1670.08756	5593.3625
1673.36092	5490.7625
1676.63211	5392.8625
1679.90115	5340.5625
1683.16801	5309.1625
1686.43272	5257.3625
1689.69527	5231.2625
1692.95567	5214.7625
1696.2139	5175.0625
1699.46999	5175.0625
1702.72392	5152.5625
1705.97571	5177.0625
1709.22535	5171.6625
1712.47284	5187.6625
1715.71819	5202.7625
1718.96139	5208.1625
1722.20246	5228.5625
1725.44139	5203.2625
1728.67818	5239.7625
1731.91284	5226.3625
1735.14537	5252.2625
1738.37576	5283.9625
1741.60403	5313.4625
1744.83017	5355.8625
1748.05418	5399.0625
1751.27607	5447.4625
1754.49584	5479.2625
1757.71349	5523.4625
1760.92903	5561.8625
1764.14244	5617.5625
1767.35375	5639.4625
1770.56294	5673.1625
1773.77002	5680.6625
1776.97499	5681.9625
1780.17785	5640.8625
1783.37861	5604.4625
1786.57727	5537.8625
1789.77382	5484.2625
1792.96828	5406.3625
1796.16064	5353.9625
1799.3509	5266.3625
1802.53907	5211.7625
1805.72514	5151.5625
1808.90913	5099.2625
1812.09102	5020.9625
1815.27083	4985.3625
1818.44856	4949.6625
1821.6242	4899.4625
1824.79776	4875.5625
1827.96924	4850.6625
1831.13864	4824.3625
1834.30597	4813.8625
1837.47122	4800.6625
1840.6344	4796.6625
1843.7955	4781.9625
1846.95454	4797.7625
1850.11151	4774.3625
1853.26642	4773.7625
1856.41926	4753.1625
1859.57004	4756.5625
1862.71876	4769.7625
1865.86542	4764.5625
1869.01003	4749.2625
1872.15258	4753.3625
1875.29308	4752.5625
1878.43152	4737.2625
1881.56792	4732.1625
1884.70227	4735.4625
1887.83457	4701.8625
1890.96482	4681.6625
1894.09304	4689.4625
1897.21921	4714.5625
1900.34335	4695.0625
1903.46544	4683.4625
1906.58551	4705.4625
1909.70353	4707.0625
1912.81953	4704.1625
1915.93349	4723.2625
1919.04543	4727.2625
1922.15534	4720.8625
1925.26322	4735.0625
1928.36908	4727.8625
1931.47292	4740.8625
1934.57473	4724.1625
1937.67453	4711.5625
1940.77232	4701.2625
1943.86808	4700.3625
1946.96184	4686.8625
1950.05358	4657.9625
1953.14331	4640.4625
1956.23103	4619.8625
1959.31675	4603.7625
1962.40046	4576.2625
1965.48217	4560.0625
1968.56188	4551.4625
1971.63959	4536.3625
1974.7153	4492.8625
1977.78901	4487.3625
1980.86073	4485.5625
1983.93046	4466.7625
1986.99819	4435.4625
1990.06394	4433.7625
1993.1277	4412.2625
1996.18947	4412.1625
1999.24925	4405.9625
2002.30706	4408.0625
2005.36288	4389.6625
2008.41672	4384.5625
2011.46859	4376.2625
2014.51848	4381.7625
2017.56639	4377.4625
2020.61233	4391.4625
2023.6563	4402.5625
2026.6983	4398.3625
2029.73833	4413.3625
2032.7764	4422.4625
2035.8125	4429.5625
2038.84664	4469.1625
2041.87881	4488.9625
2044.90903	4517.5625
2047.93729	4552.8625
2050.96359	4581.0625
2053.98794	4615.5625
2057.01034	4650.8625
2060.03078	4676.6625
2063.04927	4701.7625
2066.06582	4733.7625
2069.08042	4749.3625
2072.09307	4769.3625
2075.10378	4772.9625
2078.11255	4760.1625
2081.11938	4760.1625
2084.12426	4719.8625
2087.12722	4739.3625
2090.12824	4698.0625
2093.12732	4675.0625
2096.12447	4646.0625
2099.11969	4596.1625
2102.11299	4552.2625
2105.10435	4529.3625
2108.09379	4497.4625
2111.08131	4476.9625
2114.0669	4426.7625
2117.05057	4405.9625
2120.03233	4367.2625
2123.01216	4345.7625
2125.99008	4329.6625
2128.96609	4295.9625
2131.94018	4280.2625
2134.91236	4290.7625
2137.88263	4255.1625
2140.851	4248.2625
2143.81746	4260.4625
2146.78201	4234.2625
2149.74466	4226.6625
2152.7054	4215.6625
2155.66425	4200.6625
2158.6212	4200.2625
2161.57625	4185.6625
2164.52941	4199.6625
2167.48067	4190.8625
2170.43004	4173.1625
2173.37752	4166.4625
2176.32311	4170.3625
2179.26681	4180.8625
2182.20863	4175.3625
2185.14856	4178.7625
2188.08661	4169.6625
2191.02278	4173.0625
2193.95707	4161.9625
2196.88948	4153.7625
2199.82001	4148.5625
2202.74867	4132.0625
2205.67545	4125.7625
2208.60037	4134.4625
2211.52341	4114.5625
2214.44458	4121.4625
2217.36388	4085.9625
2220.28132	4106.4625
2223.1969	4084.8625
2226.11061	4087.6625
2229.02246	4067.3625
2231.93245	4054.1625
2234.84058	4052.9625
2237.74686	4044.9625
2240.65128	4027.8625
2243.55385	4052.5625
2246.45456	4041.8625
2249.35343	4041.2625
2252.25044	4026.9625
2255.14561	4035.2625
2258.03893	4019.4625
2260.93041	4017.8625
2263.82004	4000.8625
2266.70783	4006.9625
2269.59378	3993.4625
2272.4779	3992.4625
2275.36017	3969.3625
2278.24061	3971.1625
2281.11922	3956.8625
2283.996	3951.1625
2286.87094	3953.9625
2289.74405	3944.9625
2292.61534	3925.1625
2295.4848	3926.3625
2298.35243	3939.7625
2301.21824	3917.7625
2304.08223	3943.8625
2306.94439	3921.5625
2309.80474	3922.9625
2312.66327	3907.7625
2315.51999	3911.8625
2318.37489	3901.3625
2321.22797	3896.7625
2324.07925	3871.8625
2326.92871	3879.7625
2329.77637	3865.5625
2332.62222	3871.6625
2335.46626	3868.8625
2338.3085	3854.4625
2341.14893	3850.4625
2343.98756	3852.0625
2346.8244	3831.4625
2349.65943	3843.2625
2352.49267	3838.9625
2355.32411	3843.3625
2358.15376	3844.1625
2360.98161	3846.6625
2363.80768	3840.8625
2366.63195	3835.0625
2369.45444	3838.2625
2372.27514	3843.6625
2375.09405	3834.4625
2377.91118	3827.4625
2380.72652	3807.1625
2383.54009	3800.8625
2386.35187	3803.6625
2389.16188	3776.7625
2391.97011	3774.9625
2394.77657	3774.8625
2397.58125	3745.9625
2400.38416	3752.9625
2403.18529	3742.4625
2405.98466	3736.3625
2408.78226	3729.9625
2411.57809	3732.5625
2414.37216	3734.0625
2417.16446	3726.8625
2419.955	3721.6625
2422.74378	3714.9625
2425.5308	3721.9625
2428.31606	3707.9625
2431.09956	3699.9625
2433.88131	3714.7625
2436.6613	3707.9625
2439.43954	3690.6625
2442.21603	3704.8625
2444.99077	3695.3625
2447.76377	3697.9625
2450.53501	3692.0625
2453.30451	3690.4625
2456.07226	3683.4625
2458.83827	3682.3625
2461.60254	3681.1625
2464.36507	3675.0625
2467.12586	3678.3625
2469.88492	3656.0625
2472.64224	3670.8625
2475.39782	3650.0625
2478.15167	3660.6625
2480.90379	3661.9625
2483.65417	3655.8625
2486.40283	3649.3625
2489.14976	3658.1625
2491.89497	3640.9625
2494.63845	3641.0625
2497.3802	3644.7625
2500.12024	3653.9625
2502.85855	3644.7625
2505.59514	3635.3625
2508.33002	3638.9625
2511.06318	3624.2625
2513.79462	3602.6625
2516.52435	3596.9625
2519.25237	3589.0625
2521.97867	3594.2625
2524.70327	3582.7625
2527.42616	3568.0625
2530.14734	3579.1625
2532.86681	3580.0625
2535.58458	3561.2625
2538.30065	3545.4625
2541.01501	3563.6625
2543.72768	3550.0625
2546.43864	3541.5625
2549.14791	3538.4625
2551.85548	3530.3625
2554.56136	3525.1625
2557.26554	3538.1625
2559.96803	3525.2625
2562.66883	3517.6625
2565.36794	3524.7625
2568.06536	3515.9625
2570.7611	3498.3625
2573.45514	3495.5625
2576.14751	3488.1625
2578.83819	3495.7625
2581.52719	3482.1625
2584.21451	3476.0625
2586.90015	3461.2625
2589.58411	3462.0625
2592.2664	3451.6625
2594.94701	3443.7625
2597.62594	3443.3625
2600.30321	3438.9625
2602.9788	3431.6625
2605.65273	3429.6625
2608.32498	3417.7625
2610.99557	3423.0625
2613.66449	3423.3625
2616.33175	3417.5625
2618.99734	3397.8625
2621.66128	3402.2625
2624.32355	3403.5625
2626.98416	3400.7625
2629.64311	3394.0625
2632.30041	3399.3625
2634.95605	3377.2625
2637.61004	3371.6625
2640.26238	3361.8625
2642.91306	3348.4625
2645.56209	3345.2625
2648.20948	3343.4625
2650.85521	3339.0625
2653.4993	3334.7625
2656.14175	3345.3625
2658.78255	3345.0625
2661.42171	3347.2625
2664.05923	3339.6625
2666.6951	3344.1625
2669.32934	3333.8625
2671.96194	3334.7625
2674.59291	3335.9625
2677.22224	3336.8625
2679.84993	3335.0625
2682.476	3328.6625
2685.10043	3335.8625
2687.72324	3327.7625
2690.34441	3325.0625
2692.96396	3305.6625
2695.58188	3318.6625
2698.19818	3314.7625
2700.81285	3329.4625
2703.4259	3322.7625
2706.03733	3323.0625
2708.64714	3319.2625
2711.25533	3305.1625
2713.86191	3312.2625
2716.46687	3314.4625
2719.07021	3312.5625
2721.67194	3322.0625
2724.27206	3317.9625
2726.87057	3313.2625
2729.46747	3310.1625
2732.06276	3307.0625
2734.65644	3315.6625
2737.24852	3313.9625
2739.83899	3301.1625
2742.42786	3307.1625
2745.01513	3286.1625
2747.60079	3280.3625
2750.18486	3272.4625
2752.76733	3264.4625
2755.3482	3264.6625
2757.92747	3255.4625
2760.50515	3247.0625
2763.08123	3257.3625
2765.65573	3245.6625
2768.22863	3232.8625
2770.79994	3234.1625
2773.36967	3241.3625
2775.9378	3219.3625
2778.50435	3224.9625
2781.06932	3224.0625
2783.6327	3214.0625
2786.1945	3201.4625
2788.75471	3203.1625
2791.31335	3198.6625
2793.87041	3196.0625
2796.42589	3170.8625
2798.97979	3180.4625
2801.53212	3167.1625
2804.08288	3169.6625
2806.63206	3160.3625
2809.17967	3154.6625
2811.72571	3150.8625
2814.27018	3147.6625
2816.81308	3142.9625
2819.35442	3128.8625
2821.89419	3102.9625
2824.43239	3115.2625
2826.96904	3115.6625
2829.50412	3118.4625
2832.03763	3110.0625
2834.56959	3099.5625
2837.1	3104.4625
2839.62884	3104.2625
2842.15613	3098.2625
2844.68186	3086.7625
2847.20604	3092.4625
2849.72867	3086.2625
2852.24974	3097.9625
2854.76927	3084.9625
2857.28724	3103.1625
2859.80367	3087.9625
2862.31855	3081.8625
2864.83189	3083.0625
2867.34368	3081.8625
2869.85393	3089.8625
2872.36264	3061.6625
2874.8698	3074.2625
2877.37543	3064.0625
2879.87952	3053.4625
2882.38207	3059.9625
2884.88308	3054.2625
2887.38256	3053.8625
2889.88051	3033.8625
2892.37692	3054.6625
2894.8718	3052.4625
2897.36515	3059.3625
2899.85698	3065.1625
2902.34727	3057.9625
2904.83604	3069.6625
2907.32328	3072.8625
2909.809	3070.5625
2912.29319	3075.2625
2914.77587	3078.4625
2917.25702	3074.1625
2919.73665	3079.5625
2922.21476	3074.0625
2924.69136	3077.1625
2927.16644	3062.4625
2929.64	3055.6625
2932.11205	3049.0625
2934.58258	3046.0625
2937.05161	3048.9625
2939.51912	3049.3625
2941.98513	3062.1625
2944.44962	3031.6625
2946.91261	3019.5625
2949.37409	3030.6625
2951.83407	3039.4625
2954.29254	3028.5625
2956.74951	3029.6625
2959.20498	3030.0625
2961.65895	3019.5625
2964.11142	3024.6625
2966.56239	3034.0625
2969.01186	3034.4625
2971.45984	3024.9625
2973.90632	3015.5625
2976.35131	3001.7625
2978.7948	3018.0625
2981.23681	2998.4625
2983.67732	3019.0625
2986.11635	2998.9625
2988.55388	2988.9625
2990.98993	2981.1625
2993.4245	2985.5625
2995.85758	2975.8625
2998.28917	2983.6625
3000.71928	2967.3625
3003.14791	2960.9625
3005.57506	2968.1625
3008.00073	2947.7625
3010.42493	2948.6625
3012.84764	2954.8625
3015.26888	2952.6625
3017.68865	2950.3625
3020.10694	2940.8625
3022.52376	2921.5625
3024.9391	2933.5625
3027.35298	2930.2625
3029.76539	2941.2625
3032.17632	2925.6625
3034.5858	2912.7625
3036.9938	2926.0625
3039.40034	2907.1625
3041.80542	2917.9625
3044.20903	2913.9625
3046.61118	2912.8625
3049.01187	2892.6625
3051.4111	2895.6625
3053.80888	2893.6625
3056.20519	2895.2625
3058.60005	2889.2625
3060.99345	2888.1625
3063.3854	2892.1625
3065.7759	2883.9625
3068.16494	2892.7625
3070.55254	2872.8625
3072.93868	2870.1625
3075.32338	2867.5625
3077.70662	2868.6625
3080.08842	2871.6625
3082.46878	2862.9625
3084.84769	2860.1625
3087.22515	2875.5625
3089.60118	2871.6625
3091.97576	2875.1625
3094.3489	2879.0625
3096.72061	2874.1625
3099.09087	2882.1625
3101.4597	2872.8625
3103.82709	2887.8625
3106.19305	2876.9625
3108.55757	2887.2625
3110.92066	2880.3625
3113.28232	2881.0625
3115.64255	2895.1625
3118.00134	2896.8625
3120.35871	2897.0625
3122.71466	2880.4625
3125.06917	2881.2625
3127.42226	2885.8625
3129.77393	2891.1625
3132.12417	2887.5625
3134.47299	2893.1625
3136.82039	2877.3625
3139.16636	2901.6625
3141.51092	2909.4625
3143.85406	2906.4625
3146.19579	2919.6625
3148.53609	2909.9625
3150.87499	2934.7625
3153.21246	2926.1625
3155.54853	2925.1625
3157.88318	2938.5625
3160.21642	2951.3625
3162.54826	2945.3625
3164.87868	2961.1625
3167.2077	2957.0625
3169.5353	2966.1625
3171.86151	2968.4625
3174.18631	2969.5625
3176.5097	2967.6625
3178.83169	2984.5625
3181.15228	2982.5625
3183.47147	2972.1625
3185.78926	2986.2625
3188.10565	2973.4625
3190.42065	2980.3625
3192.73424	2968.8625
3195.04645	2970.1625
3197.35725	2965.9625
3199.66667	2973.5625
3201.97469	2975.2625
3204.28132	2974.9625
3206.58656	2968.6625
3208.8904	2984.2625
3211.19287	2999.6625
3213.49394	3005.5625
3215.79363	2998.1625
3218.09193	3015.7625
3220.38884	2999.9625
3222.68438	3018.4625
3224.97853	3022.7625
3227.2713	3015.3625
3229.56269	3022.6625
3231.8527	3012.6625
3234.14133	2999.6625
3236.42858	2998.5625
3238.71446	2991.0625
3240.99896	2991.3625
3243.28209	3002.4625
3245.56384	2991.0625
3247.84423	2987.4625
3250.12324	2987.5625
3252.40088	2980.4625
3254.67715	2989.2625
3256.95205	2978.2625
3259.22558	2978.5625
3261.49775	2988.7625
3263.76855	2984.7625
3266.03799	2980.8625
3268.30606	2988.9625
3270.57277	2986.0625
3272.83812	2964.7625
3275.10211	2961.6625
3277.36474	2956.5625
3279.62601	2947.0625
3281.88593	2959.3625
3284.14448	2948.8625
3286.40168	2947.0625
3288.65753	2946.4625
3290.91202	2945.2625
3293.16516	2938.2625
3295.41695	2945.9625
3297.66738	2926.5625
3299.91647	2920.7625
3302.16421	2891.4625
3304.4106	2884.0625
3306.65564	2858.5625
3308.89933	2838.7625
3311.14169	2828.2625
3313.38269	2814.6625
3315.62236	2804.9625
3317.86068	2773.0625
3320.09766	2766.1625
3322.3333	2736.0625
3324.5676	2728.8625
3326.80056	2691.5625
3329.03219	2694.0625
3331.26248	0.9625
3333.49143	0.7625
3335.71905	0.7625
