Data from AgNPs_UA_200uM_CRN_0uM_R6G_10uM_Q_RamanShift__20__14-23-14-160.txt Node

Date: Tue Jul 26 14:23:14 BST 2022
User: TCL
Spectrometer: QEP01345
Trigger mode: 4
Integration Time (sec): 7.000000E0
Scans to average: 10
Electric dark correction enabled: true
Nonlinearity correction enabled: false
Boxcar width: 0
XAxis mode: Raman Shifts
Number of Pixels in Spectrum: 1044
>>>>>Begin Spectral Data<<<<<
46.04893	1.0375
50.45542	0.5375
54.85868	-0.9625
59.25871	1.2375
63.6555	42.7375
68.04907	45.4375
72.43941	48.0375
76.82654	49.2375
81.21044	54.4375
85.59113	58.8375
89.96862	59.2375
94.34289	60.5375
98.71396	62.5375
103.08183	65.1375
107.4465	67.5375
111.80798	62.9375
116.16626	66.1375
120.52136	65.1375
124.87327	64.9375
129.222	66.0375
133.56755	69.1375
137.90993	68.1375
142.24913	74.0375
146.58517	76.2375
150.91804	76.2375
155.24774	88.1375
159.57429	100.7375
163.89768	117.1375
168.21792	140.6375
172.53501	174.6375
176.84895	236.4375
181.15975	321.2375
185.46741	440.9375
189.77193	598.1375
194.07331	796.6375
198.37157	1014.1375
202.6667	1247.8375
206.9587	1475.2375
211.24758	1721.8375
215.53334	1948.5375
219.81599	2197.1375
224.09553	2482.9375
228.37195	2794.2375
232.64527	3117.7375
236.91549	3481.5375
241.18261	3783.7375
245.44663	4078.9375
249.70755	4304.9375
253.96539	4509.3375
258.22014	4678.7375
262.4718	4795.1375
266.72039	4878.4375
270.96589	4890.4375
275.20832	4848.3375
279.44768	4776.5375
283.68397	4685.7375
287.91719	4595.4375
292.14735	4567.6375
296.37445	4587.7375
300.59849	4606.0375
304.81948	4679.3375
309.03742	4689.1375
313.25231	4682.2375
317.46415	4584.8375
321.67296	4448.5375
325.87872	4338.0375
330.08145	4306.0375
334.28114	4333.7375
338.47781	4368.1375
342.67145	4454.7375
346.86207	4549.3375
351.04966	4688.3375
355.23424	4835.2375
359.4158	4953.9375
363.59435	5054.7375
367.76989	5124.6375
371.94243	5163.1375
376.11196	5198.0375
380.27849	5224.2375
384.44203	5248.1375
388.60257	5257.4375
392.76012	5286.9375
396.91468	5334.3375
401.06626	5413.3375
405.21485	5455.7375
409.36047	5420.9375
413.50311	5321.4375
417.64277	5218.3375
421.77947	5155.2375
425.9132	5117.6375
430.04396	5118.7375
434.17176	5172.4375
438.2966	5209.2375
442.41849	5287.8375
446.53742	5377.8375
450.6534	5467.1375
454.76644	5520.9375
458.87653	5579.2375
462.98368	5597.2375
467.08789	5569.9375
471.18916	5521.9375
475.2875	5478.9375
479.38291	5426.1375
483.4754	5407.4375
487.56496	5424.7375
491.6516	5420.4375
495.73531	5418.9375
499.81612	5413.3375
503.89401	5456.9375
507.96899	5460.8375
512.04106	5487.4375
516.11023	5525.6375
520.1765	5539.3375
524.23987	5559.9375
528.30034	5572.2375
532.35792	5557.7375
536.41261	5522.4375
540.46441	5467.9375
544.51333	5449.0375
548.55936	5452.2375
552.60252	5494.9375
556.64279	5552.3375
560.6802	5611.8375
564.71473	5636.0375
568.7464	5693.2375
572.7752	5721.2375
576.80114	5658.5375
580.82422	5608.9375
584.84444	5635.4375
588.86181	5702.5375
592.87633	5762.4375
596.888	5828.6375
600.89682	5942.0375
604.9028	6336.4375
608.90594	7251.8375
612.90624	8161.3375
616.90371	7717.4375
620.89834	6539.1375
624.89015	6093.4375
628.87913	6127.8375
632.86528	6219.1375
636.84862	6304.2375
640.82913	6231.2375
644.80683	6040.5375
648.78172	5872.7375
652.75379	5810.9375
656.72306	5907.7375
660.68952	6003.9375
664.65319	5958.1375
668.61405	5879.9375
672.57211	5864.6375
676.52738	5890.3375
680.47986	5873.2375
684.42955	5830.7375
688.37646	5833.2375
692.32058	5856.2375
696.26192	5859.6375
700.20048	5869.0375
704.13626	5848.0375
708.06928	5813.7375
711.99952	5775.4375
715.927	5760.0375
719.85171	5783.0375
723.77365	5806.5375
727.69284	5811.4375
731.60928	5816.5375
735.52295	5810.2375
739.43388	5781.3375
743.34206	5756.8375
747.24749	5780.5375
751.15017	5768.3375
755.05012	5779.7375
758.94733	5907.8375
762.8418	6180.8375
766.73354	6665.2375
770.62254	7144.8375
774.50882	7392.9375
778.39237	7246.8375
782.27321	6750.3375
786.15132	6315.0375
790.02671	6029.6375
793.89938	5894.3375
797.76935	5849.3375
801.6366	5823.9375
805.50115	5832.3375
809.36299	5858.6375
813.22213	5858.4375
817.07857	5850.9375
820.93231	5798.1375
824.78336	5761.9375
828.63172	5732.2375
832.47738	5723.7375
836.32036	5713.0375
840.16066	5702.5375
843.99827	5708.5375
847.8332	5703.1375
851.66546	5691.3375
855.49504	5689.5375
859.32195	5716.6375
863.1462	5700.6375
866.96777	5689.8375
870.78668	5698.8375
874.60293	5741.5375
878.41652	5785.0375
882.22745	5832.9375
886.03573	5891.7375
889.84136	5889.1375
893.64433	5863.8375
897.44466	5822.4375
901.24235	5772.3375
905.0374	5736.9375
908.8298	5683.0375
912.61957	5671.6375
916.40671	5653.4375
920.19121	5692.2375
923.97308	5695.9375
927.75233	5728.8375
931.52895	5769.1375
935.30295	5726.8375
939.07433	5679.6375
942.84309	5616.9375
946.60924	5612.5375
950.37278	5606.0375
954.13371	5580.7375
957.89203	5559.9375
961.64774	5565.1375
965.40086	5546.0375
969.15137	5527.4375
972.89929	5516.9375
976.64461	5526.9375
980.38733	5535.2375
984.12747	5543.2375
987.86502	5575.0375
991.59999	5626.6375
995.33237	5690.2375
999.06217	5800.3375
1002.78939	5908.0375
1006.51404	5984.5375
1010.23611	6026.7375
1013.95561	6084.4375
1017.67255	6106.1375
1021.38692	6104.2375
1025.09872	6087.3375
1028.80796	6113.1375
1032.51465	6167.2375
1036.21877	6227.1375
1039.92035	6195.7375
1043.61937	6139.7375
1047.31584	6051.7375
1051.00976	5963.5375
1054.70114	5944.6375
1058.38998	5952.5375
1062.07627	5965.1375
1065.76003	5973.9375
1069.44126	6017.8375
1073.11995	6069.5375
1076.79611	6117.3375
1080.46974	6191.5375
1084.14085	6228.2375
1087.80943	6267.7375
1091.47549	6276.5375
1095.13903	6235.7375
1098.80005	6163.0375
1102.45857	6131.9375
1106.11456	6133.0375
1109.76805	6165.8375
1113.41903	6237.4375
1117.06751	6347.4375
1120.71348	6472.1375
1124.35696	6649.9375
1127.99793	6802.2375
1131.63641	6863.1375
1135.2724	6804.5375
1138.90589	6698.1375
1142.5369	6579.3375
1146.16542	6417.9375
1149.79145	6317.3375
1153.415	6223.3375
1157.03607	6194.5375
1160.65467	6202.9375
1164.27079	6273.3375
1167.88443	6457.4375
1171.49561	6685.6375
1175.10432	7071.9375
1178.71056	7616.5375
1182.31434	8100.1375
1185.91565	8318.7375
1189.51451	8275.9375
1193.11091	8038.9375
1196.70485	7744.6375
1200.29634	7538.8375
1203.88538	7327.2375
1207.47197	7120.4375
1211.05612	6890.3375
1214.63782	6718.8375
1218.21708	6627.3375
1221.79391	6607.8375
1225.36829	6619.4375
1228.94024	6594.4375
1232.50976	6551.2375
1236.07685	6495.5375
1239.6415	6482.8375
1243.20374	6511.5375
1246.76355	6563.0375
1250.32093	6622.2375
1253.8759	6709.7375
1257.42845	6812.0375
1260.97859	6953.0375
1264.52631	7087.8375
1268.07163	7215.7375
1271.61453	7345.3375
1275.15503	7441.2375
1278.69312	7522.0375
1282.22882	7571.5375
1285.76211	7637.6375
1289.29301	7716.7375
1292.82151	7831.1375
1296.34761	8019.1375
1299.87133	8321.0375
1303.39266	8809.7375
1306.9116	9423.9375
1310.42815	10082.8375
1313.94233	10311.3375
1317.45412	10129.4375
1320.96354	9702.2375
1324.47058	9238.0375
1327.97525	8817.9375
1331.47754	8531.2375
1334.97747	8428.0375
1338.47502	8484.5375
1341.97022	8646.1375
1345.46305	8886.8375
1348.95352	9233.6375
1352.44163	9654.7375
1355.92738	10228.0375
1359.41078	11049.3375
1362.89183	11702.5375
1366.37053	11337.2375
1369.84688	10088.0375
1373.32088	8978.4375
1376.79254	8323.8375
1380.26186	7944.3375
1383.72883	7697.2375
1387.19347	7489.2375
1390.65578	7265.8375
1394.11575	7115.6375
1397.57339	7016.3375
1401.0287	6978.1375
1404.48168	6972.0375
1407.93234	6964.8375
1411.38068	6986.7375
1414.82669	6942.3375
1418.27039	6924.9375
1421.71177	6868.5375
1425.15083	6819.4375
1428.58758	6781.9375
1432.02203	6798.6375
1435.45416	6833.1375
1438.88399	6865.4375
1442.31151	6850.8375
1445.73673	6847.7375
1449.15965	6880.2375
1452.58027	6847.2375
1455.9986	6824.2375
1459.41463	6839.2375
1462.82837	6896.2375
1466.23982	6999.2375
1469.64898	7074.2375
1473.05586	7190.4375
1476.46045	7258.3375
1479.86276	7322.4375
1483.26279	7381.6375
1486.66054	7447.6375
1490.05602	7572.3375
1493.44922	7757.8375
1496.84016	8066.5375
1500.22882	8563.5375
1503.61521	9226.6375
1506.99934	9908.8375
1510.38121	10306.9375
1513.76081	10233.5375
1517.13816	9646.7375
1520.51324	8890.1375
1523.88607	8255.6375
1527.25665	7840.3375
1530.62498	7596.3375
1533.99105	7482.7375
1537.35488	7436.4375
1540.71647	7360.5375
1544.07581	7334.8375
1547.4329	7323.3375
1550.78776	7301.2375
1554.14038	7296.0375
1557.49077	7304.6375
1560.83892	7364.9375
1564.18484	7444.1375
1567.52853	7571.2375
1570.86999	7665.5375
1574.20922	7749.9375
1577.54624	7705.2375
1580.88103	7477.5375
1584.2136	7258.1375
1587.54395	7170.5375
1590.87208	7258.8375
1594.19801	7532.5375
1597.52172	7882.6375
1600.84321	8038.2375
1604.16251	7893.7375
1607.47959	7636.4375
1610.79447	7333.3375
1614.10715	6985.5375
1617.41763	6724.0375
1620.7259	6544.2375
1624.03199	6420.7375
1627.33587	6405.0375
1630.63757	6485.5375
1633.93707	6688.9375
1637.23439	6953.2375
1640.52951	7379.9375
1643.82246	7942.3375
1647.11321	8461.7375
1650.40179	8695.8375
1653.68819	8407.4375
1656.97241	7691.3375
1660.25446	6980.7375
1663.53433	6503.4375
1666.81203	6180.1375
1670.08756	5993.2375
1673.36092	5893.4375
1676.63211	5815.6375
1679.90115	5747.1375
1683.16801	5702.9375
1686.43272	5660.8375
1689.69527	5624.0375
1692.95567	5567.0375
1696.2139	5546.0375
1699.46999	5499.2375
1702.72392	5448.1375
1705.97571	5402.2375
1709.22535	5366.0375
1712.47284	5334.0375
1715.71819	5327.3375
1718.96139	5305.5375
1722.20246	5281.8375
1725.44139	5234.4375
1728.67818	5202.8375
1731.91284	5151.8375
1735.14537	5135.5375
1738.37576	5122.9375
1741.60403	5082.8375
1744.83017	5072.7375
1748.05418	5042.2375
1751.27607	5042.5375
1754.49584	5026.5375
1757.71349	5036.0375
1760.92903	5002.0375
1764.14244	5015.2375
1767.35375	5002.6375
1770.56294	4971.9375
1773.77002	4977.0375
1776.97499	4959.0375
1780.17785	4966.7375
1783.37861	4947.8375
1786.57727	4927.5375
1789.77382	4937.9375
1792.96828	4925.3375
1796.16064	4913.7375
1799.3509	4884.0375
1802.53907	4902.0375
1805.72514	4897.8375
1808.90913	4865.0375
1812.09102	4864.3375
1815.27083	4848.4375
1818.44856	4846.1375
1821.6242	4841.2375
1824.79776	4821.4375
1827.96924	4826.5375
1831.13864	4810.3375
1834.30597	4815.4375
1837.47122	4813.3375
1840.6344	4787.6375
1843.7955	4790.2375
1846.95454	4777.7375
1850.11151	4777.8375
1853.26642	4776.6375
1856.41926	4790.4375
1859.57004	4762.6375
1862.71876	4772.6375
1865.86542	4770.7375
1869.01003	4749.9375
1872.15258	4760.7375
1875.29308	4750.5375
1878.43152	4747.7375
1881.56792	4757.5375
1884.70227	4736.6375
1887.83457	4727.8375
1890.96482	4722.5375
1894.09304	4722.4375
1897.21921	4710.3375
1900.34335	4713.7375
1903.46544	4714.5375
1906.58551	4706.9375
1909.70353	4704.2375
1912.81953	4711.2375
1915.93349	4702.2375
1919.04543	4684.8375
1922.15534	4681.5375
1925.26322	4677.2375
1928.36908	4673.8375
1931.47292	4662.8375
1934.57473	4661.6375
1937.67453	4636.4375
1940.77232	4633.6375
1943.86808	4609.9375
1946.96184	4601.7375
1950.05358	4585.1375
1953.14331	4595.2375
1956.23103	4575.6375
1959.31675	4558.4375
1962.40046	4537.3375
1965.48217	4536.9375
1968.56188	4534.6375
1971.63959	4495.0375
1974.7153	4502.4375
1977.78901	4495.7375
1980.86073	4454.8375
1983.93046	4471.0375
1986.99819	4445.6375
1990.06394	4436.5375
1993.1277	4419.2375
1996.18947	4404.6375
1999.24925	4417.5375
2002.30706	4391.9375
2005.36288	4372.2375
2008.41672	4370.2375
2011.46859	4346.1375
2014.51848	4338.3375
2017.56639	4314.1375
2020.61233	4322.3375
2023.6563	4321.9375
2026.6983	4295.8375
2029.73833	4297.2375
2032.7764	4280.0375
2035.8125	4276.3375
2038.84664	4259.7375
2041.87881	4278.9375
2044.90903	4256.3375
2047.93729	4241.6375
2050.96359	4253.2375
2053.98794	4246.1375
2057.01034	4242.0375
2060.03078	4239.4375
2063.04927	4238.2375
2066.06582	4228.4375
2069.08042	4230.0375
2072.09307	4213.7375
2075.10378	4217.5375
2078.11255	4207.2375
2081.11938	4223.3375
2084.12426	4199.2375
2087.12722	4219.0375
2090.12824	4209.4375
2093.12732	4211.1375
2096.12447	4209.3375
2099.11969	4206.7375
2102.11299	4218.2375
2105.10435	4235.6375
2108.09379	4215.1375
2111.08131	4235.8375
2114.0669	4223.5375
2117.05057	4212.9375
2120.03233	4241.0375
2123.01216	4240.8375
2125.99008	4245.6375
2128.96609	4231.0375
2131.94018	4245.3375
2134.91236	4243.1375
2137.88263	4239.6375
2140.851	4243.8375
2143.81746	4252.2375
2146.78201	4245.7375
2149.74466	4242.0375
2152.7054	4261.6375
2155.66425	4269.7375
2158.6212	4262.1375
2161.57625	4237.7375
2164.52941	4239.7375
2167.48067	4244.3375
2170.43004	4254.1375
2173.37752	4241.0375
2176.32311	4242.2375
2179.26681	4256.7375
2182.20863	4259.1375
2185.14856	4260.2375
2188.08661	4249.8375
2191.02278	4243.2375
2193.95707	4247.1375
2196.88948	4252.5375
2199.82001	4260.2375
2202.74867	4237.5375
2205.67545	4238.7375
2208.60037	4230.5375
2211.52341	4224.3375
2214.44458	4246.6375
2217.36388	4212.4375
2220.28132	4210.9375
2223.1969	4211.6375
2226.11061	4179.3375
2229.02246	4178.9375
2231.93245	4178.9375
2234.84058	4166.3375
2237.74686	4151.1375
2240.65128	4156.5375
2243.55385	4170.7375
2246.45456	4149.6375
2249.35343	4150.7375
2252.25044	4138.7375
2255.14561	4152.5375
2258.03893	4130.8375
2260.93041	4132.7375
2263.82004	4129.5375
2266.70783	4121.5375
2269.59378	4110.3375
2272.4779	4109.9375
2275.36017	4086.8375
2278.24061	4077.6375
2281.11922	4070.3375
2283.996	4071.3375
2286.87094	4065.9375
2289.74405	4046.5375
2292.61534	4056.2375
2295.4848	4039.4375
2298.35243	4049.8375
2301.21824	4050.9375
2304.08223	4044.5375
2306.94439	4048.8375
2309.80474	4052.5375
2312.66327	4042.2375
2315.51999	4024.2375
2318.37489	4024.4375
2321.22797	4042.1375
2324.07925	4028.4375
2326.92871	4018.9375
2329.77637	4020.3375
2332.62222	4016.5375
2335.46626	4016.5375
2338.3085	4010.4375
2341.14893	4017.2375
2343.98756	4006.3375
2346.8244	4012.2375
2349.65943	4002.9375
2352.49267	4015.0375
2355.32411	3997.7375
2358.15376	4010.1375
2360.98161	4007.4375
2363.80768	3995.0375
2366.63195	3981.9375
2369.45444	3998.6375
2372.27514	3990.3375
2375.09405	3987.1375
2377.91118	3970.8375
2380.72652	3953.8375
2383.54009	3954.3375
2386.35187	3952.4375
2389.16188	3945.5375
2391.97011	3929.3375
2394.77657	3924.0375
2397.58125	3918.8375
2400.38416	3918.7375
2403.18529	3905.8375
2405.98466	3899.8375
2408.78226	3904.7375
2411.57809	3890.7375
2414.37216	3890.2375
2417.16446	3879.2375
2419.955	3877.1375
2422.74378	3870.2375
2425.5308	3868.0375
2428.31606	3862.8375
2431.09956	3873.7375
2433.88131	3863.1375
2436.6613	3861.6375
2439.43954	3853.4375
2442.21603	3850.9375
2444.99077	3881.1375
2447.76377	3863.4375
2450.53501	3850.2375
2453.30451	3850.1375
2456.07226	3849.1375
2458.83827	3850.6375
2461.60254	3828.0375
2464.36507	3843.9375
2467.12586	3819.5375
2469.88492	3838.8375
2472.64224	3832.0375
2475.39782	3853.0375
2478.15167	3833.4375
2480.90379	3839.1375
2483.65417	3833.0375
2486.40283	3832.7375
2489.14976	3837.4375
2491.89497	3840.9375
2494.63845	3845.2375
2497.3802	3841.5375
2500.12024	3842.2375
2502.85855	3828.6375
2505.59514	3820.5375
2508.33002	3828.4375
2511.06318	3797.9375
2513.79462	3813.3375
2516.52435	3811.1375
2519.25237	3798.0375
2521.97867	3778.0375
2524.70327	3791.8375
2527.42616	3772.9375
2530.14734	3779.4375
2532.86681	3780.9375
2535.58458	3785.5375
2538.30065	3773.8375
2541.01501	3784.6375
2543.72768	3769.7375
2546.43864	3769.7375
2549.14791	3770.2375
2551.85548	3750.9375
2554.56136	3749.1375
2557.26554	3749.2375
2559.96803	3729.9375
2562.66883	3733.4375
2565.36794	3728.8375
2568.06536	3725.3375
2570.7611	3733.4375
2573.45514	3719.0375
2576.14751	3719.2375
2578.83819	3701.3375
2581.52719	3692.8375
2584.21451	3693.5375
2586.90015	3693.8375
2589.58411	3689.5375
2592.2664	3692.3375
2594.94701	3672.5375
2597.62594	3684.5375
2600.30321	3675.3375
2602.9788	3670.7375
2605.65273	3652.7375
2608.32498	3675.6375
2610.99557	3664.9375
2613.66449	3673.7375
2616.33175	3667.8375
2618.99734	3656.8375
2621.66128	3640.8375
2624.32355	3663.3375
2626.98416	3668.1375
2629.64311	3649.7375
2632.30041	3656.3375
2634.95605	3649.2375
2637.61004	3639.9375
2640.26238	3637.2375
2642.91306	3617.9375
2645.56209	3638.0375
2648.20948	3621.3375
2650.85521	3621.3375
2653.4993	3632.0375
2656.14175	3618.4375
2658.78255	3623.2375
2661.42171	3635.2375
2664.05923	3629.9375
2666.6951	3633.3375
2669.32934	3626.0375
2671.96194	3644.2375
2674.59291	3642.9375
2677.22224	3642.7375
2679.84993	3639.0375
2682.476	3620.0375
2685.10043	3636.1375
2687.72324	3622.3375
2690.34441	3630.1375
2692.96396	3622.3375
2695.58188	3618.1375
2698.19818	3604.6375
2700.81285	3633.0375
2703.4259	3606.4375
2706.03733	3606.1375
2708.64714	3616.9375
2711.25533	3618.2375
2713.86191	3622.7375
2716.46687	3616.2375
2719.07021	3630.3375
2721.67194	3623.6375
2724.27206	3630.8375
2726.87057	3626.3375
2729.46747	3627.1375
2732.06276	3628.3375
2734.65644	3627.7375
2737.24852	3635.9375
2739.83899	3624.8375
2742.42786	3620.2375
2745.01513	3612.8375
2747.60079	3618.4375
2750.18486	3594.0375
2752.76733	3587.9375
2755.3482	3583.3375
2757.92747	3595.0375
2760.50515	3587.2375
2763.08123	3576.4375
2765.65573	3586.7375
2768.22863	3589.4375
2770.79994	3574.8375
2773.36967	3578.6375
2775.9378	3567.0375
2778.50435	3564.4375
2781.06932	3561.7375
2783.6327	3565.2375
2786.1945	3547.2375
2788.75471	3566.1375
2791.31335	3547.8375
2793.87041	3547.0375
2796.42589	3536.4375
2798.97979	3533.2375
2801.53212	3541.5375
2804.08288	3532.9375
2806.63206	3526.5375
2809.17967	3508.3375
2811.72571	3502.0375
2814.27018	3510.5375
2816.81308	3505.7375
2819.35442	3487.6375
2821.89419	3487.0375
2824.43239	3482.8375
2826.96904	3473.8375
2829.50412	3464.8375
2832.03763	3482.0375
2834.56959	3482.9375
2837.1	3475.9375
2839.62884	3455.3375
2842.15613	3461.3375
2844.68186	3455.2375
2847.20604	3456.2375
2849.72867	3455.4375
2852.24974	3459.5375
2854.76927	3458.5375
2857.28724	3446.3375
2859.80367	3443.7375
2862.31855	3449.2375
2864.83189	3455.5375
2867.34368	3434.5375
2869.85393	3450.7375
2872.36264	3440.6375
2874.8698	3434.2375
2877.37543	3432.5375
2879.87952	3439.0375
2882.38207	3443.6375
2884.88308	3439.7375
2887.38256	3434.3375
2889.88051	3440.3375
2892.37692	3430.6375
2894.8718	3447.1375
2897.36515	3446.9375
2899.85698	3441.1375
2902.34727	3459.4375
2904.83604	3457.0375
2907.32328	3475.3375
2909.809	3475.5375
2912.29319	3468.9375
2914.77587	3484.1375
2917.25702	3467.4375
2919.73665	3477.2375
2922.21476	3463.1375
2924.69136	3456.1375
2927.16644	3450.4375
2929.64	3466.6375
2932.11205	3450.8375
2934.58258	3451.3375
2937.05161	3449.7375
2939.51912	3446.5375
2941.98513	3449.9375
2944.44962	3454.0375
2946.91261	3441.7375
2949.37409	3446.4375
2951.83407	3433.4375
2954.29254	3450.3375
2956.74951	3443.9375
2959.20498	3442.3375
2961.65895	3439.7375
2964.11142	3455.8375
2966.56239	3448.6375
2969.01186	3446.1375
2971.45984	3438.4375
2973.90632	3447.8375
2976.35131	3440.6375
2978.7948	3433.9375
2981.23681	3412.9375
2983.67732	3413.6375
2986.11635	3420.2375
2988.55388	3415.0375
2990.98993	3416.4375
2993.4245	3401.5375
2995.85758	3392.1375
2998.28917	3381.5375
3000.71928	3382.9375
3003.14791	3379.0375
3005.57506	3378.5375
3008.00073	3377.3375
3010.42493	3387.9375
3012.84764	3376.0375
3015.26888	3363.5375
3017.68865	3362.7375
3020.10694	3361.9375
3022.52376	3353.9375
3024.9391	3362.6375
3027.35298	3355.6375
3029.76539	3351.4375
3032.17632	3357.2375
3034.5858	3340.4375
3036.9938	3339.8375
3039.40034	3344.6375
3041.80542	3348.9375
3044.20903	3354.9375
3046.61118	3348.4375
3049.01187	3334.0375
3051.4111	3350.4375
3053.80888	3349.0375
3056.20519	3347.6375
3058.60005	3338.5375
3060.99345	3326.2375
3063.3854	3322.7375
3065.7759	3314.8375
3068.16494	3309.2375
3070.55254	3322.0375
3072.93868	3302.3375
3075.32338	3308.6375
3077.70662	3308.5375
3080.08842	3294.0375
3082.46878	3305.7375
3084.84769	3306.9375
3087.22515	3301.8375
3089.60118	3304.0375
3091.97576	3314.1375
3094.3489	3302.8375
3096.72061	3335.3375
3099.09087	3327.9375
3101.4597	3337.7375
3103.82709	3337.1375
3106.19305	3346.4375
3108.55757	3340.9375
3110.92066	3336.6375
3113.28232	3347.6375
3115.64255	3326.9375
3118.00134	3346.6375
3120.35871	3340.3375
3122.71466	3325.4375
3125.06917	3340.6375
3127.42226	3327.2375
3129.77393	3336.6375
3132.12417	3327.2375
3134.47299	3342.9375
3136.82039	3339.7375
3139.16636	3343.9375
3141.51092	3353.9375
3143.85406	3341.6375
3146.19579	3370.4375
3148.53609	3366.6375
3150.87499	3383.7375
3153.21246	3394.0375
3155.54853	3410.5375
3157.88318	3395.6375
3160.21642	3406.6375
3162.54826	3402.0375
3164.87868	3423.6375
3167.2077	3418.2375
3169.5353	3440.1375
3171.86151	3437.3375
3174.18631	3426.2375
3176.5097	3448.8375
3178.83169	3438.2375
3181.15228	3432.1375
3183.47147	3444.2375
3185.78926	3446.6375
3188.10565	3443.5375
3190.42065	3441.5375
3192.73424	3446.7375
3195.04645	3452.4375
3197.35725	3460.5375
3199.66667	3452.5375
3201.97469	3464.3375
3204.28132	3466.8375
3206.58656	3472.6375
3208.8904	3482.2375
3211.19287	3488.4375
3213.49394	3484.5375
3215.79363	3489.5375
3218.09193	3504.6375
3220.38884	3496.2375
3222.68438	3509.6375
3224.97853	3500.3375
3227.2713	3505.1375
3229.56269	3505.6375
3231.8527	3509.9375
3234.14133	3519.7375
3236.42858	3496.8375
3238.71446	3505.2375
3240.99896	3484.4375
3243.28209	3493.4375
3245.56384	3481.0375
3247.84423	3474.2375
3250.12324	3493.8375
3252.40088	3488.0375
3254.67715	3477.4375
3256.95205	3465.8375
3259.22558	3481.7375
3261.49775	3479.5375
3263.76855	3488.1375
3266.03799	3473.6375
3268.30606	3492.8375
3270.57277	3476.3375
3272.83812	3481.8375
3275.10211	3466.6375
3277.36474	3454.3375
3279.62601	3453.2375
3281.88593	3446.9375
3284.14448	3467.3375
3286.40168	3457.3375
3288.65753	3461.5375
3290.91202	3456.2375
3293.16516	3450.8375
3295.41695	3436.8375
3297.66738	3445.9375
3299.91647	3434.6375
3302.16421	3399.6375
3304.4106	3384.2375
3306.65564	3372.6375
3308.89933	3354.0375
3311.14169	3327.9375
3313.38269	3302.2375
3315.62236	3291.1375
3317.86068	3266.1375
3320.09766	3242.8375
3322.3333	3217.5375
3324.5676	3227.8375
3326.80056	3161.6375
3329.03219	3152.8375
3331.26248	-0.1625
3333.49143	-1.3625
3335.71905	1.4375
