Data from AgNPs_UA_200uM_CRN_0uM_R6G_10uM_Q_RamanShift__6__14-06-54-141.txt Node

Date: Tue Jul 26 14:06:54 BST 2022
User: TCL
Spectrometer: QEP01345
Trigger mode: 4
Integration Time (sec): 7.000000E0
Scans to average: 10
Electric dark correction enabled: true
Nonlinearity correction enabled: false
Boxcar width: 0
XAxis mode: Raman Shifts
Number of Pixels in Spectrum: 1044
>>>>>Begin Spectral Data<<<<<
46.04893	0.4
50.45542	-1.3
54.85868	-0.9
59.25871	-0.3
63.6555	45.7
68.04907	51.3
72.43941	53.4
76.82654	54.9
81.21044	57.8
85.59113	60.5
89.96862	66.7
94.34289	68.3
98.71396	66.7
103.08183	68.8
107.4465	72.8
111.80798	71.7
116.16626	70.9
120.52136	75.6
124.87327	72.6
129.222	73.7
133.56755	74.8
137.90993	76
142.24913	78.6
146.58517	80.1
150.91804	86.3
155.24774	96
159.57429	108
163.89768	121.7
168.21792	152.2
172.53501	193.1
176.84895	251.8
181.15975	346.8
185.46741	470.6
189.77193	649
194.07331	848.2
198.37157	1087.7
202.6667	1340
206.9587	1580.3
211.24758	1823.8
215.53334	2069.2
219.81599	2318.7
224.09553	2610.8
228.37195	2907.8
232.64527	3254.9
236.91549	3614
241.18261	3984.2
245.44663	4302.9
249.70755	4614.1
253.96539	4864.9
258.22014	5089.7
262.4718	5262.3
266.72039	5360.8
270.96589	5407.9
275.20832	5416.1
279.44768	5337
283.68397	5269.1
287.91719	5199.6
292.14735	5148.8
296.37445	5147.5
300.59849	5166.1
304.81948	5174.3
309.03742	5189.6
313.25231	5194
317.46415	5130.9
321.67296	5049.3
325.87872	4990.7
330.08145	4992.6
334.28114	5005.8
338.47781	5059
342.67145	5119.2
346.86207	5206.5
351.04966	5306.5
355.23424	5421.2
359.4158	5507.7
363.59435	5595.9
367.76989	5664
371.94243	5731.4
376.11196	5756.7
380.27849	5819.8
384.44203	5859
388.60257	5888
392.76012	5925.3
396.91468	5975.8
401.06626	6056.7
405.21485	6100.1
409.36047	6087.8
413.50311	6044
417.64277	5981.3
421.77947	5967.7
425.9132	5947.9
430.04396	5984.2
434.17176	6028.4
438.2966	6091.8
442.41849	6150.2
446.53742	6210.7
450.6534	6255.8
454.76644	6343.5
458.87653	6362.6
462.98368	6382.2
467.08789	6403.8
471.18916	6366.9
475.2875	6356
479.38291	6335.3
483.4754	6342.3
487.56496	6337.4
491.6516	6381.3
495.73531	6415.4
499.81612	6421.4
503.89401	6430.2
507.96899	6444.4
512.04106	6464.3
516.11023	6472.4
520.1765	6509
524.23987	6527.2
528.30034	6544.3
532.35792	6558.4
536.41261	6544.7
540.46441	6515.4
544.51333	6504.1
548.55936	6495.1
552.60252	6538.1
556.64279	6580.6
560.6802	6598.3
564.71473	6604.2
568.7464	6647.9
572.7752	6667.5
576.80114	6647.6
580.82422	6648
584.84444	6682.7
588.86181	6728.5
592.87633	6768.4
596.888	6832
600.89682	6913.1
604.9028	7198.3
608.90594	7763.9
612.90624	8333.1
616.90371	8093.9
620.89834	7305.1
624.89015	6993.1
628.87913	7021
632.86528	7157.1
636.84862	7292.4
640.82913	7280.2
644.80683	7156.8
648.78172	7029.7
652.75379	6947.3
656.72306	6946.6
660.68952	7000.5
664.65319	6943.5
668.61405	6874
672.57211	6821
676.52738	6826.2
680.47986	6823.7
684.42955	6840.9
688.37646	6837.2
692.32058	6845.4
696.26192	6866
700.20048	6888.5
704.13626	6926.5
708.06928	6917.9
711.99952	6920.3
715.927	6924.8
719.85171	6963.2
723.77365	6970.3
727.69284	6984.2
731.60928	7013.3
735.52295	7004.6
739.43388	6984.5
743.34206	6957.4
747.24749	6973.7
751.15017	6975.6
755.05012	6997.2
758.94733	7072.9
762.8418	7280.7
766.73354	7598.7
770.62254	7935.3
774.50882	8122.7
778.39237	7972.2
782.27321	7604.5
786.15132	7310.8
790.02671	7112.9
793.89938	7046.1
797.76935	6972.4
801.6366	6997.5
805.50115	6995.7
809.36299	7049.2
813.22213	7074.3
817.07857	7082.9
820.93231	7048.7
824.78336	7012.7
828.63172	6981.3
832.47738	6981
836.32036	6972.8
840.16066	6952.1
843.99827	6960.7
847.8332	6966.4
851.66546	6962.6
855.49504	6977.5
859.32195	6980.1
863.1462	6993.7
866.96777	6990.5
870.78668	7012.6
874.60293	7045.6
878.41652	7067.2
882.22745	7130.6
886.03573	7188.4
889.84136	7176.1
893.64433	7177.8
897.44466	7157.3
901.24235	7127.6
905.0374	7055.4
908.8298	7039.3
912.61957	7001.7
916.40671	7007.5
920.19121	6990
923.97308	7009.6
927.75233	7003.1
931.52895	7012.7
935.30295	6995.9
939.07433	6973.9
942.84309	6924.7
946.60924	6919.5
950.37278	6879.5
954.13371	6872.4
957.89203	6856.9
961.64774	6867.7
965.40086	6859.5
969.15137	6846.5
972.89929	6843.8
976.64461	6844.2
980.38733	6824.8
984.12747	6836.6
987.86502	6893.9
991.59999	6894
995.33237	6920.2
999.06217	6972.4
1002.78939	7026.5
1006.51404	7079.3
1010.23611	7128.3
1013.95561	7165.8
1017.67255	7184.6
1021.38692	7191.6
1025.09872	7166.7
1028.80796	7130.1
1032.51465	7096.7
1036.21877	7077.5
1039.92035	7077.5
1043.61937	7070.5
1047.31584	7084.3
1051.00976	7091.9
1054.70114	7105.5
1058.38998	7091.3
1062.07627	7110.5
1065.76003	7142.6
1069.44126	7192.5
1073.11995	7250.1
1076.79611	7293.2
1080.46974	7336.7
1084.14085	7350.4
1087.80943	7367.8
1091.47549	7378.5
1095.13903	7360.9
1098.80005	7301.9
1102.45857	7268.4
1106.11456	7217.9
1109.76805	7238.8
1113.41903	7281.5
1117.06751	7351
1120.71348	7493.9
1124.35696	7633.1
1127.99793	7760
1131.63641	7823.8
1135.2724	7802.2
1138.90589	7737.7
1142.5369	7614.6
1146.16542	7512.7
1149.79145	7416.4
1153.415	7311.8
1157.03607	7244.5
1160.65467	7225.8
1164.27079	7277.1
1167.88443	7353
1171.49561	7504.3
1175.10432	7770.8
1178.71056	8080.9
1182.31434	8422
1185.91565	8577.9
1189.51451	8584.5
1193.11091	8474.1
1196.70485	8340.9
1200.29634	8224.9
1203.88538	8120.2
1207.47197	7964.9
1211.05612	7820.8
1214.63782	7699.7
1218.21708	7612.4
1221.79391	7555.3
1225.36829	7533.4
1228.94024	7474.5
1232.50976	7476.3
1236.07685	7462.8
1239.6415	7488.2
1243.20374	7500.4
1246.76355	7531.4
1250.32093	7554.4
1253.8759	7612.5
1257.42845	7700.6
1260.97859	7760.8
1264.52631	7861.5
1268.07163	7912.4
1271.61453	7984.9
1275.15503	8019.4
1278.69312	8027.3
1282.22882	8017.3
1285.76211	8054.6
1289.29301	8119.1
1292.82151	8190.1
1296.34761	8326
1299.87133	8491.6
1303.39266	8727.2
1306.9116	9077.3
1310.42815	9399.8
1313.94233	9505.1
1317.45412	9388.9
1320.96354	9192.6
1324.47058	8950.3
1327.97525	8700.4
1331.47754	8538.9
1334.97747	8456.6
1338.47502	8506.7
1341.97022	8632.6
1345.46305	8804.9
1348.95352	9060.2
1352.44163	9347.9
1355.92738	9706.3
1359.41078	10217.7
1362.89183	10670.9
1366.37053	10442.2
1369.84688	9742.8
1373.32088	8975.3
1376.79254	8451.6
1380.26186	8159.2
1383.72883	7972.2
1387.19347	7798.6
1390.65578	7662.1
1394.11575	7522.3
1397.57339	7420.1
1401.0287	7374.9
1404.48168	7338.1
1407.93234	7339.6
1411.38068	7337.2
1414.82669	7330.4
1418.27039	7320.6
1421.71177	7299.9
1425.15083	7239.1
1428.58758	7202.2
1432.02203	7195.6
1435.45416	7214.8
1438.88399	7213.7
1442.31151	7208.8
1445.73673	7213.8
1449.15965	7227.6
1452.58027	7205.4
1455.9986	7187.6
1459.41463	7224.8
1462.82837	7249.1
1466.23982	7318.6
1469.64898	7410.6
1473.05586	7489.3
1476.46045	7526
1479.86276	7587.5
1483.26279	7636.6
1486.66054	7711
1490.05602	7816
1493.44922	7998.9
1496.84016	8269.3
1500.22882	8666.3
1503.61521	9160.2
1506.99934	9664.8
1510.38121	9935.3
1513.76081	9861.4
1517.13816	9431.6
1520.51324	8902.7
1523.88607	8470.9
1527.25665	8191.9
1530.62498	8037.5
1533.99105	8014.3
1537.35488	7944.2
1540.71647	7897.3
1544.07581	7895.8
1547.4329	7879.7
1550.78776	7863.2
1554.14038	7847.9
1557.49077	7839.2
1560.83892	7847.7
1564.18484	7901.6
1567.52853	7983.7
1570.86999	8108.3
1574.20922	8162.5
1577.54624	8144.5
1580.88103	8022.5
1584.2136	7819
1587.54395	7698.4
1590.87208	7716
1594.19801	7804.1
1597.52172	7966.7
1600.84321	8025.9
1604.16251	7989.9
1607.47959	7880.9
1610.79447	7727.3
1614.10715	7558.2
1617.41763	7426.7
1620.7259	7304.5
1624.03199	7187.3
1627.33587	7149.9
1630.63757	7144.2
1633.93707	7206.9
1637.23439	7369.6
1640.52951	7594.6
1643.82246	7938.3
1647.11321	8298
1650.40179	8531.7
1653.68819	8423.2
1656.97241	7980.7
1660.25446	7553.6
1663.53433	7230.9
1666.81203	7025.3
1670.08756	6923.6
1673.36092	6841.1
1676.63211	6782.8
1679.90115	6746.9
1683.16801	6716.2
1686.43272	6653.3
1689.69527	6636.1
1692.95567	6618.6
1696.2139	6610.5
1699.46999	6563.6
1702.72392	6544.1
1705.97571	6496.2
1709.22535	6483.5
1712.47284	6433.4
1715.71819	6390.6
1718.96139	6375.2
1722.20246	6332.1
1725.44139	6312.9
1728.67818	6266.5
1731.91284	6241
1735.14537	6215.6
1738.37576	6206.6
1741.60403	6198.8
1744.83017	6163.3
1748.05418	6146.3
1751.27607	6138.6
1754.49584	6125.9
1757.71349	6135.1
1760.92903	6117.2
1764.14244	6126.6
1767.35375	6108.7
1770.56294	6089.1
1773.77002	6079.7
1776.97499	6080.7
1780.17785	6094.1
1783.37861	6079.9
1786.57727	6071.1
1789.77382	6042.7
1792.96828	6058
1796.16064	6050.8
1799.3509	6039
1802.53907	6032.3
1805.72514	6003.6
1808.90913	5991.7
1812.09102	5983
1815.27083	5972.9
1818.44856	5953.3
1821.6242	5951.5
1824.79776	5956.3
1827.96924	5937.6
1831.13864	5948.2
1834.30597	5948.2
1837.47122	5923.5
1840.6344	5929
1843.7955	5915.3
1846.95454	5916.1
1850.11151	5906.8
1853.26642	5922.9
1856.41926	5892.6
1859.57004	5898.4
1862.71876	5901.9
1865.86542	5894.7
1869.01003	5877
1872.15258	5885
1875.29308	5867
1878.43152	5850.8
1881.56792	5845.1
1884.70227	5831.6
1887.83457	5834.8
1890.96482	5826.6
1894.09304	5829.4
1897.21921	5812.6
1900.34335	5810.6
1903.46544	5825.2
1906.58551	5807.3
1909.70353	5813.6
1912.81953	5790.6
1915.93349	5787.2
1919.04543	5771.4
1922.15534	5778.7
1925.26322	5746.8
1928.36908	5751.4
1931.47292	5725.5
1934.57473	5729.3
1937.67453	5699
1940.77232	5712.3
1943.86808	5688
1946.96184	5664.2
1950.05358	5664.4
1953.14331	5651.9
1956.23103	5635.5
1959.31675	5608.2
1962.40046	5616.2
1965.48217	5593.6
1968.56188	5571.4
1971.63959	5552.5
1974.7153	5529.9
1977.78901	5531.1
1980.86073	5519.9
1983.93046	5493.9
1986.99819	5476.9
1990.06394	5466.9
1993.1277	5447.5
1996.18947	5429.9
1999.24925	5425.8
2002.30706	5407
2005.36288	5400.1
2008.41672	5374.1
2011.46859	5360.2
2014.51848	5341.8
2017.56639	5351.9
2020.61233	5309.9
2023.6563	5296
2026.6983	5291.6
2029.73833	5283.7
2032.7764	5263.3
2035.8125	5257.9
2038.84664	5238.6
2041.87881	5236.6
2044.90903	5222.2
2047.93729	5215
2050.96359	5208.1
2053.98794	5199.2
2057.01034	5212.2
2060.03078	5196.4
2063.04927	5179.8
2066.06582	5200.7
2069.08042	5186
2072.09307	5179.5
2075.10378	5176.9
2078.11255	5171.8
2081.11938	5174
2084.12426	5192.6
2087.12722	5186.4
2090.12824	5184.1
2093.12732	5182
2096.12447	5175.5
2099.11969	5174.7
2102.11299	5213.6
2105.10435	5184.2
2108.09379	5195.6
2111.08131	5191.4
2114.0669	5185
2117.05057	5203.9
2120.03233	5212.6
2123.01216	5206.5
2125.99008	5211
2128.96609	5207.2
2131.94018	5216.1
2134.91236	5216.5
2137.88263	5225.2
2140.851	5232.4
2143.81746	5230.5
2146.78201	5232.6
2149.74466	5224.9
2152.7054	5227.5
2155.66425	5231.1
2158.6212	5214.2
2161.57625	5210.3
2164.52941	5221.7
2167.48067	5217.9
2170.43004	5239.2
2173.37752	5218.5
2176.32311	5218.2
2179.26681	5214
2182.20863	5218.1
2185.14856	5214.8
2188.08661	5215.9
2191.02278	5211.6
2193.95707	5214.1
2196.88948	5212.7
2199.82001	5200.7
2202.74867	5197.3
2205.67545	5191.9
2208.60037	5184.8
2211.52341	5180.3
2214.44458	5181.7
2217.36388	5151.5
2220.28132	5151.4
2223.1969	5137.4
2226.11061	5128.6
2229.02246	5119.4
2231.93245	5106.3
2234.84058	5100.2
2237.74686	5084.2
2240.65128	5097.9
2243.55385	5090.9
2246.45456	5069.1
2249.35343	5079.5
2252.25044	5067.9
2255.14561	5047.9
2258.03893	5058.1
2260.93041	5054.8
2263.82004	5051.2
2266.70783	5029.6
2269.59378	5010.5
2272.4779	5013.2
2275.36017	5004.4
2278.24061	4997.3
2281.11922	4988.8
2283.996	4979.6
2286.87094	4965.2
2289.74405	4956.2
2292.61534	4939.4
2295.4848	4943.1
2298.35243	4940.4
2301.21824	4936
2304.08223	4936.8
2306.94439	4938.2
2309.80474	4919.7
2312.66327	4917.1
2315.51999	4896.2
2318.37489	4907.7
2321.22797	4905.1
2324.07925	4893.2
2326.92871	4876.5
2329.77637	4879.6
2332.62222	4882.2
2335.46626	4872.4
2338.3085	4845.3
2341.14893	4836
2343.98756	4834.1
2346.8244	4843.3
2349.65943	4822.6
2352.49267	4821.1
2355.32411	4831.3
2358.15376	4818.1
2360.98161	4829.3
2363.80768	4819.4
2366.63195	4824.1
2369.45444	4813.6
2372.27514	4809.7
2375.09405	4801.5
2377.91118	4796
2380.72652	4787.6
2383.54009	4766.3
2386.35187	4765.5
2389.16188	4756.5
2391.97011	4758.9
2394.77657	4736.8
2397.58125	4729
2400.38416	4736.6
2403.18529	4722.8
2405.98466	4705.6
2408.78226	4700.8
2411.57809	4700
2414.37216	4694.1
2417.16446	4700.4
2419.955	4679.8
2422.74378	4689.1
2425.5308	4669.4
2428.31606	4677.5
2431.09956	4661.6
2433.88131	4662
2436.6613	4669.2
2439.43954	4673.4
2442.21603	4666.2
2444.99077	4653.2
2447.76377	4648.8
2450.53501	4653.6
2453.30451	4615.1
2456.07226	4619.9
2458.83827	4608.2
2461.60254	4622.4
2464.36507	4614.3
2467.12586	4593.6
2469.88492	4613.9
2472.64224	4598.8
2475.39782	4611.7
2478.15167	4628.4
2480.90379	4611.7
2483.65417	4595.9
2486.40283	4600
2489.14976	4598.2
2491.89497	4594.7
2494.63845	4593.3
2497.3802	4596.3
2500.12024	4578.5
2502.85855	4589.5
2505.59514	4570
2508.33002	4555.9
2511.06318	4562.5
2513.79462	4550.2
2516.52435	4548.8
2519.25237	4533.8
2521.97867	4528.8
2524.70327	4523.1
2527.42616	4513.9
2530.14734	4514.6
2532.86681	4518.9
2535.58458	4525.8
2538.30065	4491.6
2541.01501	4491.6
2543.72768	4488.5
2546.43864	4485.2
2549.14791	4466.1
2551.85548	4462.7
2554.56136	4461.2
2557.26554	4431.8
2559.96803	4453.7
2562.66883	4426.5
2565.36794	4418.5
2568.06536	4424.5
2570.7611	4412.5
2573.45514	4403.4
2576.14751	4404.8
2578.83819	4374.7
2581.52719	4372.9
2584.21451	4368.9
2586.90015	4372.6
2589.58411	4369.3
2592.2664	4354.1
2594.94701	4347.3
2597.62594	4339.3
2600.30321	4327.3
2602.9788	4315.9
2605.65273	4320.6
2608.32498	4317.7
2610.99557	4307.9
2613.66449	4318
2616.33175	4298.5
2618.99734	4296.5
2621.66128	4282.8
2624.32355	4274.5
2626.98416	4276.9
2629.64311	4255.9
2632.30041	4268.9
2634.95605	4261.7
2637.61004	4240.9
2640.26238	4240.1
2642.91306	4240.3
2645.56209	4237.6
2648.20948	4230.2
2650.85521	4239.4
2653.4993	4237.5
2656.14175	4236.5
2658.78255	4233.2
2661.42171	4229.6
2664.05923	4235.4
2666.6951	4234.8
2669.32934	4239.9
2671.96194	4237.8
2674.59291	4242.7
2677.22224	4244.2
2679.84993	4237.7
2682.476	4246
2685.10043	4236.4
2687.72324	4230.8
2690.34441	4240.9
2692.96396	4213
2695.58188	4230.5
2698.19818	4227.6
2700.81285	4215.9
2703.4259	4215.8
2706.03733	4217.8
2708.64714	4215.9
2711.25533	4220.1
2713.86191	4215.1
2716.46687	4236.4
2719.07021	4210.5
2721.67194	4237.1
2724.27206	4227.5
2726.87057	4222.2
2729.46747	4227.8
2732.06276	4214.9
2734.65644	4220.7
2737.24852	4236.6
2739.83899	4233
2742.42786	4223.9
2745.01513	4204.7
2747.60079	4206.3
2750.18486	4191.3
2752.76733	4187.7
2755.3482	4169.2
2757.92747	4171.6
2760.50515	4172.1
2763.08123	4165.6
2765.65573	4154.8
2768.22863	4159.1
2770.79994	4139.8
2773.36967	4145.6
2775.9378	4146.9
2778.50435	4141.8
2781.06932	4139.7
2783.6327	4136.6
2786.1945	4117.6
2788.75471	4112.3
2791.31335	4110.9
2793.87041	4109.1
2796.42589	4090
2798.97979	4093
2801.53212	4075.9
2804.08288	4079.7
2806.63206	4046
2809.17967	4057.3
2811.72571	4046.5
2814.27018	4048.4
2816.81308	4026.5
2819.35442	4028
2821.89419	4007.5
2824.43239	4015.9
2826.96904	4003
2829.50412	4001.4
2832.03763	4003.7
2834.56959	4005.8
2837.1	3986.3
2839.62884	3984.3
2842.15613	3974
2844.68186	3995
2847.20604	3980.5
2849.72867	3972.7
2852.24974	3959.9
2854.76927	3976.8
2857.28724	3960.5
2859.80367	3963.6
2862.31855	3962
2864.83189	3953.4
2867.34368	3940.3
2869.85393	3945.2
2872.36264	3939.8
2874.8698	3930.7
2877.37543	3927.6
2879.87952	3940.9
2882.38207	3931.3
2884.88308	3942.8
2887.38256	3945
2889.88051	3938.8
2892.37692	3946.4
2894.8718	3946.3
2897.36515	3939.5
2899.85698	3935.3
2902.34727	3953.3
2904.83604	3939.1
2907.32328	3961.9
2909.809	3961.2
2912.29319	3953.9
2914.77587	3953
2917.25702	3946.3
2919.73665	3939.1
2922.21476	3941.1
2924.69136	3938.9
2927.16644	3943
2929.64	3938.5
2932.11205	3941.3
2934.58258	3934.3
2937.05161	3940.8
2939.51912	3948.5
2941.98513	3950.6
2944.44962	3926.2
2946.91261	3915
2949.37409	3933.6
2951.83407	3931.4
2954.29254	3925.3
2956.74951	3920.4
2959.20498	3917.9
2961.65895	3903.3
2964.11142	3917
2966.56239	3922.7
2969.01186	3905.9
2971.45984	3905.4
2973.90632	3920.6
2976.35131	3903
2978.7948	3909.1
2981.23681	3898.1
2983.67732	3905.9
2986.11635	3884.8
2988.55388	3884.7
2990.98993	3880.2
2993.4245	3879
2995.85758	3879.4
2998.28917	3868.8
3000.71928	3851.9
3003.14791	3837.8
3005.57506	3853.2
3008.00073	3826.3
3010.42493	3840.9
3012.84764	3838.3
3015.26888	3808.4
3017.68865	3832.1
3020.10694	3835.5
3022.52376	3838.1
3024.9391	3815.4
3027.35298	3815.7
3029.76539	3819.9
3032.17632	3812.7
3034.5858	3800.9
3036.9938	3804.2
3039.40034	3795.7
3041.80542	3801.1
3044.20903	3800.9
3046.61118	3793.9
3049.01187	3787.3
3051.4111	3794.6
3053.80888	3783.9
3056.20519	3792.8
3058.60005	3796.7
3060.99345	3784.4
3063.3854	3762.9
3065.7759	3759.8
3068.16494	3756.2
3070.55254	3754.8
3072.93868	3761
3075.32338	3756.6
3077.70662	3746.9
3080.08842	3742.7
3082.46878	3745.5
3084.84769	3745.3
3087.22515	3748.9
3089.60118	3751.3
3091.97576	3759.6
3094.3489	3773.9
3096.72061	3767.6
3099.09087	3776.5
3101.4597	3764.1
3103.82709	3772.9
3106.19305	3785.3
3108.55757	3796.2
3110.92066	3770.4
3113.28232	3789.6
3115.64255	3777.6
3118.00134	3794.1
3120.35871	3773.2
3122.71466	3777.9
3125.06917	3769.7
3127.42226	3759
3129.77393	3755.5
3132.12417	3779.3
3134.47299	3768.5
3136.82039	3761.4
3139.16636	3782
3141.51092	3782.9
3143.85406	3794.9
3146.19579	3797
3148.53609	3805.4
3150.87499	3813.4
3153.21246	3822.1
3155.54853	3834.4
3157.88318	3836.5
3160.21642	3835.8
3162.54826	3838.9
3164.87868	3842.6
3167.2077	3860.9
3169.5353	3860.6
3171.86151	3863.6
3174.18631	3878.5
3176.5097	3879.9
3178.83169	3876.4
3181.15228	3879.3
3183.47147	3852.4
3185.78926	3870.7
3188.10565	3855.4
3190.42065	3864.3
3192.73424	3859.2
3195.04645	3874.4
3197.35725	3872.9
3199.66667	3876.1
3201.97469	3902
3204.28132	3882.2
3206.58656	3901.1
3208.8904	3880.4
3211.19287	3896.7
3213.49394	3907.7
3215.79363	3896.7
3218.09193	3909.2
3220.38884	3915
3222.68438	3919.2
3224.97853	3916.3
3227.2713	3923.5
3229.56269	3916.7
3231.8527	3905.2
3234.14133	3899.3
3236.42858	3908.7
3238.71446	3901.2
3240.99896	3883.7
3243.28209	3886.4
3245.56384	3874
3247.84423	3873.4
3250.12324	3868.8
3252.40088	3868.5
3254.67715	3878.1
3256.95205	3865.7
3259.22558	3877.1
3261.49775	3861.8
3263.76855	3856.9
3266.03799	3874
3268.30606	3855.2
3270.57277	3853.5
3272.83812	3839.3
3275.10211	3852.4
3277.36474	3830.8
3279.62601	3843.4
3281.88593	3841.1
3284.14448	3827.7
3286.40168	3837.2
3288.65753	3846.5
3290.91202	3827.7
3293.16516	3794.1
3295.41695	3802.1
3297.66738	3793
3299.91647	3790.4
3302.16421	3758.8
3304.4106	3736.5
3306.65564	3721.5
3308.89933	3703.5
3311.14169	3671
3313.38269	3626.2
3315.62236	3631.7
3317.86068	3594.7
3320.09766	3578.8
3322.3333	3558.8
3324.5676	3554.9
3326.80056	3497.1
3329.03219	3472.7
3331.26248	-0.2
3333.49143	0.5
3335.71905	0.8
