Data from AgNPs_UA_50uM_CRN_0uM_R6G_10uM_Q_RamanShift__0__12-11-11-764.txt Node

Date: Tue Jul 26 12:11:11 BST 2022
User: TCL
Spectrometer: QEP01345
Trigger mode: 4
Integration Time (sec): 7.000000E0
Scans to average: 10
Electric dark correction enabled: true
Nonlinearity correction enabled: false
Boxcar width: 0
XAxis mode: Raman Shifts
Number of Pixels in Spectrum: 1044
>>>>>Begin Spectral Data<<<<<
46.04893	-1.3375
50.45542	-0.9375
54.85868	0.4625
59.25871	-0.9375
63.6555	122.1625
68.04907	128.6625
72.43941	133.6625
76.82654	141.9625
81.21044	141.2625
85.59113	147.4625
89.96862	155.7625
94.34289	159.3625
98.71396	167.7625
103.08183	170.1625
107.4465	176.8625
111.80798	184.0625
116.16626	181.4625
120.52136	193.4625
124.87327	197.3625
129.222	206.7625
133.56755	224.0625
137.90993	241.4625
142.24913	260.5625
146.58517	290.7625
150.91804	332.9625
155.24774	386.6625
159.57429	478.0625
163.89768	610.0625
168.21792	805.2625
172.53501	1094.7625
176.84895	1522.1625
181.15975	2154.5625
185.46741	3023.9625
189.77193	4179.2625
194.07331	5624.9625
198.37157	7243.7625
202.6667	8971.6625
206.9587	10683.2625
211.24758	12394.9625
215.53334	14082.8625
219.81599	15856.0625
224.09553	17791.3625
228.37195	19891.0625
232.64527	22247.9625
236.91549	24746.8625
241.18261	27224.0625
245.44663	29629.3625
249.70755	31901.1625
253.96539	33894.0625
258.22014	35521.1625
262.4718	36771.1625
266.72039	37637.0625
270.96589	38031.0625
275.20832	38021.9625
279.44768	37808.3625
283.68397	37387.0625
287.91719	36906.6625
292.14735	36502.5625
296.37445	36288.9625
300.59849	36203.5625
304.81948	36316.9625
309.03742	36364.3625
313.25231	36288.9625
317.46415	35958.8625
321.67296	35501.1625
325.87872	35084.9625
330.08145	35018.2625
334.28114	35219.5625
338.47781	35601.5625
342.67145	36033.9625
346.86207	36636.2625
351.04966	37364.7625
355.23424	38111.9625
359.4158	38790.1625
363.59435	39267.7625
367.76989	39818.3625
371.94243	40161.1625
376.11196	40477.6625
380.27849	40741.0625
384.44203	41008.2625
388.60257	41375.4625
392.76012	41641.2625
396.91468	42101.6625
401.06626	42608.3625
405.21485	42990.0625
409.36047	43075.0625
413.50311	42800.7625
417.64277	42634.7625
421.77947	42536.3625
425.9132	42273.4625
430.04396	42258.0625
434.17176	42506.6625
438.2966	42762.5625
442.41849	43123.3625
446.53742	43593.1625
450.6534	44130.5625
454.76644	44668.3625
458.87653	44987.4625
462.98368	45307.9625
467.08789	45399.3625
471.18916	45370.9625
475.2875	45068.1625
479.38291	44775.3625
483.4754	44621.9625
487.56496	44614.0625
491.6516	44588.7625
495.73531	44505.4625
499.81612	44601.1625
503.89401	44863.0625
507.96899	45098.1625
512.04106	45200.3625
516.11023	45311.8625
520.1765	45278.8625
524.23987	45235.7625
528.30034	45167.4625
532.35792	45166.8625
536.41261	45116.8625
540.46441	44898.1625
544.51333	44950.9625
548.55936	45132.5625
552.60252	45504.0625
556.64279	45936.1625
560.6802	46260.9625
564.71473	46609.7625
568.7464	46738.3625
572.7752	46837.6625
576.80114	46821.8625
580.82422	46989.8625
584.84444	47203.4625
588.86181	47458.6625
592.87633	47452.4625
596.888	47722.0625
600.89682	48406.5625
604.9028	50147.0625
608.90594	53846.4625
612.90624	57454.6625
616.90371	55739.9625
620.89834	50280.4625
624.89015	47856.6625
628.87913	47565.1625
632.86528	48003.2625
636.84862	48422.6625
640.82913	48233.3625
644.80683	47593.9625
648.78172	47131.0625
652.75379	47186.4625
656.72306	47671.5625
660.68952	48343.9625
664.65319	48510.7625
668.61405	48387.9625
672.57211	48664.7625
676.52738	48867.6625
680.47986	48618.2625
684.42955	48221.5625
688.37646	48128.1625
692.32058	48341.3625
696.26192	48768.0625
700.20048	49328.1625
704.13626	49614.6625
708.06928	49564.8625
711.99952	49313.6625
715.927	49224.5625
719.85171	49253.2625
723.77365	49259.4625
727.69284	49041.1625
731.60928	48880.1625
735.52295	48911.5625
739.43388	48844.4625
743.34206	49001.5625
747.24749	49125.4625
751.15017	49197.6625
755.05012	49489.3625
758.94733	50068.5625
762.8418	51384.8625
766.73354	53335.4625
770.62254	55205.7625
774.50882	56139.9625
778.39237	55836.1625
782.27321	54557.6625
786.15132	52856.1625
790.02671	51348.9625
793.89938	50418.9625
797.76935	49936.8625
801.6366	49683.1625
805.50115	49606.9625
809.36299	49492.8625
813.22213	49432.1625
817.07857	49432.1625
820.93231	49560.7625
824.78336	49696.3625
828.63172	49750.9625
832.47738	49800.2625
836.32036	49809.2625
840.16066	49817.2625
843.99827	49834.9625
847.8332	49917.6625
851.66546	49926.2625
855.49504	50075.6625
859.32195	50214.7625
863.1462	50274.0625
866.96777	50299.8625
870.78668	50315.2625
874.60293	50390.6625
878.41652	50534.4625
882.22745	50687.3625
886.03573	50756.3625
889.84136	50770.1625
893.64433	50662.8625
897.44466	50684.9625
901.24235	50629.9625
905.0374	50606.6625
908.8298	50705.2625
912.61957	50653.6625
916.40671	50614.8625
920.19121	50723.6625
923.97308	50745.6625
927.75233	50849.9625
931.52895	50855.3625
935.30295	50785.8625
939.07433	50543.4625
942.84309	50217.8625
946.60924	49967.0625
950.37278	49953.2625
954.13371	49892.3625
957.89203	49909.9625
961.64774	49920.6625
965.40086	49844.7625
969.15137	49835.3625
972.89929	49812.4625
976.64461	49788.1625
980.38733	49684.9625
984.12747	49787.3625
987.86502	49859.1625
991.59999	50021.9625
995.33237	50113.2625
999.06217	50376.6625
1002.78939	50594.4625
1006.51404	50966.0625
1010.23611	51386.1625
1013.95561	51598.0625
1017.67255	51696.7625
1021.38692	51661.5625
1025.09872	51487.9625
1028.80796	51260.9625
1032.51465	51150.4625
1036.21877	51178.2625
1039.92035	51266.0625
1043.61937	51351.7625
1047.31584	51515.5625
1051.00976	51682.6625
1054.70114	51811.3625
1058.38998	51981.0625
1062.07627	52245.0625
1065.76003	52489.3625
1069.44126	52807.7625
1073.11995	53438.3625
1076.79611	54137.7625
1080.46974	54627.0625
1084.14085	54612.0625
1087.80943	54701.5625
1091.47549	54775.6625
1095.13903	54911.8625
1098.80005	55118.9625
1102.45857	55414.3625
1106.11456	55381.7625
1109.76805	54804.8625
1113.41903	54317.4625
1117.06751	54113.6625
1120.71348	54223.4625
1124.35696	54268.8625
1127.99793	54419.1625
1131.63641	54332.3625
1135.2724	53955.6625
1138.90589	53677.7625
1142.5369	53452.7625
1146.16542	53187.5625
1149.79145	53041.3625
1153.415	52800.9625
1157.03607	52694.2625
1160.65467	52884.5625
1164.27079	53314.0625
1167.88443	54043.7625
1171.49561	55115.7625
1175.10432	56633.0625
1178.71056	58506.2625
1182.31434	60311.8625
1185.91565	61298.3625
1189.51451	61632.3625
1193.11091	61608.9625
1196.70485	61049.6625
1200.29634	60135.8625
1203.88538	59195.0625
1207.47197	58058.0625
1211.05612	57056.8625
1214.63782	56221.4625
1218.21708	55565.5625
1221.79391	54888.0625
1225.36829	54519.3625
1228.94024	54348.8625
1232.50976	54377.5625
1236.07685	54450.8625
1239.6415	54621.4625
1243.20374	54794.8625
1246.76355	54942.6625
1250.32093	55206.7625
1253.8759	55473.4625
1257.42845	56080.1625
1260.97859	56770.9625
1264.52631	57642.7625
1268.07163	58237.4625
1271.61453	58729.8625
1275.15503	58915.5625
1278.69312	59023.1625
1282.22882	59046.2625
1285.76211	59143.5625
1289.29301	59392.0625
1292.82151	59823.7625
1296.34761	60319.2625
1299.87133	61333.8625
1303.39266	62537.2625
1306.9116	64243.7625
1310.42815	66282.3625
1313.94233	67416.1625
1317.45412	67198.9625
1320.96354	66460.7625
1324.47058	65635.9625
1327.97525	64523.0625
1331.47754	63587.4625
1334.97747	63187.0625
1338.47502	63369.4625
1341.97022	64243.5625
1345.46305	65678.9625
1348.95352	67379.2625
1352.44163	68829.3625
1355.92738	69813.9625
1359.41078	70758.7625
1362.89183	71584.5625
1366.37053	70366.5625
1369.84688	66716.6625
1373.32088	62788.4625
1376.79254	60014.6625
1380.26186	58370.1625
1383.72883	57275.2625
1387.19347	56451.8625
1390.65578	55699.2625
1394.11575	54876.0625
1397.57339	54131.1625
1401.0287	53753.2625
1404.48168	53662.2625
1407.93234	53776.2625
1411.38068	54005.4625
1414.82669	54065.5625
1418.27039	53933.9625
1421.71177	53739.7625
1425.15083	53485.6625
1428.58758	53088.1625
1432.02203	52844.6625
1435.45416	52712.4625
1438.88399	52689.7625
1442.31151	52639.4625
1445.73673	52636.2625
1449.15965	52744.6625
1452.58027	52845.2625
1455.9986	52798.7625
1459.41463	52988.8625
1462.82837	53373.3625
1466.23982	53863.8625
1469.64898	54418.3625
1473.05586	54862.3625
1476.46045	55266.6625
1479.86276	55548.5625
1483.26279	55972.2625
1486.66054	56531.7625
1490.05602	57172.0625
1493.44922	58277.2625
1496.84016	59985.2625
1500.22882	62395.3625
1503.61521	65106.3625
1506.99934	67581.7625
1510.38121	68778.8625
1513.76081	68440.9625
1517.13816	66548.3625
1520.51324	63841.9625
1523.88607	61342.1625
1527.25665	59515.2625
1530.62498	58351.7625
1533.99105	57593.1625
1537.35488	56948.9625
1540.71647	56480.1625
1544.07581	56071.6625
1547.4329	55783.7625
1550.78776	55563.8625
1554.14038	55485.3625
1557.49077	55550.1625
1560.83892	55842.7625
1564.18484	56441.5625
1567.52853	56996.1625
1570.86999	57358.7625
1574.20922	57587.8625
1577.54624	57512.4625
1580.88103	56810.0625
1584.2136	55796.0625
1587.54395	55247.0625
1590.87208	55201.6625
1594.19801	55797.4625
1597.52172	56800.0625
1600.84321	57238.0625
1604.16251	56859.8625
1607.47959	56147.8625
1610.79447	55201.7625
1614.10715	53926.3625
1617.41763	52499.2625
1620.7259	51404.1625
1624.03199	50733.1625
1627.33587	50600.8625
1630.63757	50676.5625
1633.93707	51176.0625
1637.23439	52283.8625
1640.52951	54110.2625
1643.82246	56578.8625
1647.11321	59249.0625
1650.40179	60731.6625
1653.68819	60040.0625
1656.97241	57248.0625
1660.25446	54085.9625
1663.53433	51584.8625
1666.81203	49969.9625
1670.08756	48925.5625
1673.36092	48226.9625
1676.63211	47790.2625
1679.90115	47416.3625
1683.16801	47123.0625
1686.43272	46905.9625
1689.69527	46757.2625
1692.95567	46653.7625
1696.2139	46558.4625
1699.46999	46461.2625
1702.72392	46437.5625
1705.97571	46422.0625
1709.22535	46421.8625
1712.47284	46441.0625
1715.71819	46405.9625
1718.96139	46268.7625
1722.20246	46202.3625
1725.44139	46141.0625
1728.67818	46099.8625
1731.91284	45935.8625
1735.14537	45781.6625
1738.37576	45670.0625
1741.60403	45575.5625
1744.83017	45436.6625
1748.05418	45245.2625
1751.27607	45193.1625
1754.49584	45163.0625
1757.71349	45092.9625
1760.92903	45022.8625
1764.14244	44993.9625
1767.35375	45035.9625
1770.56294	45001.5625
1773.77002	44963.2625
1776.97499	44906.7625
1780.17785	44862.7625
1783.37861	44807.3625
1786.57727	44795.7625
1789.77382	44740.7625
1792.96828	44718.1625
1796.16064	44609.5625
1799.3509	44619.1625
1802.53907	44540.0625
1805.72514	44414.4625
1808.90913	44275.7625
1812.09102	44159.3625
1815.27083	44119.4625
1818.44856	44033.7625
1821.6242	43948.4625
1824.79776	43856.7625
1827.96924	43758.7625
1831.13864	43699.4625
1834.30597	43707.3625
1837.47122	43640.9625
1840.6344	43571.9625
1843.7955	43601.6625
1846.95454	43587.3625
1850.11151	43546.8625
1853.26642	43495.1625
1856.41926	43402.8625
1859.57004	43395.2625
1862.71876	43315.5625
1865.86542	43323.4625
1869.01003	43360.4625
1872.15258	43304.5625
1875.29308	43221.9625
1878.43152	43111.3625
1881.56792	42981.1625
1884.70227	42938.3625
1887.83457	42912.1625
1890.96482	42850.3625
1894.09304	42686.5625
1897.21921	42724.2625
1900.34335	42620.4625
1903.46544	42528.4625
1906.58551	42529.3625
1909.70353	42562.4625
1912.81953	42517.9625
1915.93349	42445.2625
1919.04543	42300.7625
1922.15534	42202.1625
1925.26322	42152.8625
1928.36908	42023.9625
1931.47292	41950.4625
1934.57473	41874.6625
1937.67453	41823.7625
1940.77232	41781.0625
1943.86808	41645.8625
1946.96184	41555.5625
1950.05358	41414.2625
1953.14331	41196.6625
1956.23103	41129.8625
1959.31675	40994.6625
1962.40046	40874.1625
1965.48217	40797.5625
1968.56188	40576.7625
1971.63959	40446.0625
1974.7153	40405.9625
1977.78901	40267.6625
1980.86073	40175.7625
1983.93046	40078.4625
1986.99819	39896.7625
1990.06394	39769.2625
1993.1277	39654.8625
1996.18947	39605.8625
1999.24925	39477.8625
2002.30706	39346.1625
2005.36288	39202.2625
2008.41672	39096.1625
2011.46859	39046.0625
2014.51848	38886.1625
2017.56639	38733.7625
2020.61233	38633.1625
2023.6563	38515.6625
2026.6983	38389.5625
2029.73833	38336.0625
2032.7764	38203.3625
2035.8125	38084.4625
2038.84664	38039.5625
2041.87881	37989.3625
2044.90903	37958.7625
2047.93729	37829.2625
2050.96359	37747.9625
2053.98794	37750.6625
2057.01034	37718.0625
2060.03078	37653.8625
2063.04927	37696.3625
2066.06582	37678.6625
2069.08042	37597.9625
2072.09307	37540.9625
2075.10378	37542.2625
2078.11255	37447.4625
2081.11938	37435.1625
2084.12426	37392.4625
2087.12722	37445.9625
2090.12824	37395.7625
2093.12732	37428.5625
2096.12447	37339.6625
2099.11969	37361.1625
2102.11299	37318.0625
2105.10435	37320.1625
2108.09379	37357.2625
2111.08131	37356.2625
2114.0669	37369.1625
2117.05057	37403.4625
2120.03233	37445.9625
2123.01216	37466.1625
2125.99008	37470.6625
2128.96609	37470.9625
2131.94018	37535.6625
2134.91236	37504.2625
2137.88263	37606.4625
2140.851	37604.2625
2143.81746	37578.8625
2146.78201	37538.4625
2149.74466	37590.3625
2152.7054	37596.8625
2155.66425	37550.9625
2158.6212	37541.5625
2161.57625	37521.2625
2164.52941	37465.8625
2167.48067	37532.6625
2170.43004	37447.4625
2173.37752	37365.2625
2176.32311	37388.3625
2179.26681	37376.0625
2182.20863	37348.8625
2185.14856	37391.0625
2188.08661	37361.8625
2191.02278	37243.0625
2193.95707	37224.1625
2196.88948	37273.7625
2199.82001	37210.9625
2202.74867	37191.0625
2205.67545	37161.0625
2208.60037	37091.2625
2211.52341	36981.3625
2214.44458	36895.6625
2217.36388	36823.7625
2220.28132	36765.0625
2223.1969	36625.9625
2226.11061	36647.4625
2229.02246	36600.7625
2231.93245	36498.1625
2234.84058	36435.9625
2237.74686	36325.1625
2240.65128	36343.0625
2243.55385	36249.9625
2246.45456	36240.7625
2249.35343	36158.4625
2252.25044	36093.9625
2255.14561	36075.8625
2258.03893	36075.5625
2260.93041	35984.3625
2263.82004	35904.3625
2266.70783	35806.2625
2269.59378	35704.3625
2272.4779	35657.1625
2275.36017	35541.3625
2278.24061	35507.1625
2281.11922	35367.3625
2283.996	35294.3625
2286.87094	35228.4625
2289.74405	35085.9625
2292.61534	35054.1625
2295.4848	34992.9625
2298.35243	35009.1625
2301.21824	34968.4625
2304.08223	34951.8625
2306.94439	34912.4625
2309.80474	34925.4625
2312.66327	34821.4625
2315.51999	34799.2625
2318.37489	34802.7625
2321.22797	34714.6625
2324.07925	34563.6625
2326.92871	34504.7625
2329.77637	34467.0625
2332.62222	34381.7625
2335.46626	34325.8625
2338.3085	34266.9625
2341.14893	34180.0625
2343.98756	34185.3625
2346.8244	34193.6625
2349.65943	34237.1625
2352.49267	34073.8625
2355.32411	34013.4625
2358.15376	33978.7625
2360.98161	34005.0625
2363.80768	34013.3625
2366.63195	33975.2625
2369.45444	33956.4625
2372.27514	33858.0625
2375.09405	33856.0625
2377.91118	33823.9625
2380.72652	33708.0625
2383.54009	33657.9625
2386.35187	33575.9625
2389.16188	33508.3625
2391.97011	33417.6625
2394.77657	33331.9625
2397.58125	33189.6625
2400.38416	33183.5625
2403.18529	33111.9625
2405.98466	33012.1625
2408.78226	32944.3625
2411.57809	32922.3625
2414.37216	32927.3625
2417.16446	32966.7625
2419.955	32914.5625
2422.74378	32883.3625
2425.5308	32846.0625
2428.31606	32812.9625
2431.09956	32733.1625
2433.88131	32685.7625
2436.6613	32683.5625
2439.43954	32662.4625
2442.21603	32584.0625
2444.99077	32506.6625
2447.76377	32452.4625
2450.53501	32451.5625
2453.30451	32401.6625
2456.07226	32299.6625
2458.83827	32235.1625
2461.60254	32216.5625
2464.36507	32104.4625
2467.12586	32069.7625
2469.88492	32073.8625
2472.64224	32040.3625
2475.39782	32014.4625
2478.15167	32015.6625
2480.90379	31892.7625
2483.65417	31899.6625
2486.40283	31900.0625
2489.14976	31886.4625
2491.89497	31826.0625
2494.63845	31829.8625
2497.3802	31770.9625
2500.12024	31702.1625
2502.85855	31644.1625
2505.59514	31609.7625
2508.33002	31597.9625
2511.06318	31512.2625
2513.79462	31510.5625
2516.52435	31507.0625
2519.25237	31438.9625
2521.97867	31344.9625
2524.70327	31268.7625
2527.42616	31222.1625
2530.14734	31229.7625
2532.86681	31182.1625
2535.58458	31111.0625
2538.30065	31029.9625
2541.01501	31011.2625
2543.72768	30944.2625
2546.43864	30865.6625
2549.14791	30797.5625
2551.85548	30731.4625
2554.56136	30632.4625
2557.26554	30588.0625
2559.96803	30541.7625
2562.66883	30464.2625
2565.36794	30358.0625
2568.06536	30349.5625
2570.7611	30278.8625
2573.45514	30195.4625
2576.14751	30173.3625
2578.83819	30134.0625
2581.52719	30114.4625
2584.21451	29986.2625
2586.90015	29941.8625
2589.58411	29883.4625
2592.2664	29878.3625
2594.94701	29784.9625
2597.62594	29695.4625
2600.30321	29615.1625
2602.9788	29527.1625
2605.65273	29472.2625
2608.32498	29469.0625
2610.99557	29438.0625
2613.66449	29399.6625
2616.33175	29356.6625
2618.99734	29377.4625
2621.66128	29299.0625
2624.32355	29253.4625
2626.98416	29172.5625
2629.64311	29072.3625
2632.30041	29029.5625
2634.95605	29044.4625
2637.61004	28982.2625
2640.26238	28950.2625
2642.91306	28949.0625
2645.56209	28911.5625
2648.20948	28827.9625
2650.85521	28756.6625
2653.4993	28688.0625
2656.14175	28698.7625
2658.78255	28596.6625
2661.42171	28647.4625
2664.05923	28678.7625
2666.6951	28711.5625
2669.32934	28742.5625
2671.96194	28678.5625
2674.59291	28662.9625
2677.22224	28614.8625
2679.84993	28614.0625
2682.476	28566.3625
2685.10043	28569.4625
2687.72324	28551.1625
2690.34441	28517.4625
2692.96396	28498.4625
2695.58188	28444.1625
2698.19818	28400.8625
2700.81285	28484.9625
2703.4259	28423.0625
2706.03733	28471.7625
2708.64714	28395.5625
2711.25533	28382.2625
2713.86191	28317.8625
2716.46687	28362.2625
2719.07021	28361.4625
2721.67194	28409.5625
2724.27206	28319.0625
2726.87057	28327.8625
2729.46747	28259.0625
2732.06276	28307.0625
2734.65644	28271.0625
2737.24852	28247.4625
2739.83899	28174.1625
2742.42786	28273.7625
2745.01513	28180.7625
2747.60079	28062.2625
2750.18486	27986.0625
2752.76733	27944.9625
2755.3482	27932.6625
2757.92747	27905.8625
2760.50515	27851.3625
2763.08123	27810.0625
2765.65573	27735.2625
2768.22863	27754.1625
2770.79994	27672.4625
2773.36967	27620.3625
2775.9378	27577.6625
2778.50435	27529.5625
2781.06932	27488.6625
2783.6327	27509.9625
2786.1945	27462.8625
2788.75471	27416.1625
2791.31335	27308.7625
2793.87041	27239.1625
2796.42589	27133.2625
2798.97979	27144.8625
2801.53212	27066.4625
2804.08288	27039.3625
2806.63206	26912.1625
2809.17967	26846.2625
2811.72571	26801.3625
2814.27018	26729.3625
2816.81308	26652.3625
2819.35442	26630.7625
2821.89419	26528.2625
2824.43239	26521.1625
2826.96904	26452.0625
2829.50412	26432.5625
2832.03763	26326.1625
2834.56959	26301.6625
2837.1	26220.6625
2839.62884	26221.5625
2842.15613	26167.1625
2844.68186	26205.0625
2847.20604	26098.7625
2849.72867	26076.9625
2852.24974	26027.6625
2854.76927	25991.6625
2857.28724	25941.7625
2859.80367	25965.6625
2862.31855	25903.5625
2864.83189	25864.3625
2867.34368	25816.4625
2869.85393	25751.6625
2872.36264	25738.4625
2874.8698	25701.9625
2877.37543	25627.2625
2879.87952	25565.3625
2882.38207	25578.3625
2884.88308	25533.7625
2887.38256	25559.2625
2889.88051	25555.4625
2892.37692	25521.7625
2894.8718	25510.8625
2897.36515	25505.5625
2899.85698	25437.8625
2902.34727	25524.1625
2904.83604	25507.3625
2907.32328	25595.5625
2909.809	25564.3625
2912.29319	25545.4625
2914.77587	25475.8625
2917.25702	25523.4625
2919.73665	25503.3625
2922.21476	25458.4625
2924.69136	25389.3625
2927.16644	25393.2625
2929.64	25347.1625
2932.11205	25349.2625
2934.58258	25217.1625
2937.05161	25274.5625
2939.51912	25271.4625
2941.98513	25210.3625
2944.44962	25181.2625
2946.91261	25102.6625
2949.37409	25108.1625
2951.83407	25080.3625
2954.29254	25107.8625
2956.74951	25105.8625
2959.20498	25122.2625
2961.65895	25036.0625
2964.11142	25061.9625
2966.56239	25013.0625
2969.01186	25003.0625
2971.45984	24988.3625
2973.90632	25011.7625
2976.35131	24949.0625
2978.7948	24893.5625
2981.23681	24864.5625
2983.67732	24805.3625
2986.11635	24723.5625
2988.55388	24691.6625
2990.98993	24625.9625
2993.4245	24589.9625
2995.85758	24560.6625
2998.28917	24540.9625
3000.71928	24507.2625
3003.14791	24459.2625
3005.57506	24382.6625
3008.00073	24320.9625
3010.42493	24272.3625
3012.84764	24192.2625
3015.26888	24234.0625
3017.68865	24142.9625
3020.10694	24134.2625
3022.52376	23974.7625
3024.9391	23995.6625
3027.35298	23949.3625
3029.76539	23927.1625
3032.17632	23880.9625
3034.5858	23825.3625
3036.9938	23805.7625
3039.40034	23744.8625
3041.80542	23767.0625
3044.20903	23717.7625
3046.61118	23689.5625
3049.01187	23626.0625
3051.4111	23615.2625
3053.80888	23550.4625
3056.20519	23519.9625
3058.60005	23433.6625
3060.99345	23395.6625
3063.3854	23330.2625
3065.7759	23284.7625
3068.16494	23225.0625
3070.55254	23192.4625
3072.93868	23105.5625
3075.32338	23007.8625
3077.70662	23025.1625
3080.08842	22966.2625
3082.46878	22955.4625
3084.84769	22900.1625
3087.22515	22860.8625
3089.60118	22869.2625
3091.97576	22877.1625
3094.3489	22851.2625
3096.72061	22863.4625
3099.09087	22807.8625
3101.4597	22782.8625
3103.82709	22788.3625
3106.19305	22744.1625
3108.55757	22737.2625
3110.92066	22648.9625
3113.28232	22672.7625
3115.64255	22590.7625
3118.00134	22604.5625
3120.35871	22562.4625
3122.71466	22477.1625
3125.06917	22378.1625
3127.42226	22343.7625
3129.77393	22377.7625
3132.12417	22307.0625
3134.47299	22270.8625
3136.82039	22288.1625
3139.16636	22269.3625
3141.51092	22214.2625
3143.85406	22187.9625
3146.19579	22166.6625
3148.53609	22166.1625
3150.87499	22235.8625
3153.21246	22211.1625
3155.54853	22279.9625
3157.88318	22223.9625
3160.21642	22230.1625
3162.54826	22229.7625
3164.87868	22214.1625
3167.2077	22188.1625
3169.5353	22167.8625
3171.86151	22167.1625
3174.18631	22126.6625
3176.5097	22104.9625
3178.83169	22077.9625
3181.15228	22009.4625
3183.47147	21911.6625
3185.78926	21860.6625
3188.10565	21826.8625
3190.42065	21827.7625
3192.73424	21852.2625
3195.04645	21827.3625
3197.35725	21803.6625
3199.66667	21713.3625
3201.97469	21731.3625
3204.28132	21731.9625
3206.58656	21790.2625
3208.8904	21783.9625
3211.19287	21744.5625
3213.49394	21727.7625
3215.79363	21743.3625
3218.09193	21732.4625
3220.38884	21714.3625
3222.68438	21726.5625
3224.97853	21663.4625
3227.2713	21631.7625
3229.56269	21648.7625
3231.8527	21640.7625
3234.14133	21568.0625
3236.42858	21536.3625
3238.71446	21487.4625
3240.99896	21360.8625
3243.28209	21341.3625
3245.56384	21306.3625
3247.84423	21322.4625
3250.12324	21248.4625
3252.40088	21212.4625
3254.67715	21187.0625
3256.95205	21182.0625
3259.22558	21171.5625
3261.49775	21180.8625
3263.76855	21187.5625
3266.03799	21112.3625
3268.30606	21092.2625
3270.57277	21089.5625
3272.83812	21005.6625
3275.10211	20952.4625
3277.36474	20879.2625
3279.62601	20915.2625
3281.88593	20846.7625
3284.14448	20863.4625
3286.40168	20779.5625
3288.65753	20776.2625
3290.91202	20752.9625
3293.16516	20707.0625
3295.41695	20650.1625
3297.66738	20458.0625
3299.91647	20377.3625
3302.16421	20253.5625
3304.4106	20164.4625
3306.65564	20029.4625
3308.89933	19894.5625
3311.14169	19765.8625
3313.38269	19610.1625
3315.62236	19531.3625
3317.86068	19360.4625
3320.09766	19233.4625
3322.3333	19090.2625
3324.5676	19005.6625
3326.80056	18724.8625
3329.03219	18605.3625
3331.26248	3.8625
3333.49143	-0.2375
3335.71905	-0.7375
