EXPLAIN
TAG	CHRONOA
TITLE	LABEL	Chronoamperometry Scan	Test Identifier
DATE	LABEL	13/7/2022	Date
TIME	LABEL	12:18:52	Time
NOTES	NOTES	1	Notes...
	
PSTAT	PSTAT	IFC1010-21051	Potentiostat
VPRESTEP	POTEN	1.50000E-001	F	Pre-step Voltage (V)
TPRESTEP	QUANT	5.00000E-001	Pre-step Delay Time (s)
VSTEP1	POTEN	2.00000E-001	F	Step 1 Voltage (V)
TSTEP1	QUANT	3.00000E+002	Step 1 Time (s)
VSTEP2	POTEN	2.50000E-001	F	Step 2 Voltage (V)
TSTEP2	QUANT	1.00000E+000	Step 2 Time (s)
SAMPLETIME	QUANT	1.00000E-001	Sample Period (s)
DECIMATE	TOGGLE	T	Decimate
ILIMIT	QUANT	1.00000E+000	Limit I (mA/cm^2)
IMODE	SELECTOR	1	I/E Range Mode
IRANGE	QUANT	3.00000E-001	Max Current (mA)
EQDELAY	QUANT	5.00000E+000	Equil. Time (s)
SAMPLINGMODE	SELECTOR	1	Sampling Mode
AREA	QUANT	1.00000E+000	Sample Area (cm^2)
IRCOMP	SELECTOR	0	IRComp
PFCOR	QUANT	5.00000E+001	PF Corr. (ohm)
SEQUENCER	TOGGLE	TRUE	Run as Sequence
PSTATMODEL	IQUANT	64	Pstat Model
PSTATSECTION	LABEL	IFC1010-21051	Pstat Section
PSTATSERIALNO	LABEL	21051	Pstat Serial Number
CTRLMODE	IQUANT	1	Control Mode
ELECTROMETER	IQUANT	0	RE=0 or CS=1
IESTAB	IQUANT	0	I/E Stability
CASPEED	IQUANT	4	Control Amp Speed
CONVENTION	IQUANT	1	Current Convention
ICHRANGE	IQUANT	2	Ich Range
ICHRANGEMODE	TOGGLE	T	Ich Auto Range
ICHOFFSETENABLE	TOGGLE	F	Ich Offset Enable
ICHOFFSET	QUANT	0	Ich Offset (V)
ICHFILTER	IQUANT	3	Ich Filter
VCHRANGE	IQUANT	3	Vch Range
VCHRANGEMODE	TOGGLE	T	Vch Auto Range
VCHOFFSETENABLE	TOGGLE	F	Vch Offset Enable
VCHOFFSET	QUANT	0	Vch Offset (V)
VCHFILTER	IQUANT	3	Vch Filter
IERANGELOWERLIMIT	IQUANT	4	I/E Range Lower Limit
IERANGEMODE	TOGGLE	F	I/E AutoRange
IERANGE	IQUANT	9	I/E Range
ACHSELECT	IQUANT	0	Ach Select
ACHRANGE	IQUANT	2	Ach Range
ACHOFFSETENABLE	TOGGLE	F	Ach Offset Enable
ACHOFFSET	QUANT	0	Ach Offset (V)
ACHFILTER	IQUANT	1	Ach Filter
SENSECABLEID	IQUANT	14	Sense Cable ID
PWRCABLEID	IQUANT	14	Power Cable ID
DCCALDATE	LABEL	7/12/2022	DC Calibration Date
ACCALDATE	LABEL	4/2/2018	AC Calibration Date
FRAMEWORKVERSION	QUANT	7.06	Framework Version
INSTRUMENTVERSION	LABEL	4.30	Instrument Version
CURVE	TABLE	98
	Pt	T	Vf	Im	Vu	Sig	Ach	IERange	Over	Temp
	#	s	V vs. Ref.	A	V	V	V	#	bits	deg C
	0	-0.4	1.50219E-001	4.02624E-006	0.00000E+000	1.50006E-001	0.00000E+000	9	...........	1425.78
	1	-0.3	1.50275E-001	3.90278E-006	0.00000E+000	1.50006E-001	0.00000E+000	9	...........	1425.78
	2	-0.2	1.50298E-001	3.78846E-006	0.00000E+000	1.50006E-001	0.00000E+000	9	...........	1425.78
	3	-0.1	1.50297E-001	3.67674E-006	0.00000E+000	1.50006E-001	0.00000E+000	9	...........	1425.78
	4	0	1.50297E-001	3.57057E-006	0.00000E+000	1.50006E-001	0.00000E+000	9	...........	1425.78
	5	0.1	2.00297E-001	1.57170E-004	0.00000E+000	2.00005E-001	0.00000E+000	9	...........	1425.78
	6	0.2	2.00298E-001	1.08098E-004	0.00000E+000	2.00005E-001	0.00000E+000	9	...........	1425.78
	7	0.3	2.00296E-001	7.78714E-005	0.00000E+000	2.00005E-001	0.00000E+000	9	...........	1425.78
	8	0.4	2.00297E-001	5.83180E-005	0.00000E+000	2.00005E-001	0.00000E+000	9	...........	1425.78
	9	0.5	2.00298E-001	4.52222E-005	0.00000E+000	2.00005E-001	0.00000E+000	9	...........	1425.78
	10	0.6	2.00298E-001	3.62273E-005	0.00000E+000	2.00005E-001	0.00000E+000	9	...........	1425.69
	11	0.7	2.00299E-001	2.99059E-005	0.00000E+000	2.00005E-001	0.00000E+000	9	...........	1425.69
	12	0.8	2.00299E-001	2.53260E-005	0.00000E+000	2.00005E-001	0.00000E+000	9	...........	1425.69
	13	0.9	2.00298E-001	2.19361E-005	0.00000E+000	2.00005E-001	0.00000E+000	9	...........	1425.69
	14	1	2.00299E-001	1.93874E-005	0.00000E+000	2.00005E-001	0.00000E+000	9	...........	1425.69
	15	1.1	2.00299E-001	1.74310E-005	0.00000E+000	2.00005E-001	0.00000E+000	9	...........	1425.69
	16	1.2	2.00298E-001	1.58766E-005	0.00000E+000	2.00005E-001	0.00000E+000	9	...........	1425.69
	17	1.3	2.00299E-001	1.46153E-005	0.00000E+000	2.00005E-001	0.00000E+000	9	...........	1425.69
	18	1.4	2.00298E-001	1.35950E-005	0.00000E+000	2.00005E-001	0.00000E+000	9	...........	1425.69
	19	1.5	2.00297E-001	1.27434E-005	0.00000E+000	2.00005E-001	0.00000E+000	9	...........	1425.69
	20	1.6	2.00295E-001	1.19957E-005	0.00000E+000	2.00005E-001	0.00000E+000	9	...........	1425.95
	21	1.7	2.00297E-001	1.13727E-005	0.00000E+000	2.00005E-001	0.00000E+000	9	...........	1425.95
	22	1.8	2.00296E-001	1.08172E-005	0.00000E+000	2.00005E-001	0.00000E+000	9	...........	1425.95
	23	1.9	2.00298E-001	1.03262E-005	0.00000E+000	2.00005E-001	0.00000E+000	9	...........	1425.95
	24	2	2.00296E-001	9.90016E-006	0.00000E+000	2.00005E-001	0.00000E+000	9	...........	1425.95
	25	2.1	2.00297E-001	9.50072E-006	0.00000E+000	2.00005E-001	0.00000E+000	9	...........	1425.95
	26	2.2	2.00297E-001	9.14161E-006	0.00000E+000	2.00005E-001	0.00000E+000	9	...........	1425.95
	27	2.3	2.00295E-001	8.82269E-006	0.00000E+000	2.00005E-001	0.00000E+000	9	...........	1425.95
	28	2.4	2.00296E-001	8.53462E-006	0.00000E+000	2.00005E-001	0.00000E+000	9	...........	1425.95
	29	2.5	2.00296E-001	8.26050E-006	0.00000E+000	2.00005E-001	0.00000E+000	9	...........	1425.95
	30	2.6	2.00297E-001	7.99103E-006	0.00000E+000	2.00005E-001	0.00000E+000	9	...........	1425.78
	31	2.7	2.00297E-001	7.74634E-006	0.00000E+000	2.00005E-001	0.00000E+000	9	...........	1425.78
	32	2.8	2.00297E-001	7.50012E-006	0.00000E+000	2.00005E-001	0.00000E+000	9	...........	1425.78
	33	2.9	2.00296E-001	7.30886E-006	0.00000E+000	2.00005E-001	0.00000E+000	9	...........	1425.78
	34	3	2.00297E-001	7.10812E-006	0.00000E+000	2.00005E-001	0.00000E+000	9	...........	1425.78
	35	3.1	2.00295E-001	6.92896E-006	0.00000E+000	2.00005E-001	0.00000E+000	9	...........	1425.78
	36	3.2	2.00295E-001	6.74955E-006	0.00000E+000	2.00005E-001	0.00000E+000	9	...........	1425.78
	37	3.3	2.00296E-001	6.58117E-006	0.00000E+000	2.00005E-001	0.00000E+000	9	...........	1425.78
	38	3.4	2.00296E-001	6.40262E-006	0.00000E+000	2.00005E-001	0.00000E+000	9	...........	1425.78
	39	3.5	2.00296E-001	6.23972E-006	0.00000E+000	2.00005E-001	0.00000E+000	9	...........	1425.78
	40	3.6	2.00298E-001	6.10335E-006	0.00000E+000	2.00005E-001	0.00000E+000	9	...........	1426.04
	41	3.7	2.00298E-001	5.97104E-006	0.00000E+000	2.00005E-001	0.00000E+000	9	...........	1426.04
	42	3.8	2.00296E-001	5.83180E-006	0.00000E+000	2.00005E-001	0.00000E+000	9	...........	1426.04
	43	3.9	2.00298E-001	5.70106E-006	0.00000E+000	2.00005E-001	0.00000E+000	9	...........	1426.04
	44	4	2.00294E-001	5.57724E-006	0.00000E+000	2.00005E-001	0.00000E+000	9	...........	1426.04
	45	4.1	2.00295E-001	5.45828E-006	0.00000E+000	2.00005E-001	0.00000E+000	9	...........	1426.04
	46	4.2	2.00295E-001	5.34503E-006	0.00000E+000	2.00005E-001	0.00000E+000	9	...........	1426.04
	47	4.3	2.00295E-001	5.23468E-006	0.00000E+000	2.00005E-001	0.00000E+000	9	...........	1426.04
	48	4.4	2.00296E-001	5.13942E-006	0.00000E+000	2.00005E-001	0.00000E+000	9	...........	1426.04
	49	4.5	2.00297E-001	5.03608E-006	0.00000E+000	2.00005E-001	0.00000E+000	9	...........	1426.04
	50	4.6	2.00296E-001	4.93734E-006	0.00000E+000	2.00005E-001	0.00000E+000	9	...........	1425.95
	51	4.7	2.00298E-001	4.82803E-006	0.00000E+000	2.00005E-001	0.00000E+000	9	...........	1425.95
	52	4.8	2.00298E-001	4.72296E-006	0.00000E+000	2.00005E-001	0.00000E+000	9	...........	1425.95
	53	4.9	2.00297E-001	4.63860E-006	0.00000E+000	2.00005E-001	0.00000E+000	9	...........	1425.95
	54	5	2.00297E-001	4.56743E-006	0.00000E+000	2.00005E-001	0.00000E+000	9	...........	1425.95
	55	5.1	2.00297E-001	4.48104E-006	0.00000E+000	2.00005E-001	0.00000E+000	9	...........	1425.95
	56	5.2	2.00297E-001	4.39902E-006	0.00000E+000	2.00005E-001	0.00000E+000	9	...........	1425.95
	57	5.3	2.00298E-001	4.30889E-006	0.00000E+000	2.00005E-001	0.00000E+000	9	...........	1425.95
	58	5.4	2.00297E-001	4.23208E-006	0.00000E+000	2.00005E-001	0.00000E+000	9	...........	1425.95
	59	5.5	2.00297E-001	4.15283E-006	0.00000E+000	2.00005E-001	0.00000E+000	9	...........	1425.95
	60	5.6	2.00297E-001	4.08563E-006	0.00000E+000	2.00005E-001	0.00000E+000	9	...........	1426.04
	61	5.7	2.00298E-001	4.00635E-006	0.00000E+000	2.00005E-001	0.00000E+000	9	...........	1426.04
	62	5.8	2.00297E-001	3.93928E-006	0.00000E+000	2.00005E-001	0.00000E+000	9	...........	1426.04
	63	5.9	2.00297E-001	3.85219E-006	0.00000E+000	2.00005E-001	0.00000E+000	9	...........	1426.04
	64	6	2.00298E-001	3.79189E-006	0.00000E+000	2.00005E-001	0.00000E+000	9	...........	1426.04
	65	6.1	2.00295E-001	3.73554E-006	0.00000E+000	2.00005E-001	0.00000E+000	9	...........	1426.04
	66	7.1	2.00299E-001	3.17115E-006	0.00000E+000	2.00005E-001	0.00000E+000	9	...........	1425.95
	67	8.1	2.00298E-001	2.72926E-006	0.00000E+000	2.00005E-001	0.00000E+000	9	...........	1426.04
	68	9.1	2.00297E-001	2.35918E-006	0.00000E+000	2.00005E-001	0.00000E+000	9	...........	1426.04
	69	10.1	2.00297E-001	2.06144E-006	0.00000E+000	2.00005E-001	0.00000E+000	9	...........	1426.04
	70	11.1	2.00298E-001	1.80451E-006	0.00000E+000	2.00005E-001	0.00000E+000	9	...........	1426.04
	71	12.1	2.00296E-001	1.58028E-006	0.00000E+000	2.00005E-001	0.00000E+000	9	...........	1426.04
	72	13.1	2.00297E-001	1.38471E-006	0.00000E+000	2.00005E-001	0.00000E+000	9	...........	1426.04
	73	14.1	2.00295E-001	1.24317E-006	0.00000E+000	2.00005E-001	0.00000E+000	9	...........	1426.04
	74	15.1	2.00298E-001	1.09268E-006	0.00000E+000	2.00005E-001	0.00000E+000	9	...........	1426.04
	75	16.1	2.00295E-001	9.54100E-007	0.00000E+000	2.00005E-001	0.00000E+000	9	...........	1426.04
	76	26.1	2.00296E-001	2.34925E-007	0.00000E+000	2.00005E-001	0.00000E+000	9	...........	1426.04
	77	36.1	2.00296E-001	-7.32600E-008	0.00000E+000	2.00005E-001	0.00000E+000	9	...........	1426.04
	78	46.1	2.00297E-001	-2.61354E-007	0.00000E+000	2.00005E-001	0.00000E+000	9	...........	1426.04
	79	56.1	2.00298E-001	-3.39168E-007	0.00000E+000	2.00005E-001	0.00000E+000	9	...........	1426.04
	80	66.1	2.00296E-001	-3.80410E-007	0.00000E+000	2.00005E-001	0.00000E+000	9	...........	1426.13
	81	76.1	2.00295E-001	-4.07138E-007	0.00000E+000	2.00005E-001	0.00000E+000	9	...........	1426.04
	82	86.1	2.00295E-001	-4.38771E-007	0.00000E+000	2.00005E-001	0.00000E+000	9	...........	1426.04
	83	96.1	2.00297E-001	-4.42274E-007	0.00000E+000	2.00005E-001	0.00000E+000	9	...........	1426.04
	84	106.1	2.00296E-001	-4.61961E-007	0.00000E+000	2.00005E-001	0.00000E+000	9	...........	1426.04
	85	116.1	2.00297E-001	-4.40639E-007	0.00000E+000	2.00005E-001	0.00000E+000	9	...........	1426.04
	86	216.1	2.00295E-001	-4.32331E-007	0.00000E+000	2.00005E-001	0.00000E+000	9	...........	1426.13
	87	300	2.00295E-001	-4.49882E-007	0.00000E+000	2.00005E-001	0.00000E+000	9	...........	1426.04
	88	300.1	2.50301E-001	1.52602E-004	0.00000E+000	2.50005E-001	0.00000E+000	9	...........	1426.04
	89	300.2	2.50304E-001	1.02772E-004	0.00000E+000	2.50005E-001	0.00000E+000	9	...........	1426.04
	90	300.3	2.50305E-001	7.22053E-005	0.00000E+000	2.50005E-001	0.00000E+000	9	...........	1426.04
	91	300.4	2.50305E-001	5.24764E-005	0.00000E+000	2.50005E-001	0.00000E+000	9	...........	1426.04
	92	300.5	2.50305E-001	3.92969E-005	0.00000E+000	2.50005E-001	0.00000E+000	9	...........	1426.04
	93	300.6	2.50304E-001	3.02586E-005	0.00000E+000	2.50005E-001	0.00000E+000	9	...........	1426.13
	94	300.7	2.50304E-001	2.39133E-005	0.00000E+000	2.50005E-001	0.00000E+000	9	...........	1426.13
	95	300.8	2.50305E-001	1.93698E-005	0.00000E+000	2.50005E-001	0.00000E+000	9	...........	1426.13
	96	300.9	2.50305E-001	1.60485E-005	0.00000E+000	2.50005E-001	0.00000E+000	9	...........	1426.13
	97	301	2.50306E-001	1.36096E-005	0.00000E+000	2.50005E-001	0.00000E+000	9	...........	1426.13
