EXPLAIN
TAG	CHRONOA
TITLE	LABEL	Chronoamperometry Scan	Test Identifier
DATE	LABEL	24/3/2022	Date
TIME	LABEL	17:24:59	Time
NOTES	NOTES	1	Notes...
	
PSTAT	PSTAT	IFC1010-21051	Potentiostat
VPRESTEP	POTEN	0.00000E+000	F	Pre-step Voltage (V)
TPRESTEP	QUANT	5.00000E-001	Pre-step Delay Time (s)
VSTEP1	POTEN	-2.00000E-001	F	Step 1 Voltage (V)
TSTEP1	QUANT	3.00000E+002	Step 1 Time (s)
VSTEP2	POTEN	-3.00000E-001	F	Step 2 Voltage (V)
TSTEP2	QUANT	1.00000E+000	Step 2 Time (s)
SAMPLETIME	QUANT	1.00000E-001	Sample Period (s)
DECIMATE	TOGGLE	T	Decimate
ILIMIT	QUANT	1.00000E+000	Limit I (mA/cm^2)
IMODE	SELECTOR	1	I/E Range Mode
IRANGE	QUANT	3.00000E-001	Max Current (mA)
EQDELAY	QUANT	5.00000E+000	Equil. Time (s)
SAMPLINGMODE	SELECTOR	1	Sampling Mode
AREA	QUANT	1.00000E+000	Sample Area (cm^2)
IRCOMP	SELECTOR	0	IRComp
PFCOR	QUANT	5.00000E+001	PF Corr. (ohm)
SEQUENCER	TOGGLE	TRUE	Run as Sequence
PSTATMODEL	IQUANT	64	Pstat Model
PSTATSECTION	LABEL	IFC1010-21051	Pstat Section
PSTATSERIALNO	LABEL	21051	Pstat Serial Number
CTRLMODE	IQUANT	1	Control Mode
ELECTROMETER	IQUANT	0	RE=0 or CS=1
IESTAB	IQUANT	0	I/E Stability
CASPEED	IQUANT	4	Control Amp Speed
CONVENTION	IQUANT	1	Current Convention
ICHRANGE	IQUANT	2	Ich Range
ICHRANGEMODE	TOGGLE	T	Ich Auto Range
ICHOFFSETENABLE	TOGGLE	F	Ich Offset Enable
ICHOFFSET	QUANT	0	Ich Offset (V)
ICHFILTER	IQUANT	3	Ich Filter
VCHRANGE	IQUANT	3	Vch Range
VCHRANGEMODE	TOGGLE	T	Vch Auto Range
VCHOFFSETENABLE	TOGGLE	F	Vch Offset Enable
VCHOFFSET	QUANT	0	Vch Offset (V)
VCHFILTER	IQUANT	3	Vch Filter
IERANGELOWERLIMIT	IQUANT	4	I/E Range Lower Limit
IERANGEMODE	TOGGLE	F	I/E AutoRange
IERANGE	IQUANT	9	I/E Range
ACHSELECT	IQUANT	0	Ach Select
ACHRANGE	IQUANT	2	Ach Range
ACHOFFSETENABLE	TOGGLE	F	Ach Offset Enable
ACHOFFSET	QUANT	0	Ach Offset (V)
ACHFILTER	IQUANT	1	Ach Filter
SENSECABLEID	IQUANT	14	Sense Cable ID
PWRCABLEID	IQUANT	14	Power Cable ID
DCCALDATE	LABEL	1/24/2022	DC Calibration Date
ACCALDATE	LABEL	4/2/2018	AC Calibration Date
FRAMEWORKVERSION	QUANT	7.06	Framework Version
INSTRUMENTVERSION	LABEL	4.30	Instrument Version
CURVE	TABLE	98
	Pt	T	Vf	Im	Vu	Sig	Ach	IERange	Over	Temp
	#	s	V vs. Ref.	A	V	V	V	#	bits	deg C
	0	-0.4	-1.05230E-003	-2.68659E-006	0.00000E+000	-6.72489E-005	0.00000E+000	9	...........	1426.04
	1	-0.3	-3.78895E-004	-2.64088E-006	0.00000E+000	-6.72489E-005	0.00000E+000	9	...........	1426.04
	2	-0.2	-2.18978E-004	-2.61031E-006	0.00000E+000	-6.72489E-005	0.00000E+000	9	...........	1426.04
	3	-0.1	-2.03798E-004	-2.61822E-006	0.00000E+000	-6.72489E-005	0.00000E+000	9	...........	1426.04
	4	0	-2.04123E-004	-2.65269E-006	0.00000E+000	-6.72489E-005	0.00000E+000	9	...........	1426.04
	5	0.1	-3.29270E-002	-5.98121E-005	0.00000E+000	-2.00066E-001	0.00000E+000	9	.........v.	1426.04
	6	0.2	-2.00248E-001	-3.43415E-005	0.00000E+000	-2.00066E-001	0.00000E+000	9	...........	1426.04
	7	0.3	-2.00248E-001	-2.71413E-005	0.00000E+000	-2.00066E-001	0.00000E+000	9	...........	1426.04
	8	0.4	-2.00247E-001	-2.37921E-005	0.00000E+000	-2.00066E-001	0.00000E+000	9	...........	1426.04
	9	0.5	-2.00247E-001	-2.14910E-005	0.00000E+000	-2.00066E-001	0.00000E+000	9	...........	1426.04
	10	0.6	-2.00247E-001	-2.00711E-005	0.00000E+000	-2.00066E-001	0.00000E+000	9	...........	1426.04
	11	0.7	-2.00248E-001	-1.91363E-005	0.00000E+000	-2.00066E-001	0.00000E+000	9	...........	1426.04
	12	0.8	-2.00246E-001	-1.85532E-005	0.00000E+000	-2.00066E-001	0.00000E+000	9	...........	1426.04
	13	0.9	-2.00246E-001	-1.78825E-005	0.00000E+000	-2.00066E-001	0.00000E+000	9	...........	1426.04
	14	1	-2.00245E-001	-1.72579E-005	0.00000E+000	-2.00066E-001	0.00000E+000	9	...........	1426.04
	15	1.1	-2.00245E-001	-1.70351E-005	0.00000E+000	-2.00066E-001	0.00000E+000	9	...........	1426.04
	16	1.2	-2.00246E-001	-1.66602E-005	0.00000E+000	-2.00066E-001	0.00000E+000	9	...........	1426.13
	17	1.3	-2.00248E-001	-1.62917E-005	0.00000E+000	-2.00066E-001	0.00000E+000	9	...........	1426.13
	18	1.4	-2.00248E-001	-1.60842E-005	0.00000E+000	-2.00066E-001	0.00000E+000	9	...........	1426.13
	19	1.5	-2.00246E-001	-1.58109E-005	0.00000E+000	-2.00066E-001	0.00000E+000	9	...........	1426.13
	20	1.6	-2.00247E-001	-1.55019E-005	0.00000E+000	-2.00066E-001	0.00000E+000	9	...........	1426.13
	21	1.7	-2.00246E-001	-1.56081E-005	0.00000E+000	-2.00066E-001	0.00000E+000	9	...........	1426.13
	22	1.8	-2.00248E-001	-1.51416E-005	0.00000E+000	-2.00066E-001	0.00000E+000	9	...........	1426.13
	23	1.9	-2.00247E-001	-1.49765E-005	0.00000E+000	-2.00066E-001	0.00000E+000	9	...........	1426.13
	24	2	-2.00248E-001	-1.47861E-005	0.00000E+000	-2.00066E-001	0.00000E+000	9	...........	1426.13
	25	2.1	-2.00248E-001	-1.48500E-005	0.00000E+000	-2.00066E-001	0.00000E+000	9	...........	1426.13
	26	2.2	-2.00246E-001	-1.45675E-005	0.00000E+000	-2.00066E-001	0.00000E+000	9	...........	1426.13
	27	2.3	-2.00245E-001	-1.45612E-005	0.00000E+000	-2.00066E-001	0.00000E+000	9	...........	1426.13
	28	2.4	-2.00247E-001	-1.45424E-005	0.00000E+000	-2.00066E-001	0.00000E+000	9	...........	1426.13
	29	2.5	-2.00247E-001	-1.43756E-005	0.00000E+000	-2.00066E-001	0.00000E+000	9	...........	1426.13
	30	2.6	-2.00246E-001	-1.42009E-005	0.00000E+000	-2.00066E-001	0.00000E+000	9	...........	1426.13
	31	2.7	-2.00249E-001	-1.41358E-005	0.00000E+000	-2.00066E-001	0.00000E+000	9	...........	1426.13
	32	2.8	-2.00248E-001	-1.39442E-005	0.00000E+000	-2.00066E-001	0.00000E+000	9	...........	1426.13
	33	2.9	-2.00246E-001	-1.39613E-005	0.00000E+000	-2.00066E-001	0.00000E+000	9	...........	1426.13
	34	3	-2.00246E-001	-1.38909E-005	0.00000E+000	-2.00066E-001	0.00000E+000	9	...........	1426.13
	35	3.1	-2.00246E-001	-1.36998E-005	0.00000E+000	-2.00066E-001	0.00000E+000	9	...........	1426.13
	36	3.2	-2.00247E-001	-1.35360E-005	0.00000E+000	-2.00066E-001	0.00000E+000	9	...........	1426.13
	37	3.3	-2.00248E-001	-1.35861E-005	0.00000E+000	-2.00066E-001	0.00000E+000	9	...........	1426.13
	38	3.4	-2.00247E-001	-1.35463E-005	0.00000E+000	-2.00066E-001	0.00000E+000	9	...........	1426.13
	39	3.5	-2.00248E-001	-1.33713E-005	0.00000E+000	-2.00066E-001	0.00000E+000	9	...........	1426.13
	40	3.6	-2.00247E-001	-1.35626E-005	0.00000E+000	-2.00066E-001	0.00000E+000	9	...........	1426.13
	41	3.7	-2.00248E-001	-1.35464E-005	0.00000E+000	-2.00066E-001	0.00000E+000	9	...........	1426.13
	42	3.8	-2.00248E-001	-1.33653E-005	0.00000E+000	-2.00066E-001	0.00000E+000	9	...........	1426.13
	43	3.9	-2.00248E-001	-1.32991E-005	0.00000E+000	-2.00066E-001	0.00000E+000	9	...........	1426.13
	44	4	-2.00248E-001	-1.30511E-005	0.00000E+000	-2.00066E-001	0.00000E+000	9	...........	1426.13
	45	4.1	-2.00248E-001	-1.31603E-005	0.00000E+000	-2.00066E-001	0.00000E+000	9	...........	1426.13
	46	4.2	-2.00250E-001	-1.31132E-005	0.00000E+000	-2.00066E-001	0.00000E+000	9	...........	1426.13
	47	4.3	-2.00248E-001	-1.30320E-005	0.00000E+000	-2.00066E-001	0.00000E+000	9	...........	1426.13
	48	4.4	-2.00249E-001	-1.29990E-005	0.00000E+000	-2.00066E-001	0.00000E+000	9	...........	1426.13
	49	4.5	-2.00248E-001	-1.27930E-005	0.00000E+000	-2.00066E-001	0.00000E+000	9	...........	1426.13
	50	4.6	-2.00249E-001	-1.28036E-005	0.00000E+000	-2.00066E-001	0.00000E+000	9	...........	1426.13
	51	4.7	-2.00249E-001	-1.28109E-005	0.00000E+000	-2.00066E-001	0.00000E+000	9	...........	1426.13
	52	4.8	-2.00248E-001	-1.29908E-005	0.00000E+000	-2.00066E-001	0.00000E+000	9	...........	1426.13
	53	4.9	-2.00247E-001	-1.30316E-005	0.00000E+000	-2.00066E-001	0.00000E+000	9	...........	1426.13
	54	5	-2.00248E-001	-1.25864E-005	0.00000E+000	-2.00066E-001	0.00000E+000	9	...........	1426.13
	55	5.1	-2.00248E-001	-1.27985E-005	0.00000E+000	-2.00066E-001	0.00000E+000	9	...........	1426.13
	56	5.2	-2.00247E-001	-1.24052E-005	0.00000E+000	-2.00066E-001	0.00000E+000	9	...........	1426.13
	57	5.3	-2.00248E-001	-1.25650E-005	0.00000E+000	-2.00066E-001	0.00000E+000	9	...........	1426.13
	58	5.4	-2.00250E-001	-1.26312E-005	0.00000E+000	-2.00066E-001	0.00000E+000	9	...........	1426.13
	59	5.5	-2.00248E-001	-1.25627E-005	0.00000E+000	-2.00066E-001	0.00000E+000	9	...........	1426.13
	60	5.6	-2.00248E-001	-1.23750E-005	0.00000E+000	-2.00066E-001	0.00000E+000	9	...........	1426.13
	61	5.7	-2.00248E-001	-1.24866E-005	0.00000E+000	-2.00066E-001	0.00000E+000	9	...........	1426.13
	62	5.8	-2.00250E-001	-1.25509E-005	0.00000E+000	-2.00066E-001	0.00000E+000	9	...........	1426.13
	63	5.9	-2.00250E-001	-1.24648E-005	0.00000E+000	-2.00066E-001	0.00000E+000	9	...........	1426.13
	64	6	-2.00251E-001	-1.22836E-005	0.00000E+000	-2.00066E-001	0.00000E+000	9	...........	1426.13
	65	6.1	-2.00248E-001	-1.20240E-005	0.00000E+000	-2.00066E-001	0.00000E+000	9	...........	1426.13
	66	7.1	-2.00249E-001	-1.17762E-005	0.00000E+000	-2.00066E-001	0.00000E+000	9	...........	1425.95
	67	8.1	-2.00248E-001	-1.11795E-005	0.00000E+000	-2.00066E-001	0.00000E+000	9	...........	1426.13
	68	9.1	-2.00250E-001	-1.10117E-005	0.00000E+000	-2.00066E-001	0.00000E+000	9	...........	1426.13
	69	10.1	-2.00249E-001	-1.09007E-005	0.00000E+000	-2.00066E-001	0.00000E+000	9	...........	1426.22
	70	11.1	-2.00249E-001	-1.06649E-005	0.00000E+000	-2.00066E-001	0.00000E+000	9	...........	1426.13
	71	12.1	-2.00250E-001	-1.04814E-005	0.00000E+000	-2.00066E-001	0.00000E+000	9	...........	1426.22
	72	13.1	-2.00248E-001	-1.07049E-005	0.00000E+000	-2.00066E-001	0.00000E+000	9	...........	1426.13
	73	14.1	-2.00249E-001	-1.06843E-005	0.00000E+000	-2.00066E-001	0.00000E+000	9	...........	1425.95
	74	15.1	-2.00249E-001	-1.04830E-005	0.00000E+000	-2.00066E-001	0.00000E+000	9	...........	1425.78
	75	16.1	-2.00249E-001	-1.05560E-005	0.00000E+000	-2.00066E-001	0.00000E+000	9	...........	1426.13
	76	26.1	-2.00251E-001	-9.12840E-006	0.00000E+000	-2.00066E-001	0.00000E+000	9	...........	1426.22
	77	36.1	-2.00249E-001	-7.77317E-006	0.00000E+000	-2.00066E-001	0.00000E+000	9	...........	1426.13
	78	46.1	-2.00250E-001	-7.90187E-006	0.00000E+000	-2.00066E-001	0.00000E+000	9	...........	1426.22
	79	56.1	-2.00251E-001	-6.69910E-006	0.00000E+000	-2.00066E-001	0.00000E+000	9	...........	1426.22
	80	66.1	-2.00248E-001	-6.97204E-006	0.00000E+000	-2.00066E-001	0.00000E+000	9	...........	1426.22
	81	76.1	-2.00248E-001	-6.73286E-006	0.00000E+000	-2.00066E-001	0.00000E+000	9	...........	1426.22
	82	86.1	-2.00251E-001	-5.82406E-006	0.00000E+000	-2.00066E-001	0.00000E+000	9	...........	1426.22
	83	96.1	-2.00249E-001	-5.75726E-006	0.00000E+000	-2.00066E-001	0.00000E+000	9	...........	1426.13
	84	106.1	-2.00248E-001	-5.27650E-006	0.00000E+000	-2.00066E-001	0.00000E+000	9	...........	1426.22
	85	116.1	-2.00248E-001	-5.85516E-006	0.00000E+000	-2.00066E-001	0.00000E+000	9	...........	1426.22
	86	216.1	-2.00249E-001	-4.94912E-006	0.00000E+000	-2.00066E-001	0.00000E+000	9	...........	1426.22
	87	300	-2.00247E-001	-4.97952E-006	0.00000E+000	-2.00066E-001	0.00000E+000	9	...........	1426.22
	88	300.1	-3.00253E-001	-5.62386E-005	0.00000E+000	-3.00066E-001	0.00000E+000	9	...........	1426.22
	89	300.2	-3.00403E-001	-4.10330E-005	0.00000E+000	-3.00066E-001	0.00000E+000	9	...........	1426.22
	90	300.3	-3.00418E-001	-3.76930E-005	0.00000E+000	-3.00066E-001	0.00000E+000	9	...........	1426.22
	91	300.4	-3.00408E-001	-3.61501E-005	0.00000E+000	-3.00066E-001	0.00000E+000	9	...........	1426.22
	92	300.5	-3.00416E-001	-3.52715E-005	0.00000E+000	-3.00066E-001	0.00000E+000	9	...........	1426.22
	93	300.6	-3.00402E-001	-3.46093E-005	0.00000E+000	-3.00066E-001	0.00000E+000	9	...........	1426.22
	94	300.7	-3.00424E-001	-3.42443E-005	0.00000E+000	-3.00066E-001	0.00000E+000	9	...........	1426.22
	95	300.8	-3.00411E-001	-3.38482E-005	0.00000E+000	-3.00066E-001	0.00000E+000	9	...........	1426.22
	96	300.9	-3.00400E-001	-3.35781E-005	0.00000E+000	-3.00066E-001	0.00000E+000	9	...........	1426.22
	97	301	-3.00408E-001	-3.33786E-005	0.00000E+000	-3.00066E-001	0.00000E+000	9	...........	1426.22
