EXPLAIN
TAG	CHRONOA
TITLE	LABEL	Chronoamperometry Scan	Test Identifier
DATE	LABEL	24/3/2022	Date
TIME	LABEL	14:15:39	Time
NOTES	NOTES	1	Notes...
	
PSTAT	PSTAT	IFC1010-21051	Potentiostat
VPRESTEP	POTEN	-7.00000E-001	F	Pre-step Voltage (V)
TPRESTEP	QUANT	5.00000E-001	Pre-step Delay Time (s)
VSTEP1	POTEN	-8.00000E-001	F	Step 1 Voltage (V)
TSTEP1	QUANT	3.00000E+002	Step 1 Time (s)
VSTEP2	POTEN	-7.00000E-001	F	Step 2 Voltage (V)
TSTEP2	QUANT	1.00000E+000	Step 2 Time (s)
SAMPLETIME	QUANT	1.00000E-001	Sample Period (s)
DECIMATE	TOGGLE	T	Decimate
ILIMIT	QUANT	1.00000E+000	Limit I (mA/cm^2)
IMODE	SELECTOR	1	I/E Range Mode
IRANGE	QUANT	3.00000E-001	Max Current (mA)
EQDELAY	QUANT	5.00000E+000	Equil. Time (s)
SAMPLINGMODE	SELECTOR	1	Sampling Mode
AREA	QUANT	1.00000E+000	Sample Area (cm^2)
IRCOMP	SELECTOR	0	IRComp
PFCOR	QUANT	5.00000E+001	PF Corr. (ohm)
SEQUENCER	TOGGLE	TRUE	Run as Sequence
PSTATMODEL	IQUANT	64	Pstat Model
PSTATSECTION	LABEL	IFC1010-21051	Pstat Section
PSTATSERIALNO	LABEL	21051	Pstat Serial Number
CTRLMODE	IQUANT	1	Control Mode
ELECTROMETER	IQUANT	0	RE=0 or CS=1
IESTAB	IQUANT	0	I/E Stability
CASPEED	IQUANT	4	Control Amp Speed
CONVENTION	IQUANT	1	Current Convention
ICHRANGE	IQUANT	2	Ich Range
ICHRANGEMODE	TOGGLE	T	Ich Auto Range
ICHOFFSETENABLE	TOGGLE	F	Ich Offset Enable
ICHOFFSET	QUANT	0	Ich Offset (V)
ICHFILTER	IQUANT	3	Ich Filter
VCHRANGE	IQUANT	3	Vch Range
VCHRANGEMODE	TOGGLE	T	Vch Auto Range
VCHOFFSETENABLE	TOGGLE	F	Vch Offset Enable
VCHOFFSET	QUANT	0	Vch Offset (V)
VCHFILTER	IQUANT	3	Vch Filter
IERANGELOWERLIMIT	IQUANT	4	I/E Range Lower Limit
IERANGEMODE	TOGGLE	F	I/E AutoRange
IERANGE	IQUANT	9	I/E Range
ACHSELECT	IQUANT	0	Ach Select
ACHRANGE	IQUANT	2	Ach Range
ACHOFFSETENABLE	TOGGLE	F	Ach Offset Enable
ACHOFFSET	QUANT	0	Ach Offset (V)
ACHFILTER	IQUANT	1	Ach Filter
SENSECABLEID	IQUANT	14	Sense Cable ID
PWRCABLEID	IQUANT	14	Power Cable ID
DCCALDATE	LABEL	1/24/2022	DC Calibration Date
ACCALDATE	LABEL	4/2/2018	AC Calibration Date
FRAMEWORKVERSION	QUANT	7.06	Framework Version
INSTRUMENTVERSION	LABEL	4.30	Instrument Version
CURVE	TABLE	98
	Pt	T	Vf	Im	Vu	Sig	Ach	IERange	Over	Temp
	#	s	V vs. Ref.	A	V	V	V	#	bits	deg C
	0	-0.4	-7.01750E-001	-1.60075E-004	0.00000E+000	-7.00083E-001	0.00000E+000	9	...........	1426.04
	1	-0.3	-7.01231E-001	-1.59754E-004	0.00000E+000	-7.00083E-001	0.00000E+000	9	...........	1426.04
	2	-0.2	-7.01215E-001	-1.59465E-004	0.00000E+000	-7.00083E-001	0.00000E+000	9	...........	1426.04
	3	-0.1	-7.01237E-001	-1.59300E-004	0.00000E+000	-7.00083E-001	0.00000E+000	9	...........	1426.04
	4	0	-7.01231E-001	-1.59000E-004	0.00000E+000	-7.00083E-001	0.00000E+000	9	...........	1426.04
	5	0.1	-8.01249E-001	-4.89681E-004	0.00000E+000	-8.00083E-001	0.00000E+000	9	...........	1426.04
	6	0.2	-8.01250E-001	-4.23284E-004	0.00000E+000	-8.00083E-001	0.00000E+000	9	...........	1426.04
	7	0.3	-8.01243E-001	-3.91122E-004	0.00000E+000	-8.00083E-001	0.00000E+000	9	...........	1426.04
	8	0.4	-8.01255E-001	-3.69197E-004	0.00000E+000	-8.00083E-001	0.00000E+000	9	...........	1426.04
	9	0.5	-8.01253E-001	-3.52589E-004	0.00000E+000	-8.00083E-001	0.00000E+000	9	...........	1426.04
	10	0.6	-8.01242E-001	-3.39214E-004	0.00000E+000	-8.00083E-001	0.00000E+000	9	...........	1426.04
	11	0.7	-8.01255E-001	-3.28118E-004	0.00000E+000	-8.00083E-001	0.00000E+000	9	...........	1426.04
	12	0.8	-8.01255E-001	-3.18728E-004	0.00000E+000	-8.00083E-001	0.00000E+000	9	...........	1426.04
	13	0.9	-8.01255E-001	-3.10563E-004	0.00000E+000	-8.00083E-001	0.00000E+000	9	...........	1426.04
	14	1	-8.01257E-001	-3.03374E-004	0.00000E+000	-8.00083E-001	0.00000E+000	9	...........	1426.04
	15	1.1	-8.01257E-001	-2.96913E-004	0.00000E+000	-8.00083E-001	0.00000E+000	9	...........	1426.04
	16	1.2	-8.01254E-001	-2.91022E-004	0.00000E+000	-8.00083E-001	0.00000E+000	9	...........	1425.95
	17	1.3	-8.01252E-001	-2.85933E-004	0.00000E+000	-8.00083E-001	0.00000E+000	9	...........	1425.95
	18	1.4	-8.01261E-001	-2.81392E-004	0.00000E+000	-8.00083E-001	0.00000E+000	9	...........	1425.95
	19	1.5	-8.01264E-001	-2.77086E-004	0.00000E+000	-8.00083E-001	0.00000E+000	9	...........	1425.95
	20	1.6	-8.01261E-001	-2.73172E-004	0.00000E+000	-8.00083E-001	0.00000E+000	9	...........	1425.95
	21	1.7	-8.01260E-001	-2.69617E-004	0.00000E+000	-8.00083E-001	0.00000E+000	9	...........	1425.95
	22	1.8	-8.01256E-001	-2.66322E-004	0.00000E+000	-8.00083E-001	0.00000E+000	9	...........	1425.95
	23	1.9	-8.01249E-001	-2.63035E-004	0.00000E+000	-8.00083E-001	0.00000E+000	9	...........	1425.95
	24	2	-8.01259E-001	-2.60067E-004	0.00000E+000	-8.00083E-001	0.00000E+000	9	...........	1425.95
	25	2.1	-8.01251E-001	-2.57368E-004	0.00000E+000	-8.00083E-001	0.00000E+000	9	...........	1425.95
	26	2.2	-8.01261E-001	-2.54766E-004	0.00000E+000	-8.00083E-001	0.00000E+000	9	...........	1425.95
	27	2.3	-8.01251E-001	-2.52306E-004	0.00000E+000	-8.00083E-001	0.00000E+000	9	...........	1425.95
	28	2.4	-8.01254E-001	-2.50081E-004	0.00000E+000	-8.00083E-001	0.00000E+000	9	...........	1425.95
	29	2.5	-8.01239E-001	-2.48000E-004	0.00000E+000	-8.00083E-001	0.00000E+000	9	...........	1425.95
	30	2.6	-8.01256E-001	-2.45453E-004	0.00000E+000	-8.00083E-001	0.00000E+000	9	...........	1425.95
	31	2.7	-8.01254E-001	-2.43468E-004	0.00000E+000	-8.00083E-001	0.00000E+000	9	...........	1425.95
	32	2.8	-8.01246E-001	-2.41652E-004	0.00000E+000	-8.00083E-001	0.00000E+000	9	...........	1425.95
	33	2.9	-8.01260E-001	-2.39941E-004	0.00000E+000	-8.00083E-001	0.00000E+000	9	...........	1425.95
	34	3	-8.01254E-001	-2.38289E-004	0.00000E+000	-8.00083E-001	0.00000E+000	9	...........	1425.95
	35	3.1	-8.01259E-001	-2.36670E-004	0.00000E+000	-8.00083E-001	0.00000E+000	9	...........	1425.95
	36	3.2	-8.01256E-001	-2.35103E-004	0.00000E+000	-8.00083E-001	0.00000E+000	9	...........	1425.95
	37	3.3	-8.01257E-001	-2.33678E-004	0.00000E+000	-8.00083E-001	0.00000E+000	9	...........	1425.95
	38	3.4	-8.01253E-001	-2.32311E-004	0.00000E+000	-8.00083E-001	0.00000E+000	9	...........	1425.95
	39	3.5	-8.01258E-001	-2.30960E-004	0.00000E+000	-8.00083E-001	0.00000E+000	9	...........	1425.95
	40	3.6	-8.01268E-001	-2.29662E-004	0.00000E+000	-8.00083E-001	0.00000E+000	9	...........	1425.95
	41	3.7	-8.01259E-001	-2.28394E-004	0.00000E+000	-8.00083E-001	0.00000E+000	9	...........	1425.95
	42	3.8	-8.01252E-001	-2.27257E-004	0.00000E+000	-8.00083E-001	0.00000E+000	9	...........	1425.95
	43	3.9	-8.01242E-001	-2.26056E-004	0.00000E+000	-8.00083E-001	0.00000E+000	9	...........	1425.95
	44	4	-8.01241E-001	-2.24941E-004	0.00000E+000	-8.00083E-001	0.00000E+000	9	...........	1425.95
	45	4.1	-8.01248E-001	-2.23956E-004	0.00000E+000	-8.00083E-001	0.00000E+000	9	...........	1425.95
	46	4.2	-8.01256E-001	-2.22925E-004	0.00000E+000	-8.00083E-001	0.00000E+000	9	...........	1425.95
	47	4.3	-8.01255E-001	-2.21862E-004	0.00000E+000	-8.00083E-001	0.00000E+000	9	...........	1425.95
	48	4.4	-8.01262E-001	-2.20925E-004	0.00000E+000	-8.00083E-001	0.00000E+000	9	...........	1425.95
	49	4.5	-8.01258E-001	-2.19948E-004	0.00000E+000	-8.00083E-001	0.00000E+000	9	...........	1425.95
	50	4.6	-8.01253E-001	-2.19050E-004	0.00000E+000	-8.00083E-001	0.00000E+000	9	...........	1425.95
	51	4.7	-8.01262E-001	-2.18186E-004	0.00000E+000	-8.00083E-001	0.00000E+000	9	...........	1425.95
	52	4.8	-8.01255E-001	-2.17279E-004	0.00000E+000	-8.00083E-001	0.00000E+000	9	...........	1425.95
	53	4.9	-8.01263E-001	-2.16494E-004	0.00000E+000	-8.00083E-001	0.00000E+000	9	...........	1425.95
	54	5	-8.01258E-001	-2.15702E-004	0.00000E+000	-8.00083E-001	0.00000E+000	9	...........	1425.95
	55	5.1	-8.01240E-001	-2.14843E-004	0.00000E+000	-8.00083E-001	0.00000E+000	9	...........	1425.95
	56	5.2	-8.01253E-001	-2.13904E-004	0.00000E+000	-8.00083E-001	0.00000E+000	9	...........	1425.95
	57	5.3	-8.01260E-001	-2.13286E-004	0.00000E+000	-8.00083E-001	0.00000E+000	9	...........	1425.95
	58	5.4	-8.01255E-001	-2.12832E-004	0.00000E+000	-8.00083E-001	0.00000E+000	9	...........	1425.95
	59	5.5	-8.01261E-001	-2.12205E-004	0.00000E+000	-8.00083E-001	0.00000E+000	9	...........	1425.95
	60	5.6	-8.01267E-001	-2.11462E-004	0.00000E+000	-8.00083E-001	0.00000E+000	9	...........	1425.95
	61	5.7	-8.01251E-001	-2.10853E-004	0.00000E+000	-8.00083E-001	0.00000E+000	9	...........	1425.95
	62	5.8	-8.01261E-001	-2.10245E-004	0.00000E+000	-8.00083E-001	0.00000E+000	9	...........	1425.95
	63	5.9	-8.01248E-001	-2.09595E-004	0.00000E+000	-8.00083E-001	0.00000E+000	9	...........	1425.95
	64	6	-8.01250E-001	-2.08982E-004	0.00000E+000	-8.00083E-001	0.00000E+000	9	...........	1425.95
	65	6.1	-8.01269E-001	-2.08478E-004	0.00000E+000	-8.00083E-001	0.00000E+000	9	...........	1425.95
	66	7.1	-8.01252E-001	-2.03393E-004	0.00000E+000	-8.00083E-001	0.00000E+000	9	...........	1426.04
	67	8.1	-8.01249E-001	-1.99551E-004	0.00000E+000	-8.00083E-001	0.00000E+000	9	...........	1425.69
	68	9.1	-8.01249E-001	-1.96295E-004	0.00000E+000	-8.00083E-001	0.00000E+000	9	...........	1426.04
	69	10.1	-8.01256E-001	-1.93520E-004	0.00000E+000	-8.00083E-001	0.00000E+000	9	...........	1426.04
	70	11.1	-8.01251E-001	-1.91344E-004	0.00000E+000	-8.00083E-001	0.00000E+000	9	...........	1426.04
	71	12.1	-8.01268E-001	-1.89395E-004	0.00000E+000	-8.00083E-001	0.00000E+000	9	...........	1426.04
	72	13.1	-8.01264E-001	-1.87704E-004	0.00000E+000	-8.00083E-001	0.00000E+000	9	...........	1426.04
	73	14.1	-8.01263E-001	-1.86342E-004	0.00000E+000	-8.00083E-001	0.00000E+000	9	...........	1426.04
	74	15.1	-8.01259E-001	-1.85097E-004	0.00000E+000	-8.00083E-001	0.00000E+000	9	...........	1426.04
	75	16.1	-8.01253E-001	-1.84086E-004	0.00000E+000	-8.00083E-001	0.00000E+000	9	...........	1426.04
	76	26.1	-8.01257E-001	-1.77402E-004	0.00000E+000	-8.00083E-001	0.00000E+000	9	...........	1426.04
	77	36.1	-8.01250E-001	-1.74259E-004	0.00000E+000	-8.00083E-001	0.00000E+000	9	...........	1426.04
	78	46.1	-8.01245E-001	-1.72046E-004	0.00000E+000	-8.00083E-001	0.00000E+000	9	...........	1426.04
	79	56.1	-8.01270E-001	-1.70764E-004	0.00000E+000	-8.00083E-001	0.00000E+000	9	...........	1426.04
	80	66.1	-8.01262E-001	-1.69743E-004	0.00000E+000	-8.00083E-001	0.00000E+000	9	...........	1426.04
	81	76.1	-8.01258E-001	-1.68496E-004	0.00000E+000	-8.00083E-001	0.00000E+000	9	...........	1426.04
	82	86.1	-8.01237E-001	-1.67950E-004	0.00000E+000	-8.00083E-001	0.00000E+000	9	...........	1426.04
	83	96.1	-8.01259E-001	-1.68205E-004	0.00000E+000	-8.00083E-001	0.00000E+000	9	...........	1426.04
	84	106.1	-8.01262E-001	-1.67663E-004	0.00000E+000	-8.00083E-001	0.00000E+000	9	...........	1426.04
	85	116.1	-8.01266E-001	-1.66758E-004	0.00000E+000	-8.00083E-001	0.00000E+000	9	...........	1426.04
	86	216.1	-8.01274E-001	-1.65885E-004	0.00000E+000	-8.00083E-001	0.00000E+000	9	...........	1426.04
	87	300	-8.01249E-001	-1.67165E-004	0.00000E+000	-8.00083E-001	0.00000E+000	9	...........	1426.04
	88	300.1	-7.01238E-001	1.28419E-004	0.00000E+000	-7.00083E-001	0.00000E+000	9	...........	1426.04
	89	300.2	-7.01242E-001	6.09825E-005	0.00000E+000	-7.00083E-001	0.00000E+000	9	...........	1426.04
	90	300.3	-7.01237E-001	2.23318E-005	0.00000E+000	-7.00083E-001	0.00000E+000	9	...........	1426.04
	91	300.4	-7.01228E-001	-5.33232E-006	0.00000E+000	-7.00083E-001	0.00000E+000	9	...........	1426.04
	92	300.5	-7.01246E-001	-2.62950E-005	0.00000E+000	-7.00083E-001	0.00000E+000	9	...........	1426.04
	93	300.6	-7.01248E-001	-4.24832E-005	0.00000E+000	-7.00083E-001	0.00000E+000	9	...........	1426.04
	94	300.7	-7.01236E-001	-5.53080E-005	0.00000E+000	-7.00083E-001	0.00000E+000	9	...........	1426.04
	95	300.8	-7.01229E-001	-6.55236E-005	0.00000E+000	-7.00083E-001	0.00000E+000	9	...........	1426.04
	96	300.9	-7.01248E-001	-7.38808E-005	0.00000E+000	-7.00083E-001	0.00000E+000	9	...........	1426.04
	97	301	-7.01239E-001	-8.07693E-005	0.00000E+000	-7.00083E-001	0.00000E+000	9	...........	1426.04
