EXPLAIN
TAG	CHRONOA
TITLE	LABEL	Chronoamperometry Scan	Test Identifier
DATE	LABEL	24/3/2022	Date
TIME	LABEL	16:00:54	Time
NOTES	NOTES	1	Notes...
	
PSTAT	PSTAT	IFC1010-21051	Potentiostat
VPRESTEP	POTEN	0.00000E+000	F	Pre-step Voltage (V)
TPRESTEP	QUANT	5.00000E-001	Pre-step Delay Time (s)
VSTEP1	POTEN	-2.00000E-001	F	Step 1 Voltage (V)
TSTEP1	QUANT	3.00000E+002	Step 1 Time (s)
VSTEP2	POTEN	-3.00000E-001	F	Step 2 Voltage (V)
TSTEP2	QUANT	1.00000E+000	Step 2 Time (s)
SAMPLETIME	QUANT	1.00000E-001	Sample Period (s)
DECIMATE	TOGGLE	T	Decimate
ILIMIT	QUANT	1.00000E+000	Limit I (mA/cm^2)
IMODE	SELECTOR	1	I/E Range Mode
IRANGE	QUANT	3.00000E-001	Max Current (mA)
EQDELAY	QUANT	5.00000E+000	Equil. Time (s)
SAMPLINGMODE	SELECTOR	1	Sampling Mode
AREA	QUANT	1.00000E+000	Sample Area (cm^2)
IRCOMP	SELECTOR	0	IRComp
PFCOR	QUANT	5.00000E+001	PF Corr. (ohm)
SEQUENCER	TOGGLE	TRUE	Run as Sequence
PSTATMODEL	IQUANT	64	Pstat Model
PSTATSECTION	LABEL	IFC1010-21051	Pstat Section
PSTATSERIALNO	LABEL	21051	Pstat Serial Number
CTRLMODE	IQUANT	1	Control Mode
ELECTROMETER	IQUANT	0	RE=0 or CS=1
IESTAB	IQUANT	0	I/E Stability
CASPEED	IQUANT	4	Control Amp Speed
CONVENTION	IQUANT	1	Current Convention
ICHRANGE	IQUANT	2	Ich Range
ICHRANGEMODE	TOGGLE	T	Ich Auto Range
ICHOFFSETENABLE	TOGGLE	F	Ich Offset Enable
ICHOFFSET	QUANT	0	Ich Offset (V)
ICHFILTER	IQUANT	3	Ich Filter
VCHRANGE	IQUANT	3	Vch Range
VCHRANGEMODE	TOGGLE	T	Vch Auto Range
VCHOFFSETENABLE	TOGGLE	F	Vch Offset Enable
VCHOFFSET	QUANT	0	Vch Offset (V)
VCHFILTER	IQUANT	3	Vch Filter
IERANGELOWERLIMIT	IQUANT	4	I/E Range Lower Limit
IERANGEMODE	TOGGLE	F	I/E AutoRange
IERANGE	IQUANT	9	I/E Range
ACHSELECT	IQUANT	0	Ach Select
ACHRANGE	IQUANT	2	Ach Range
ACHOFFSETENABLE	TOGGLE	F	Ach Offset Enable
ACHOFFSET	QUANT	0	Ach Offset (V)
ACHFILTER	IQUANT	1	Ach Filter
SENSECABLEID	IQUANT	14	Sense Cable ID
PWRCABLEID	IQUANT	14	Power Cable ID
DCCALDATE	LABEL	1/24/2022	DC Calibration Date
ACCALDATE	LABEL	4/2/2018	AC Calibration Date
FRAMEWORKVERSION	QUANT	7.06	Framework Version
INSTRUMENTVERSION	LABEL	4.30	Instrument Version
CURVE	TABLE	98
	Pt	T	Vf	Im	Vu	Sig	Ach	IERange	Over	Temp
	#	s	V vs. Ref.	A	V	V	V	#	bits	deg C
	0	-0.4	-1.05310E-003	-6.88309E-006	0.00000E+000	-6.72489E-005	0.00000E+000	9	...........	1425.87
	1	-0.3	-3.74591E-004	-6.84982E-006	0.00000E+000	-6.72489E-005	0.00000E+000	9	...........	1425.87
	2	-0.2	-2.19169E-004	-6.81358E-006	0.00000E+000	-6.72489E-005	0.00000E+000	9	...........	1425.87
	3	-0.1	-2.04437E-004	-6.80394E-006	0.00000E+000	-6.72489E-005	0.00000E+000	9	...........	1425.87
	4	0	-2.05150E-004	-6.78595E-006	0.00000E+000	-6.72489E-005	0.00000E+000	9	...........	1425.95
	5	0.1	-3.29270E-002	-1.72564E-004	0.00000E+000	-2.00066E-001	0.00000E+000	9	.........v.	1425.95
	6	0.2	-2.00247E-001	-1.49575E-004	0.00000E+000	-2.00066E-001	0.00000E+000	9	...........	1425.95
	7	0.3	-2.00247E-001	-1.37616E-004	0.00000E+000	-2.00066E-001	0.00000E+000	9	...........	1425.95
	8	0.4	-2.00247E-001	-1.28170E-004	0.00000E+000	-2.00066E-001	0.00000E+000	9	...........	1425.95
	9	0.5	-2.00249E-001	-1.20469E-004	0.00000E+000	-2.00066E-001	0.00000E+000	9	...........	1425.95
	10	0.6	-2.00247E-001	-1.13852E-004	0.00000E+000	-2.00066E-001	0.00000E+000	9	...........	1425.95
	11	0.7	-2.00250E-001	-1.08643E-004	0.00000E+000	-2.00066E-001	0.00000E+000	9	...........	1425.95
	12	0.8	-2.00249E-001	-1.02969E-004	0.00000E+000	-2.00066E-001	0.00000E+000	9	...........	1425.95
	13	0.9	-2.00248E-001	-9.95392E-005	0.00000E+000	-2.00066E-001	0.00000E+000	9	...........	1425.95
	14	1	-2.00247E-001	-9.53307E-005	0.00000E+000	-2.00066E-001	0.00000E+000	9	...........	1426.31
	15	1.1	-2.00248E-001	-9.20338E-005	0.00000E+000	-2.00066E-001	0.00000E+000	9	...........	1426.31
	16	1.2	-2.00248E-001	-8.44490E-005	0.00000E+000	-2.00066E-001	0.00000E+000	9	...........	1426.31
	17	1.3	-2.00249E-001	-2.67217E-005	0.00000E+000	-2.00066E-001	0.00000E+000	9	...........	1426.31
	18	1.4	-2.00247E-001	-2.32971E-005	0.00000E+000	-2.00066E-001	0.00000E+000	9	...........	1426.31
	19	1.5	-2.00248E-001	-2.31141E-005	0.00000E+000	-2.00066E-001	0.00000E+000	9	...........	1426.31
	20	1.6	-2.00249E-001	-2.30627E-005	0.00000E+000	-2.00066E-001	0.00000E+000	9	...........	1426.31
	21	1.7	-2.00248E-001	-2.30813E-005	0.00000E+000	-2.00066E-001	0.00000E+000	9	...........	1426.31
	22	1.8	-2.00249E-001	-2.30340E-005	0.00000E+000	-2.00066E-001	0.00000E+000	9	...........	1426.31
	23	1.9	-2.00250E-001	-2.29523E-005	0.00000E+000	-2.00066E-001	0.00000E+000	9	...........	1426.31
	24	2	-2.00250E-001	-2.29146E-005	0.00000E+000	-2.00066E-001	0.00000E+000	9	...........	1426.04
	25	2.1	-2.00250E-001	-2.29735E-005	0.00000E+000	-2.00066E-001	0.00000E+000	9	...........	1426.04
	26	2.2	-2.00248E-001	-2.28750E-005	0.00000E+000	-2.00066E-001	0.00000E+000	9	...........	1426.04
	27	2.3	-2.00249E-001	-2.29004E-005	0.00000E+000	-2.00066E-001	0.00000E+000	9	...........	1426.04
	28	2.4	-2.00249E-001	-2.28642E-005	0.00000E+000	-2.00066E-001	0.00000E+000	9	...........	1426.04
	29	2.5	-2.00247E-001	-2.28212E-005	0.00000E+000	-2.00066E-001	0.00000E+000	9	...........	1426.04
	30	2.6	-2.00250E-001	-2.27385E-005	0.00000E+000	-2.00066E-001	0.00000E+000	9	...........	1426.04
	31	2.7	-2.00249E-001	-2.27432E-005	0.00000E+000	-2.00066E-001	0.00000E+000	9	...........	1426.04
	32	2.8	-2.00249E-001	-2.28804E-005	0.00000E+000	-2.00066E-001	0.00000E+000	9	...........	1426.04
	33	2.9	-2.00248E-001	-2.28127E-005	0.00000E+000	-2.00066E-001	0.00000E+000	9	...........	1426.04
	34	3	-2.00251E-001	-2.29045E-005	0.00000E+000	-2.00066E-001	0.00000E+000	9	...........	1425.60
	35	3.1	-2.00248E-001	-2.28951E-005	0.00000E+000	-2.00066E-001	0.00000E+000	9	...........	1425.60
	36	3.2	-2.00250E-001	-2.26360E-005	0.00000E+000	-2.00066E-001	0.00000E+000	9	...........	1425.60
	37	3.3	-2.00248E-001	-2.27099E-005	0.00000E+000	-2.00066E-001	0.00000E+000	9	...........	1425.60
	38	3.4	-2.00248E-001	-2.27537E-005	0.00000E+000	-2.00066E-001	0.00000E+000	9	...........	1425.60
	39	3.5	-2.00250E-001	-2.26725E-005	0.00000E+000	-2.00066E-001	0.00000E+000	9	...........	1425.60
	40	3.6	-2.00249E-001	-2.26184E-005	0.00000E+000	-2.00066E-001	0.00000E+000	9	...........	1425.60
	41	3.7	-2.00249E-001	-2.26202E-005	0.00000E+000	-2.00066E-001	0.00000E+000	9	...........	1425.60
	42	3.8	-2.00248E-001	-2.24505E-005	0.00000E+000	-2.00066E-001	0.00000E+000	9	...........	1425.60
	43	3.9	-2.00249E-001	-2.26023E-005	0.00000E+000	-2.00066E-001	0.00000E+000	9	...........	1425.60
	44	4	-2.00249E-001	-2.25268E-005	0.00000E+000	-2.00066E-001	0.00000E+000	9	...........	1426.04
	45	4.1	-2.00248E-001	-2.23792E-005	0.00000E+000	-2.00066E-001	0.00000E+000	9	...........	1426.04
	46	4.2	-2.00251E-001	-2.24031E-005	0.00000E+000	-2.00066E-001	0.00000E+000	9	...........	1426.04
	47	4.3	-2.00249E-001	-2.22044E-005	0.00000E+000	-2.00066E-001	0.00000E+000	9	...........	1426.04
	48	4.4	-2.00250E-001	-2.21717E-005	0.00000E+000	-2.00066E-001	0.00000E+000	9	...........	1426.04
	49	4.5	-2.00249E-001	-2.21472E-005	0.00000E+000	-2.00066E-001	0.00000E+000	9	...........	1426.04
	50	4.6	-2.00248E-001	-2.20096E-005	0.00000E+000	-2.00066E-001	0.00000E+000	9	...........	1426.04
	51	4.7	-2.00250E-001	-2.21386E-005	0.00000E+000	-2.00066E-001	0.00000E+000	9	...........	1426.04
	52	4.8	-2.00249E-001	-2.20247E-005	0.00000E+000	-2.00066E-001	0.00000E+000	9	...........	1426.04
	53	4.9	-2.00248E-001	-2.18623E-005	0.00000E+000	-2.00066E-001	0.00000E+000	9	...........	1426.04
	54	5	-2.00248E-001	-2.18203E-005	0.00000E+000	-2.00066E-001	0.00000E+000	9	...........	1426.04
	55	5.1	-2.00249E-001	-2.19899E-005	0.00000E+000	-2.00066E-001	0.00000E+000	9	...........	1426.04
	56	5.2	-2.00250E-001	-2.20070E-005	0.00000E+000	-2.00066E-001	0.00000E+000	9	...........	1426.04
	57	5.3	-2.00250E-001	-2.17883E-005	0.00000E+000	-2.00066E-001	0.00000E+000	9	...........	1426.04
	58	5.4	-2.00250E-001	-2.17319E-005	0.00000E+000	-2.00066E-001	0.00000E+000	9	...........	1426.04
	59	5.5	-2.00249E-001	-2.16619E-005	0.00000E+000	-2.00066E-001	0.00000E+000	9	...........	1426.04
	60	5.6	-2.00250E-001	-2.17451E-005	0.00000E+000	-2.00066E-001	0.00000E+000	9	...........	1426.04
	61	5.7	-2.00250E-001	-2.15810E-005	0.00000E+000	-2.00066E-001	0.00000E+000	9	...........	1426.04
	62	5.8	-2.00251E-001	-2.15332E-005	0.00000E+000	-2.00066E-001	0.00000E+000	9	...........	1426.04
	63	5.9	-2.00250E-001	-2.14252E-005	0.00000E+000	-2.00066E-001	0.00000E+000	9	...........	1426.04
	64	6	-2.00251E-001	-2.14862E-005	0.00000E+000	-2.00066E-001	0.00000E+000	9	...........	1425.95
	65	6.1	-2.00249E-001	-2.14637E-005	0.00000E+000	-2.00066E-001	0.00000E+000	9	...........	1425.95
	66	7.1	-2.00251E-001	-2.14390E-005	0.00000E+000	-2.00066E-001	0.00000E+000	9	...........	1426.04
	67	8.1	-2.00249E-001	-2.11477E-005	0.00000E+000	-2.00066E-001	0.00000E+000	9	...........	1426.04
	68	9.1	-2.00250E-001	-2.11918E-005	0.00000E+000	-2.00066E-001	0.00000E+000	9	...........	1426.13
	69	10.1	-2.00248E-001	-2.14726E-005	0.00000E+000	-2.00066E-001	0.00000E+000	9	...........	1426.13
	70	11.1	-2.00248E-001	-2.12917E-005	0.00000E+000	-2.00066E-001	0.00000E+000	9	...........	1426.13
	71	12.1	-2.00251E-001	-2.12345E-005	0.00000E+000	-2.00066E-001	0.00000E+000	9	...........	1426.13
	72	13.1	-2.00249E-001	-2.12435E-005	0.00000E+000	-2.00066E-001	0.00000E+000	9	...........	1426.13
	73	14.1	-2.00250E-001	-2.13470E-005	0.00000E+000	-2.00066E-001	0.00000E+000	9	...........	1426.13
	74	15.1	-2.00249E-001	-2.08747E-005	0.00000E+000	-2.00066E-001	0.00000E+000	9	...........	1426.13
	75	16.1	-2.00251E-001	-2.04088E-005	0.00000E+000	-2.00066E-001	0.00000E+000	9	...........	1426.13
	76	26.1	-2.00249E-001	-5.80617E-005	0.00000E+000	-2.00066E-001	0.00000E+000	9	...........	1426.13
	77	36.1	-2.00248E-001	-3.37194E-005	0.00000E+000	-2.00066E-001	0.00000E+000	9	...........	1426.13
	78	46.1	-2.00250E-001	-2.75809E-005	0.00000E+000	-2.00066E-001	0.00000E+000	9	...........	1426.13
	79	56.1	-2.00248E-001	-2.48856E-005	0.00000E+000	-2.00066E-001	0.00000E+000	9	...........	1426.22
	80	66.1	-2.00251E-001	-2.35857E-005	0.00000E+000	-2.00066E-001	0.00000E+000	9	...........	1426.13
	81	76.1	-2.00252E-001	-2.19441E-005	0.00000E+000	-2.00066E-001	0.00000E+000	9	...........	1426.13
	82	86.1	-2.00251E-001	-2.11276E-005	0.00000E+000	-2.00066E-001	0.00000E+000	9	...........	1426.13
	83	96.1	-2.00251E-001	-2.05890E-005	0.00000E+000	-2.00066E-001	0.00000E+000	9	...........	1426.13
	84	106.1	-2.00251E-001	-2.02527E-005	0.00000E+000	-2.00066E-001	0.00000E+000	9	...........	1426.13
	85	116.1	-2.00249E-001	-1.98369E-005	0.00000E+000	-2.00066E-001	0.00000E+000	9	...........	1426.13
	86	216.1	-2.00251E-001	-1.86682E-005	0.00000E+000	-2.00066E-001	0.00000E+000	9	...........	1426.13
	87	300	-2.00251E-001	-1.75560E-005	0.00000E+000	-2.00066E-001	0.00000E+000	9	...........	1426.22
	88	300.1	-3.00256E-001	-1.91690E-004	0.00000E+000	-3.00066E-001	0.00000E+000	9	...........	1426.22
	89	300.2	-3.00408E-001	-1.58242E-004	0.00000E+000	-3.00066E-001	0.00000E+000	9	...........	1426.22
	90	300.3	-3.00408E-001	-1.35462E-004	0.00000E+000	-3.00066E-001	0.00000E+000	9	...........	1426.22
	91	300.4	-3.00412E-001	-1.18395E-004	0.00000E+000	-3.00066E-001	0.00000E+000	9	...........	1426.22
	92	300.5	-3.00400E-001	-1.05192E-004	0.00000E+000	-3.00066E-001	0.00000E+000	9	...........	1426.22
	93	300.6	-3.00405E-001	-9.48494E-005	0.00000E+000	-3.00066E-001	0.00000E+000	9	...........	1426.22
	94	300.7	-3.00406E-001	-8.65777E-005	0.00000E+000	-3.00066E-001	0.00000E+000	9	...........	1426.22
	95	300.8	-3.00407E-001	-7.99684E-005	0.00000E+000	-3.00066E-001	0.00000E+000	9	...........	1426.22
	96	300.9	-3.00396E-001	-7.45417E-005	0.00000E+000	-3.00066E-001	0.00000E+000	9	...........	1426.22
	97	301	-3.00419E-001	-7.01336E-005	0.00000E+000	-3.00066E-001	0.00000E+000	9	...........	1426.22
