EXPLAIN
TAG	CHRONOA
TITLE	LABEL	Chronoamperometry Scan	Test Identifier
DATE	LABEL	24/3/2022	Date
TIME	LABEL	17:53:11	Time
NOTES	NOTES	1	Notes...
	
PSTAT	PSTAT	IFC1010-21051	Potentiostat
VPRESTEP	POTEN	1.00000E-001	F	Pre-step Voltage (V)
TPRESTEP	QUANT	5.00000E-001	Pre-step Delay Time (s)
VSTEP1	POTEN	2.00000E-001	F	Step 1 Voltage (V)
TSTEP1	QUANT	3.00000E+002	Step 1 Time (s)
VSTEP2	POTEN	3.00000E-001	F	Step 2 Voltage (V)
TSTEP2	QUANT	1.00000E+000	Step 2 Time (s)
SAMPLETIME	QUANT	1.00000E-001	Sample Period (s)
DECIMATE	TOGGLE	T	Decimate
ILIMIT	QUANT	1.00000E+000	Limit I (mA/cm^2)
IMODE	SELECTOR	1	I/E Range Mode
IRANGE	QUANT	3.00000E-001	Max Current (mA)
EQDELAY	QUANT	5.00000E+000	Equil. Time (s)
SAMPLINGMODE	SELECTOR	1	Sampling Mode
AREA	QUANT	1.00000E+000	Sample Area (cm^2)
IRCOMP	SELECTOR	0	IRComp
PFCOR	QUANT	5.00000E+001	PF Corr. (ohm)
SEQUENCER	TOGGLE	TRUE	Run as Sequence
PSTATMODEL	IQUANT	64	Pstat Model
PSTATSECTION	LABEL	IFC1010-21051	Pstat Section
PSTATSERIALNO	LABEL	21051	Pstat Serial Number
CTRLMODE	IQUANT	1	Control Mode
ELECTROMETER	IQUANT	0	RE=0 or CS=1
IESTAB	IQUANT	0	I/E Stability
CASPEED	IQUANT	4	Control Amp Speed
CONVENTION	IQUANT	1	Current Convention
ICHRANGE	IQUANT	2	Ich Range
ICHRANGEMODE	TOGGLE	T	Ich Auto Range
ICHOFFSETENABLE	TOGGLE	F	Ich Offset Enable
ICHOFFSET	QUANT	0	Ich Offset (V)
ICHFILTER	IQUANT	3	Ich Filter
VCHRANGE	IQUANT	3	Vch Range
VCHRANGEMODE	TOGGLE	T	Vch Auto Range
VCHOFFSETENABLE	TOGGLE	F	Vch Offset Enable
VCHOFFSET	QUANT	0	Vch Offset (V)
VCHFILTER	IQUANT	3	Vch Filter
IERANGELOWERLIMIT	IQUANT	4	I/E Range Lower Limit
IERANGEMODE	TOGGLE	F	I/E AutoRange
IERANGE	IQUANT	9	I/E Range
ACHSELECT	IQUANT	0	Ach Select
ACHRANGE	IQUANT	2	Ach Range
ACHOFFSETENABLE	TOGGLE	F	Ach Offset Enable
ACHOFFSET	QUANT	0	Ach Offset (V)
ACHFILTER	IQUANT	1	Ach Filter
SENSECABLEID	IQUANT	14	Sense Cable ID
PWRCABLEID	IQUANT	14	Power Cable ID
DCCALDATE	LABEL	1/24/2022	DC Calibration Date
ACCALDATE	LABEL	4/2/2018	AC Calibration Date
FRAMEWORKVERSION	QUANT	7.06	Framework Version
INSTRUMENTVERSION	LABEL	4.30	Instrument Version
CURVE	TABLE	98
	Pt	T	Vf	Im	Vu	Sig	Ach	IERange	Over	Temp
	#	s	V vs. Ref.	A	V	V	V	#	bits	deg C
	0	-0.4	9.93346E-002	1.14701E-007	0.00000E+000	1.00006E-001	0.00000E+000	9	...........	1426.04
	1	-0.3	1.00009E-001	1.41061E-007	0.00000E+000	1.00006E-001	0.00000E+000	9	...........	1426.04
	2	-0.2	1.00192E-001	1.68489E-007	0.00000E+000	1.00006E-001	0.00000E+000	9	...........	1426.04
	3	-0.1	1.00190E-001	2.11367E-007	0.00000E+000	1.00006E-001	0.00000E+000	9	...........	1426.04
	4	0	1.00190E-001	2.34491E-007	0.00000E+000	1.00006E-001	0.00000E+000	9	...........	1426.04
	5	0.1	2.00189E-001	1.01538E-005	0.00000E+000	2.00005E-001	0.00000E+000	9	...........	1426.04
	6	0.2	2.00188E-001	7.14712E-006	0.00000E+000	2.00005E-001	0.00000E+000	9	...........	1426.04
	7	0.3	2.00188E-001	5.91255E-006	0.00000E+000	2.00005E-001	0.00000E+000	9	...........	1426.04
	8	0.4	2.00188E-001	5.15901E-006	0.00000E+000	2.00005E-001	0.00000E+000	9	...........	1426.04
	9	0.5	2.00190E-001	4.64311E-006	0.00000E+000	2.00005E-001	0.00000E+000	9	...........	1426.04
	10	0.6	2.00191E-001	4.24393E-006	0.00000E+000	2.00005E-001	0.00000E+000	9	...........	1426.04
	11	0.7	2.00190E-001	3.92553E-006	0.00000E+000	2.00005E-001	0.00000E+000	9	...........	1426.04
	12	0.8	2.00191E-001	3.65942E-006	0.00000E+000	2.00005E-001	0.00000E+000	9	...........	1426.04
	13	0.9	2.00190E-001	3.44477E-006	0.00000E+000	2.00005E-001	0.00000E+000	9	...........	1426.04
	14	1	2.00189E-001	3.25394E-006	0.00000E+000	2.00005E-001	0.00000E+000	9	...........	1426.04
	15	1.1	2.00189E-001	3.08830E-006	0.00000E+000	2.00005E-001	0.00000E+000	9	...........	1426.04
	16	1.2	2.00189E-001	2.95189E-006	0.00000E+000	2.00005E-001	0.00000E+000	9	...........	1426.04
	17	1.3	2.00188E-001	2.81889E-006	0.00000E+000	2.00005E-001	0.00000E+000	9	...........	1426.04
	18	1.4	2.00190E-001	2.70504E-006	0.00000E+000	2.00005E-001	0.00000E+000	9	...........	1425.87
	19	1.5	2.00190E-001	2.59997E-006	0.00000E+000	2.00005E-001	0.00000E+000	9	...........	1425.87
	20	1.6	2.00190E-001	2.49199E-006	0.00000E+000	2.00005E-001	0.00000E+000	9	...........	1425.87
	21	1.7	2.00187E-001	2.40126E-006	0.00000E+000	2.00005E-001	0.00000E+000	9	...........	1425.87
	22	1.8	2.00188E-001	2.31090E-006	0.00000E+000	2.00005E-001	0.00000E+000	9	...........	1425.87
	23	1.9	2.00187E-001	2.23449E-006	0.00000E+000	2.00005E-001	0.00000E+000	9	...........	1425.87
	24	2	2.00188E-001	2.15607E-006	0.00000E+000	2.00005E-001	0.00000E+000	9	...........	1425.87
	25	2.1	2.00191E-001	2.11603E-006	0.00000E+000	2.00005E-001	0.00000E+000	9	...........	1425.87
	26	2.2	2.00189E-001	2.08040E-006	0.00000E+000	2.00005E-001	0.00000E+000	9	...........	1425.87
	27	2.3	2.00189E-001	2.06204E-006	0.00000E+000	2.00005E-001	0.00000E+000	9	...........	1425.87
	28	2.4	2.00189E-001	2.03829E-006	0.00000E+000	2.00005E-001	0.00000E+000	9	...........	1426.13
	29	2.5	2.00188E-001	2.01853E-006	0.00000E+000	2.00005E-001	0.00000E+000	9	...........	1426.13
	30	2.6	2.00189E-001	1.98613E-006	0.00000E+000	2.00005E-001	0.00000E+000	9	...........	1426.13
	31	2.7	2.00187E-001	1.93448E-006	0.00000E+000	2.00005E-001	0.00000E+000	9	...........	1426.13
	32	2.8	2.00190E-001	1.88813E-006	0.00000E+000	2.00005E-001	0.00000E+000	9	...........	1426.13
	33	2.9	2.00190E-001	1.84202E-006	0.00000E+000	2.00005E-001	0.00000E+000	9	...........	1426.13
	34	3	2.00190E-001	1.80157E-006	0.00000E+000	2.00005E-001	0.00000E+000	9	...........	1426.13
	35	3.1	2.00188E-001	1.75045E-006	0.00000E+000	2.00005E-001	0.00000E+000	9	...........	1426.13
	36	3.2	2.00189E-001	1.72583E-006	0.00000E+000	2.00005E-001	0.00000E+000	9	...........	1426.13
	37	3.3	2.00189E-001	1.69039E-006	0.00000E+000	2.00005E-001	0.00000E+000	9	...........	1426.13
	38	3.4	2.00191E-001	1.66313E-006	0.00000E+000	2.00005E-001	0.00000E+000	9	...........	1426.31
	39	3.5	2.00191E-001	1.64171E-006	0.00000E+000	2.00005E-001	0.00000E+000	9	...........	1426.31
	40	3.6	2.00188E-001	1.60958E-006	0.00000E+000	2.00005E-001	0.00000E+000	9	...........	1426.31
	41	3.7	2.00189E-001	1.56640E-006	0.00000E+000	2.00005E-001	0.00000E+000	9	...........	1426.31
	42	3.8	2.00188E-001	1.48698E-006	0.00000E+000	2.00005E-001	0.00000E+000	9	...........	1426.31
	43	3.9	2.00188E-001	1.41621E-006	0.00000E+000	2.00005E-001	0.00000E+000	9	...........	1426.31
	44	4	2.00190E-001	1.33543E-006	0.00000E+000	2.00005E-001	0.00000E+000	9	...........	1426.31
	45	4.1	2.00191E-001	1.27223E-006	0.00000E+000	2.00005E-001	0.00000E+000	9	...........	1426.31
	46	4.2	2.00189E-001	1.22825E-006	0.00000E+000	2.00005E-001	0.00000E+000	9	...........	1426.31
	47	4.3	2.00192E-001	1.19642E-006	0.00000E+000	2.00005E-001	0.00000E+000	9	...........	1426.31
	48	4.4	2.00189E-001	1.15197E-006	0.00000E+000	2.00005E-001	0.00000E+000	9	...........	1426.31
	49	4.5	2.00189E-001	1.10973E-006	0.00000E+000	2.00005E-001	0.00000E+000	9	...........	1426.31
	50	4.6	2.00189E-001	1.04309E-006	0.00000E+000	2.00005E-001	0.00000E+000	9	...........	1426.31
	51	4.7	2.00191E-001	9.85633E-007	0.00000E+000	2.00005E-001	0.00000E+000	9	...........	1426.31
	52	4.8	2.00189E-001	9.32578E-007	0.00000E+000	2.00005E-001	0.00000E+000	9	...........	1426.31
	53	4.9	2.00190E-001	8.75619E-007	0.00000E+000	2.00005E-001	0.00000E+000	9	...........	1426.31
	54	5	2.00190E-001	8.24733E-007	0.00000E+000	2.00005E-001	0.00000E+000	9	...........	1426.31
	55	5.1	2.00190E-001	7.74615E-007	0.00000E+000	2.00005E-001	0.00000E+000	9	...........	1426.31
	56	5.2	2.00189E-001	7.41848E-007	0.00000E+000	2.00005E-001	0.00000E+000	9	...........	1426.31
	57	5.3	2.00189E-001	7.20793E-007	0.00000E+000	2.00005E-001	0.00000E+000	9	...........	1426.31
	58	5.4	2.00190E-001	7.05443E-007	0.00000E+000	2.00005E-001	0.00000E+000	9	...........	1426.13
	59	5.5	2.00189E-001	7.10382E-007	0.00000E+000	2.00005E-001	0.00000E+000	9	...........	1426.13
	60	5.6	2.00189E-001	7.12584E-007	0.00000E+000	2.00005E-001	0.00000E+000	9	...........	1426.13
	61	5.7	2.00190E-001	7.09181E-007	0.00000E+000	2.00005E-001	0.00000E+000	9	...........	1426.13
	62	5.8	2.00190E-001	7.04743E-007	0.00000E+000	2.00005E-001	0.00000E+000	9	...........	1426.13
	63	5.9	2.00188E-001	7.08380E-007	0.00000E+000	2.00005E-001	0.00000E+000	9	...........	1426.13
	64	6	2.00189E-001	6.95366E-007	0.00000E+000	2.00005E-001	0.00000E+000	9	...........	1426.13
	65	6.1	2.00187E-001	6.90128E-007	0.00000E+000	2.00005E-001	0.00000E+000	9	...........	1426.13
	66	7.1	2.00191E-001	6.21357E-007	0.00000E+000	2.00005E-001	0.00000E+000	9	...........	1426.22
	67	8.1	2.00189E-001	5.71305E-007	0.00000E+000	2.00005E-001	0.00000E+000	9	...........	1426.31
	68	9.1	2.00189E-001	7.86294E-007	0.00000E+000	2.00005E-001	0.00000E+000	9	...........	1426.31
	69	10.1	2.00189E-001	1.02240E-006	0.00000E+000	2.00005E-001	0.00000E+000	9	...........	1426.31
	70	11.1	2.00188E-001	8.55198E-007	0.00000E+000	2.00005E-001	0.00000E+000	9	...........	1426.22
	71	12.1	2.00190E-001	8.69613E-007	0.00000E+000	2.00005E-001	0.00000E+000	9	...........	1426.31
	72	13.1	2.00191E-001	7.53860E-007	0.00000E+000	2.00005E-001	0.00000E+000	9	...........	1426.22
	73	14.1	2.00189E-001	3.43970E-007	0.00000E+000	2.00005E-001	0.00000E+000	9	...........	1426.22
	74	15.1	2.00190E-001	1.57411E-007	0.00000E+000	2.00005E-001	0.00000E+000	9	...........	1426.31
	75	16.1	2.00188E-001	2.49673E-007	0.00000E+000	2.00005E-001	0.00000E+000	9	...........	1426.31
	76	26.1	2.00191E-001	-3.92916E-008	0.00000E+000	2.00005E-001	0.00000E+000	9	...........	1426.31
	77	36.1	2.00192E-001	-1.43599E-007	0.00000E+000	2.00005E-001	0.00000E+000	9	...........	1426.40
	78	46.1	2.00191E-001	-1.55778E-007	0.00000E+000	2.00005E-001	0.00000E+000	9	...........	1426.31
	79	56.1	2.00188E-001	3.26493E-008	0.00000E+000	2.00005E-001	0.00000E+000	9	...........	1426.31
	80	66.1	2.00191E-001	2.65289E-007	0.00000E+000	2.00005E-001	0.00000E+000	9	...........	1426.31
	81	76.1	2.00191E-001	2.53677E-007	0.00000E+000	2.00005E-001	0.00000E+000	9	...........	1426.31
	82	86.1	2.00191E-001	-5.65762E-008	0.00000E+000	2.00005E-001	0.00000E+000	9	...........	1426.31
	83	96.1	2.00189E-001	-3.47610E-007	0.00000E+000	2.00005E-001	0.00000E+000	9	...........	1426.31
	84	106.1	2.00192E-001	-2.72032E-007	0.00000E+000	2.00005E-001	0.00000E+000	9	...........	1426.31
	85	116.1	2.00189E-001	-3.25287E-007	0.00000E+000	2.00005E-001	0.00000E+000	9	...........	1426.40
	86	216.1	2.00189E-001	-3.36698E-007	0.00000E+000	2.00005E-001	0.00000E+000	9	...........	1426.31
	87	300	2.00191E-001	-3.96093E-007	0.00000E+000	2.00005E-001	0.00000E+000	9	...........	1426.31
	88	300.1	3.00210E-001	1.05668E-005	0.00000E+000	3.00005E-001	0.00000E+000	9	...........	1426.31
	89	300.2	3.00056E-001	9.24679E-006	0.00000E+000	3.00005E-001	0.00000E+000	9	...........	1426.31
	90	300.3	3.00045E-001	8.83660E-006	0.00000E+000	3.00005E-001	0.00000E+000	9	...........	1426.31
	91	300.4	3.00055E-001	8.63229E-006	0.00000E+000	3.00005E-001	0.00000E+000	9	...........	1426.31
	92	300.5	3.00070E-001	8.49892E-006	0.00000E+000	3.00005E-001	0.00000E+000	9	...........	1426.31
	93	300.6	3.00068E-001	8.35504E-006	0.00000E+000	3.00005E-001	0.00000E+000	9	...........	1426.31
	94	300.7	3.00075E-001	8.18433E-006	0.00000E+000	3.00005E-001	0.00000E+000	9	...........	1426.31
	95	300.8	3.00061E-001	7.99193E-006	0.00000E+000	3.00005E-001	0.00000E+000	9	...........	1426.31
	96	300.9	3.00063E-001	7.80056E-006	0.00000E+000	3.00005E-001	0.00000E+000	9	...........	1426.31
	97	301	3.00066E-001	7.60636E-006	0.00000E+000	3.00005E-001	0.00000E+000	9	...........	1426.31
