EXPLAIN
TAG	CHRONOA
TITLE	LABEL	Chronoamperometry Scan	Test Identifier
DATE	LABEL	24/3/2022	Date
TIME	LABEL	18:03:24	Time
NOTES	NOTES	1	Notes...
	
PSTAT	PSTAT	IFC1010-21051	Potentiostat
VPRESTEP	POTEN	1.00000E-001	F	Pre-step Voltage (V)
TPRESTEP	QUANT	5.00000E-001	Pre-step Delay Time (s)
VSTEP1	POTEN	0.00000E+000	F	Step 1 Voltage (V)
TSTEP1	QUANT	6.00000E+001	Step 1 Time (s)
VSTEP2	POTEN	1.00000E-001	F	Step 2 Voltage (V)
TSTEP2	QUANT	1.00000E+000	Step 2 Time (s)
SAMPLETIME	QUANT	1.00000E-002	Sample Period (s)
DECIMATE	TOGGLE	T	Decimate
ILIMIT	QUANT	1.00000E+000	Limit I (mA/cm^2)
IMODE	SELECTOR	1	I/E Range Mode
IRANGE	QUANT	3.00000E-001	Max Current (mA)
EQDELAY	QUANT	5.00000E+000	Equil. Time (s)
SAMPLINGMODE	SELECTOR	1	Sampling Mode
AREA	QUANT	1.00000E+000	Sample Area (cm^2)
IRCOMP	SELECTOR	0	IRComp
PFCOR	QUANT	5.00000E+001	PF Corr. (ohm)
SEQUENCER	TOGGLE	TRUE	Run as Sequence
PSTATMODEL	IQUANT	64	Pstat Model
PSTATSECTION	LABEL	IFC1010-21051	Pstat Section
PSTATSERIALNO	LABEL	21051	Pstat Serial Number
CTRLMODE	IQUANT	1	Control Mode
ELECTROMETER	IQUANT	0	RE=0 or CS=1
IESTAB	IQUANT	0	I/E Stability
CASPEED	IQUANT	4	Control Amp Speed
CONVENTION	IQUANT	1	Current Convention
ICHRANGE	IQUANT	2	Ich Range
ICHRANGEMODE	TOGGLE	T	Ich Auto Range
ICHOFFSETENABLE	TOGGLE	F	Ich Offset Enable
ICHOFFSET	QUANT	0	Ich Offset (V)
ICHFILTER	IQUANT	3	Ich Filter
VCHRANGE	IQUANT	3	Vch Range
VCHRANGEMODE	TOGGLE	T	Vch Auto Range
VCHOFFSETENABLE	TOGGLE	F	Vch Offset Enable
VCHOFFSET	QUANT	0	Vch Offset (V)
VCHFILTER	IQUANT	3	Vch Filter
IERANGELOWERLIMIT	IQUANT	4	I/E Range Lower Limit
IERANGEMODE	TOGGLE	F	I/E AutoRange
IERANGE	IQUANT	9	I/E Range
ACHSELECT	IQUANT	0	Ach Select
ACHRANGE	IQUANT	2	Ach Range
ACHOFFSETENABLE	TOGGLE	F	Ach Offset Enable
ACHOFFSET	QUANT	0	Ach Offset (V)
ACHFILTER	IQUANT	1	Ach Filter
SENSECABLEID	IQUANT	14	Sense Cable ID
PWRCABLEID	IQUANT	14	Power Cable ID
DCCALDATE	LABEL	1/24/2022	DC Calibration Date
ACCALDATE	LABEL	4/2/2018	AC Calibration Date
FRAMEWORKVERSION	QUANT	7.06	Framework Version
INSTRUMENTVERSION	LABEL	4.30	Instrument Version
CURVE	TABLE	201
	Pt	T	Vf	Im	Vu	Sig	Ach	IERange	Over	Temp
	#	s	V vs. Ref.	A	V	V	V	#	bits	deg C
	0	-0.49	9.91541E-002	-2.37118E-006	0.00000E+000	9.99387E-002	0.00000E+000	9	...........	1426.04
	1	-0.48	9.97852E-002	-2.01715E-007	0.00000E+000	9.99387E-002	0.00000E+000	9	...........	1426.04
	2	-0.47	9.99563E-002	-2.37368E-006	0.00000E+000	9.99387E-002	0.00000E+000	9	...........	1426.04
	3	-0.46	9.99517E-002	-1.88646E-007	0.00000E+000	9.99387E-002	0.00000E+000	9	...........	1426.04
	4	-0.45	9.99543E-002	-2.38730E-006	0.00000E+000	9.99387E-002	0.00000E+000	9	...........	1426.04
	5	-0.44	9.99500E-002	-1.82806E-007	0.00000E+000	9.99387E-002	0.00000E+000	9	...........	1426.04
	6	-0.43	9.99585E-002	-2.37535E-006	0.00000E+000	9.99387E-002	0.00000E+000	9	...........	1426.04
	7	-0.42	9.99490E-002	-1.78357E-007	0.00000E+000	9.99387E-002	0.00000E+000	9	...........	1426.04
	8	-0.41	9.99550E-002	-2.39759E-006	0.00000E+000	9.99387E-002	0.00000E+000	9	...........	1426.04
	9	-0.4	9.99490E-002	-1.92817E-007	0.00000E+000	9.99387E-002	0.00000E+000	9	...........	1426.04
	10	-0.39	9.99560E-002	-2.36756E-006	0.00000E+000	9.99387E-002	0.00000E+000	9	...........	1426.04
	11	-0.38	9.99539E-002	-1.70293E-007	0.00000E+000	9.99387E-002	0.00000E+000	9	...........	1426.04
	12	-0.37	9.99561E-002	-2.40093E-006	0.00000E+000	9.99387E-002	0.00000E+000	9	...........	1426.04
	13	-0.36	9.99481E-002	-1.75021E-007	0.00000E+000	9.99387E-002	0.00000E+000	9	...........	1426.04
	14	-0.35	9.99556E-002	-2.40371E-006	0.00000E+000	9.99387E-002	0.00000E+000	9	...........	1426.04
	15	-0.34	9.99508E-002	-1.58615E-007	0.00000E+000	9.99387E-002	0.00000E+000	9	...........	1426.04
	16	-0.33	9.99565E-002	-2.41177E-006	0.00000E+000	9.99387E-002	0.00000E+000	9	...........	1426.04
	17	-0.32	9.99481E-002	-1.64176E-007	0.00000E+000	9.99387E-002	0.00000E+000	9	...........	1426.04
	18	-0.31	9.99516E-002	-2.42373E-006	0.00000E+000	9.99387E-002	0.00000E+000	9	...........	1426.04
	19	-0.3	9.99499E-002	-1.59449E-007	0.00000E+000	9.99387E-002	0.00000E+000	9	...........	1426.04
	20	-0.29	9.99544E-002	-2.40955E-006	0.00000E+000	9.99387E-002	0.00000E+000	9	...........	1426.04
	21	-0.28	9.99510E-002	-1.72240E-007	0.00000E+000	9.99387E-002	0.00000E+000	9	...........	1426.04
	22	-0.27	9.99555E-002	-2.40955E-006	0.00000E+000	9.99387E-002	0.00000E+000	9	...........	1426.04
	23	-0.26	9.99509E-002	-1.48326E-007	0.00000E+000	9.99387E-002	0.00000E+000	9	...........	1426.04
	24	-0.25	9.99550E-002	-2.41094E-006	0.00000E+000	9.99387E-002	0.00000E+000	9	...........	1426.04
	25	-0.24	9.99540E-002	-1.46380E-007	0.00000E+000	9.99387E-002	0.00000E+000	9	...........	1426.04
	26	-0.23	9.99536E-002	-2.41706E-006	0.00000E+000	9.99387E-002	0.00000E+000	9	...........	1426.04
	27	-0.22	9.99486E-002	-1.41375E-007	0.00000E+000	9.99387E-002	0.00000E+000	9	...........	1426.04
	28	-0.21	9.99563E-002	-2.43207E-006	0.00000E+000	9.99387E-002	0.00000E+000	9	...........	1426.04
	29	-0.2	9.99505E-002	-1.64454E-007	0.00000E+000	9.99387E-002	0.00000E+000	9	...........	1426.04
	30	-0.19	9.99579E-002	-2.42595E-006	0.00000E+000	9.99387E-002	0.00000E+000	9	...........	1426.04
	31	-0.18	9.99518E-002	-1.39706E-007	0.00000E+000	9.99387E-002	0.00000E+000	9	...........	1426.04
	32	-0.17	9.99544E-002	-2.42734E-006	0.00000E+000	9.99387E-002	0.00000E+000	9	...........	1426.04
	33	-0.16	9.99490E-002	-1.47492E-007	0.00000E+000	9.99387E-002	0.00000E+000	9	...........	1426.04
	34	-0.15	9.99551E-002	-2.43485E-006	0.00000E+000	9.99387E-002	0.00000E+000	9	...........	1426.04
	35	-0.14	9.99511E-002	-1.43321E-007	0.00000E+000	9.99387E-002	0.00000E+000	9	...........	1426.04
	36	-0.13	9.99517E-002	-2.46794E-006	0.00000E+000	9.99387E-002	0.00000E+000	9	...........	1426.04
	37	-0.12	9.99529E-002	-1.20520E-007	0.00000E+000	9.99387E-002	0.00000E+000	9	...........	1426.04
	38	-0.11	9.99543E-002	-2.44959E-006	0.00000E+000	9.99387E-002	0.00000E+000	9	...........	1426.04
	39	-0.1	9.99522E-002	-1.24413E-007	0.00000E+000	9.99387E-002	0.00000E+000	9	...........	1426.04
	40	-0.09	9.99535E-002	-2.45070E-006	0.00000E+000	9.99387E-002	0.00000E+000	9	...........	1426.04
	41	-0.08	9.99522E-002	-1.26081E-007	0.00000E+000	9.99387E-002	0.00000E+000	9	...........	1426.04
	42	-0.07	9.99521E-002	-2.45988E-006	0.00000E+000	9.99387E-002	0.00000E+000	9	...........	1426.04
	43	-0.06	9.99498E-002	-1.21632E-007	0.00000E+000	9.99387E-002	0.00000E+000	9	...........	1426.04
	44	-0.05	9.99541E-002	-2.45432E-006	0.00000E+000	9.99387E-002	0.00000E+000	9	...........	1426.04
	45	-0.04	9.99504E-002	-9.49379E-008	0.00000E+000	9.99387E-002	0.00000E+000	9	...........	1426.04
	46	-0.03	9.99540E-002	-2.45904E-006	0.00000E+000	9.99387E-002	0.00000E+000	9	...........	1426.04
	47	-0.02	9.99511E-002	-1.01890E-007	0.00000E+000	9.99387E-002	0.00000E+000	9	...........	1426.04
	48	-0.01	9.99555E-002	-2.45599E-006	0.00000E+000	9.99387E-002	0.00000E+000	9	...........	1426.04
	49	0	9.99500E-002	-1.13846E-007	0.00000E+000	9.99387E-002	0.00000E+000	9	...........	1426.04
	50	0.01	-8.77279E-005	-1.62341E-004	0.00000E+000	-6.08154E-005	0.00000E+000	9	...........	1426.04
	51	0.02	-6.38723E-005	-4.20404E-005	0.00000E+000	-6.08154E-005	0.00000E+000	9	...........	1426.04
	52	0.03	-5.23498E-005	-2.12248E-005	0.00000E+000	-6.08154E-005	0.00000E+000	9	...........	1426.04
	53	0.04	-5.76063E-005	-1.25670E-005	0.00000E+000	-6.08154E-005	0.00000E+000	9	...........	1426.04
	54	0.05	-5.33761E-005	-1.22188E-005	0.00000E+000	-6.08154E-005	0.00000E+000	9	...........	1426.04
	55	0.06	-5.72058E-005	-8.76805E-006	0.00000E+000	-6.08154E-005	0.00000E+000	9	...........	1426.04
	56	0.07	-5.15822E-005	-1.01751E-005	0.00000E+000	-6.08154E-005	0.00000E+000	9	...........	1426.04
	57	0.08	-5.71390E-005	-7.49257E-006	0.00000E+000	-6.08154E-005	0.00000E+000	9	...........	1426.04
	58	0.09	-5.42188E-005	-9.29026E-006	0.00000E+000	-6.08154E-005	0.00000E+000	9	...........	1426.04
	59	0.1	-5.51783E-005	-6.80436E-006	0.00000E+000	-6.08154E-005	0.00000E+000	9	...........	1426.04
	60	0.11	-4.99135E-005	-8.75693E-006	0.00000E+000	-6.08154E-005	0.00000E+000	9	...........	1426.04
	61	0.12	-5.57039E-005	-6.40784E-006	0.00000E+000	-6.08154E-005	0.00000E+000	9	...........	1426.04
	62	0.13	-5.27002E-005	-8.45106E-006	0.00000E+000	-6.08154E-005	0.00000E+000	9	...........	1426.04
	63	0.14	-5.78065E-005	-6.13812E-006	0.00000E+000	-6.08154E-005	0.00000E+000	9	...........	1426.04
	64	0.15	-5.19743E-005	-8.21192E-006	0.00000E+000	-6.08154E-005	0.00000E+000	9	...........	1426.04
	65	0.16	-5.66301E-005	-5.91205E-006	0.00000E+000	-6.08154E-005	0.00000E+000	9	...........	1426.04
	66	0.17	-5.51115E-005	-8.04759E-006	0.00000E+000	-6.08154E-005	0.00000E+000	9	...........	1426.04
	67	0.18	-5.87994E-005	-5.79499E-006	0.00000E+000	-6.08154E-005	0.00000E+000	9	...........	1426.04
	68	0.19	-5.23581E-005	-7.90800E-006	0.00000E+000	-6.08154E-005	0.00000E+000	9	...........	1426.04
	69	0.2	-5.76230E-005	-5.63482E-006	0.00000E+000	-6.08154E-005	0.00000E+000	9	...........	1426.04
	70	0.21	-5.21078E-005	-7.81318E-006	0.00000E+000	-6.08154E-005	0.00000E+000	9	...........	1426.04
	71	0.22	-5.29839E-005	-5.50997E-006	0.00000E+000	-6.08154E-005	0.00000E+000	9	...........	1426.04
	72	0.23	-5.43523E-005	-7.71391E-006	0.00000E+000	-6.08154E-005	0.00000E+000	9	...........	1426.04
	73	0.24	-5.64382E-005	-5.44713E-006	0.00000E+000	-6.08154E-005	0.00000E+000	9	...........	1426.04
	74	0.25	-5.08146E-005	-7.63272E-006	0.00000E+000	-6.08154E-005	0.00000E+000	9	...........	1426.04
	75	0.26	-5.57123E-005	-5.39068E-006	0.00000E+000	-6.08154E-005	0.00000E+000	9	...........	1426.04
	76	0.27	-5.35513E-005	-7.58072E-006	0.00000E+000	-6.08154E-005	0.00000E+000	9	...........	1426.04
	77	0.28	-5.77231E-005	-5.31894E-006	0.00000E+000	-6.08154E-005	0.00000E+000	9	...........	1426.04
	78	0.29	-5.29505E-005	-7.50953E-006	0.00000E+000	-6.08154E-005	0.00000E+000	9	...........	1426.04
	79	0.3	-5.58207E-005	-5.27361E-006	0.00000E+000	-6.08154E-005	0.00000E+000	9	...........	1426.04
	80	0.31	-5.20745E-005	-7.48395E-006	0.00000E+000	-6.08154E-005	0.00000E+000	9	...........	1426.04
	81	0.32	-5.85157E-005	-5.22551E-006	0.00000E+000	-6.08154E-005	0.00000E+000	9	...........	1426.04
	82	0.33	-5.16323E-005	-7.44280E-006	0.00000E+000	-6.08154E-005	0.00000E+000	9	...........	1426.04
	83	0.34	-5.33093E-005	-5.15294E-006	0.00000E+000	-6.08154E-005	0.00000E+000	9	...........	1426.04
	84	0.35	-5.04141E-005	-7.43028E-006	0.00000E+000	-6.08154E-005	0.00000E+000	9	...........	1426.04
	85	0.36	-5.73560E-005	-5.12012E-006	0.00000E+000	-6.08154E-005	0.00000E+000	9	...........	1426.04
	86	0.37	-5.26502E-005	-7.39664E-006	0.00000E+000	-6.08154E-005	0.00000E+000	9	...........	1426.04
	87	0.38	-5.54536E-005	-5.07257E-006	0.00000E+000	-6.08154E-005	0.00000E+000	9	...........	1426.04
	88	0.39	-5.25000E-005	-7.35910E-006	0.00000E+000	-6.08154E-005	0.00000E+000	9	...........	1426.04
	89	0.4	-5.65800E-005	-5.06312E-006	0.00000E+000	-6.08154E-005	0.00000E+000	9	...........	1426.04
	90	0.41	-5.25417E-005	-7.34297E-006	0.00000E+000	-6.08154E-005	0.00000E+000	9	...........	1426.04
	91	0.42	-5.58207E-005	-5.04199E-006	0.00000E+000	-6.08154E-005	0.00000E+000	9	...........	1426.04
	92	0.43	-4.98050E-005	-7.31656E-006	0.00000E+000	-6.08154E-005	0.00000E+000	9	...........	1426.04
	93	0.44	-5.57623E-005	-4.99805E-006	0.00000E+000	-6.08154E-005	0.00000E+000	9	...........	1426.04
	94	0.45	-5.33260E-005	-7.29820E-006	0.00000E+000	-6.08154E-005	0.00000E+000	9	...........	1426.04
	95	0.46	-5.51533E-005	-4.97998E-006	0.00000E+000	-6.08154E-005	0.00000E+000	9	...........	1426.04
	96	0.47	-5.15655E-005	-7.28208E-006	0.00000E+000	-6.08154E-005	0.00000E+000	9	...........	1426.04
	97	0.48	-5.50782E-005	-4.97275E-006	0.00000E+000	-6.08154E-005	0.00000E+000	9	...........	1426.04
	98	0.49	-5.43022E-005	-7.28958E-006	0.00000E+000	-6.08154E-005	0.00000E+000	9	...........	1426.04
	99	0.5	-5.65884E-005	-4.93716E-006	0.00000E+000	-6.08154E-005	0.00000E+000	9	...........	1426.04
	100	0.51	-5.43606E-005	-7.26094E-006	0.00000E+000	-6.08154E-005	0.00000E+000	9	...........	1426.04
	101	0.52	-5.27419E-005	-4.90629E-006	0.00000E+000	-6.08154E-005	0.00000E+000	9	...........	1426.04
	102	0.53	-5.32342E-005	-7.24315E-006	0.00000E+000	-6.08154E-005	0.00000E+000	9	...........	1426.04
	103	0.54	-5.68220E-005	-4.91297E-006	0.00000E+000	-6.08154E-005	0.00000E+000	9	...........	1426.04
	104	0.55	-5.08480E-005	-7.21757E-006	0.00000E+000	-6.08154E-005	0.00000E+000	9	...........	1426.04
	105	0.56	-5.73142E-005	-4.86152E-006	0.00000E+000	-6.08154E-005	0.00000E+000	9	...........	1426.04
	106	0.57	-5.39935E-005	-7.21729E-006	0.00000E+000	-6.08154E-005	0.00000E+000	9	...........	1426.04
	107	0.58	-5.73810E-005	-4.88210E-006	0.00000E+000	-6.08154E-005	0.00000E+000	9	...........	1426.04
	108	0.59	-5.06811E-005	-7.21590E-006	0.00000E+000	-6.08154E-005	0.00000E+000	9	...........	1426.04
	109	0.6	-5.26168E-005	-4.83316E-006	0.00000E+000	-6.08154E-005	0.00000E+000	9	...........	1426.04
	110	0.61	-4.98968E-005	-7.19032E-006	0.00000E+000	-6.08154E-005	0.00000E+000	9	...........	1426.04
	111	0.71	-5.27336E-005	-7.18976E-006	0.00000E+000	-6.08154E-005	0.00000E+000	9	...........	1426.04
	112	0.81	-5.07562E-005	-7.17752E-006	0.00000E+000	-6.08154E-005	0.00000E+000	9	...........	1426.04
	113	0.91	-5.38934E-005	-7.19032E-006	0.00000E+000	-6.08154E-005	0.00000E+000	9	...........	1426.04
	114	1.01	-5.18909E-005	-7.14026E-006	0.00000E+000	-6.08154E-005	0.00000E+000	9	...........	1426.04
	115	1.11	-4.96882E-005	-7.12525E-006	0.00000E+000	-6.08154E-005	0.00000E+000	9	...........	1425.87
	116	1.21	-5.11066E-005	-7.12274E-006	0.00000E+000	-6.08154E-005	0.00000E+000	9	...........	1425.87
	117	1.31	-5.13569E-005	-7.13693E-006	0.00000E+000	-6.08154E-005	0.00000E+000	9	...........	1425.87
	118	1.41	-4.83449E-005	-7.15361E-006	0.00000E+000	-6.08154E-005	0.00000E+000	9	...........	1425.87
	119	1.51	-4.81279E-005	-7.15278E-006	0.00000E+000	-6.08154E-005	0.00000E+000	9	...........	1425.87
	120	1.61	-5.35680E-005	-7.16724E-006	0.00000E+000	-6.08154E-005	0.00000E+000	9	...........	1425.87
	121	2.61	-4.96214E-005	-7.22646E-006	0.00000E+000	-6.08154E-005	0.00000E+000	9	...........	1426.31
	122	3.61	-5.46860E-005	-7.17280E-006	0.00000E+000	-6.08154E-005	0.00000E+000	9	...........	1426.40
	123	4.61	-5.28087E-005	-7.08103E-006	0.00000E+000	-6.08154E-005	0.00000E+000	9	...........	1426.40
	124	5.61	-5.07228E-005	-6.88305E-006	0.00000E+000	-6.08154E-005	0.00000E+000	9	...........	1426.40
	125	6.61	-5.37265E-005	-6.65782E-006	0.00000E+000	-6.08154E-005	0.00000E+000	9	...........	1426.40
	126	7.61	-5.69972E-005	-6.44788E-006	0.00000E+000	-6.08154E-005	0.00000E+000	9	...........	1426.40
	127	8.61	-5.27336E-005	-6.13728E-006	0.00000E+000	-6.08154E-005	0.00000E+000	9	...........	1426.40
	128	9.61	-5.12067E-005	-5.88480E-006	0.00000E+000	-6.08154E-005	0.00000E+000	9	...........	1426.40
	129	10.61	-5.31508E-005	-5.51414E-006	0.00000E+000	-6.08154E-005	0.00000E+000	9	...........	1426.40
	130	11.61	-5.15488E-005	-5.13848E-006	0.00000E+000	-6.08154E-005	0.00000E+000	9	...........	1426.31
	131	21.61	-5.31758E-005	-3.58821E-007	0.00000E+000	-6.08154E-005	0.00000E+000	9	...........	1426.40
	132	31.61	-5.51866E-005	-7.96444E-008	0.00000E+000	-6.08154E-005	0.00000E+000	9	...........	1426.40
	133	41.61	-5.45859E-005	-3.42415E-007	0.00000E+000	-6.08154E-005	0.00000E+000	9	...........	1426.49
	134	51.61	-5.92333E-005	6.90317E-007	0.00000E+000	-6.08154E-005	0.00000E+000	9	...........	1426.40
	135	60	-5.68720E-005	-2.54997E-006	0.00000E+000	-6.08154E-005	0.00000E+000	9	...........	1426.40
	136	60.01	3.26887E-002	1.70292E-004	0.00000E+000	9.99387E-002	0.00000E+000	9	.........v.	1426.40
	137	60.02	9.88714E-002	3.90744E-005	0.00000E+000	9.99387E-002	0.00000E+000	9	...........	1426.40
	138	60.03	9.97767E-002	1.84406E-005	0.00000E+000	9.99387E-002	0.00000E+000	9	...........	1426.40
	139	60.04	9.99255E-002	9.25109E-006	0.00000E+000	9.99387E-002	0.00000E+000	9	...........	1426.40
	140	60.05	9.99430E-002	9.23552E-006	0.00000E+000	9.99387E-002	0.00000E+000	9	...........	1426.40
	141	60.06	9.99514E-002	5.10376E-006	0.00000E+000	9.99387E-002	0.00000E+000	9	...........	1426.40
	142	60.07	9.99501E-002	6.82053E-006	0.00000E+000	9.99387E-002	0.00000E+000	9	...........	1426.40
	143	60.08	9.99530E-002	3.48904E-006	0.00000E+000	9.99387E-002	0.00000E+000	9	...........	1426.40
	144	60.09	9.99469E-002	5.64070E-006	0.00000E+000	9.99387E-002	0.00000E+000	9	...........	1426.40
	145	60.1	9.99532E-002	2.59506E-006	0.00000E+000	9.99387E-002	0.00000E+000	9	...........	1426.40
	146	60.11	9.99490E-002	4.92107E-006	0.00000E+000	9.99387E-002	0.00000E+000	9	...........	1426.40
	147	60.12	9.99525E-002	1.99194E-006	0.00000E+000	9.99387E-002	0.00000E+000	9	...........	1426.40
	148	60.13	9.99484E-002	4.42473E-006	0.00000E+000	9.99387E-002	0.00000E+000	9	...........	1426.40
	149	60.14	9.99535E-002	1.55454E-006	0.00000E+000	9.99387E-002	0.00000E+000	9	...........	1426.40
	150	60.15	9.99493E-002	4.04962E-006	0.00000E+000	9.99387E-002	0.00000E+000	9	...........	1426.40
	151	60.16	9.99490E-002	1.21169E-006	0.00000E+000	9.99387E-002	0.00000E+000	9	...........	1426.40
	152	60.17	9.99493E-002	3.75959E-006	0.00000E+000	9.99387E-002	0.00000E+000	9	...........	1426.40
	153	60.18	9.99477E-002	9.54478E-007	0.00000E+000	9.99387E-002	0.00000E+000	9	...........	1426.40
	154	60.19	9.99510E-002	3.54104E-006	0.00000E+000	9.99387E-002	0.00000E+000	9	...........	1426.40
	155	60.2	9.99533E-002	7.71790E-007	0.00000E+000	9.99387E-002	0.00000E+000	9	...........	1426.40
	156	60.21	9.99491E-002	3.34806E-006	0.00000E+000	9.99387E-002	0.00000E+000	9	...........	1426.40
	157	60.22	9.99530E-002	5.90491E-007	0.00000E+000	9.99387E-002	0.00000E+000	9	...........	1426.40
	158	60.23	9.99488E-002	3.17983E-006	0.00000E+000	9.99387E-002	0.00000E+000	9	...........	1426.40
	159	60.24	9.99514E-002	4.39224E-007	0.00000E+000	9.99387E-002	0.00000E+000	9	...........	1426.40
	160	60.25	9.99484E-002	3.04469E-006	0.00000E+000	9.99387E-002	0.00000E+000	9	...........	1426.40
	161	60.26	9.99522E-002	3.09368E-007	0.00000E+000	9.99387E-002	0.00000E+000	9	...........	1426.40
	162	60.27	9.99504E-002	2.94681E-006	0.00000E+000	9.99387E-002	0.00000E+000	9	...........	1426.40
	163	60.28	9.99514E-002	1.87576E-007	0.00000E+000	9.99387E-002	0.00000E+000	9	...........	1426.40
	164	60.29	9.99500E-002	2.82474E-006	0.00000E+000	9.99387E-002	0.00000E+000	9	...........	1426.40
	165	60.3	9.99514E-002	9.55364E-008	0.00000E+000	9.99387E-002	0.00000E+000	9	...........	1426.40
	166	60.31	9.99493E-002	2.73715E-006	0.00000E+000	9.99387E-002	0.00000E+000	9	...........	1426.40
	167	60.32	9.99474E-002	-2.34238E-009	0.00000E+000	9.99387E-002	0.00000E+000	9	...........	1426.40
	168	60.33	9.99475E-002	2.63176E-006	0.00000E+000	9.99387E-002	0.00000E+000	9	...........	1426.40
	169	60.34	9.99505E-002	-6.76876E-008	0.00000E+000	9.99387E-002	0.00000E+000	9	...........	1426.40
	170	60.35	9.99460E-002	2.57476E-006	0.00000E+000	9.99387E-002	0.00000E+000	9	...........	1426.40
	171	60.36	9.99479E-002	-1.58059E-007	0.00000E+000	9.99387E-002	0.00000E+000	9	...........	1426.40
	172	60.37	9.99479E-002	2.51692E-006	0.00000E+000	9.99387E-002	0.00000E+000	9	...........	1426.40
	173	60.38	9.99492E-002	-2.07276E-007	0.00000E+000	9.99387E-002	0.00000E+000	9	...........	1426.40
	174	60.39	9.99496E-002	2.43934E-006	0.00000E+000	9.99387E-002	0.00000E+000	9	...........	1426.40
	175	60.4	9.99512E-002	-2.53157E-007	0.00000E+000	9.99387E-002	0.00000E+000	9	...........	1426.40
	176	60.41	9.99473E-002	2.39402E-006	0.00000E+000	9.99387E-002	0.00000E+000	9	...........	1426.40
	177	60.42	9.99503E-002	-3.24341E-007	0.00000E+000	9.99387E-002	0.00000E+000	9	...........	1426.40
	178	60.43	9.99465E-002	2.34035E-006	0.00000E+000	9.99387E-002	0.00000E+000	9	...........	1426.40
	179	60.44	9.99509E-002	-3.64105E-007	0.00000E+000	9.99387E-002	0.00000E+000	9	...........	1426.40
	180	60.45	9.99473E-002	2.31171E-006	0.00000E+000	9.99387E-002	0.00000E+000	9	...........	1426.40
	181	60.46	9.99532E-002	-4.31674E-007	0.00000E+000	9.99387E-002	0.00000E+000	9	...........	1426.40
	182	60.47	9.99467E-002	2.24859E-006	0.00000E+000	9.99387E-002	0.00000E+000	9	...........	1426.40
	183	60.48	9.99519E-002	-4.77277E-007	0.00000E+000	9.99387E-002	0.00000E+000	9	...........	1426.40
	184	60.49	9.99480E-002	2.20799E-006	0.00000E+000	9.99387E-002	0.00000E+000	9	...........	1426.40
	185	60.5	9.99454E-002	-5.27050E-007	0.00000E+000	9.99387E-002	0.00000E+000	9	...........	1426.40
	186	60.51	9.99457E-002	2.17324E-006	0.00000E+000	9.99387E-002	0.00000E+000	9	...........	1426.40
	187	60.52	9.99500E-002	-5.63477E-007	0.00000E+000	9.99387E-002	0.00000E+000	9	...........	1426.40
	188	60.53	9.99483E-002	2.12708E-006	0.00000E+000	9.99387E-002	0.00000E+000	9	...........	1426.40
	189	60.54	9.99525E-002	-5.85722E-007	0.00000E+000	9.99387E-002	0.00000E+000	9	...........	1426.40
	190	60.55	9.99505E-002	2.10372E-006	0.00000E+000	9.99387E-002	0.00000E+000	9	...........	1426.40
	191	60.56	9.99528E-002	-6.22705E-007	0.00000E+000	9.99387E-002	0.00000E+000	9	...........	1426.40
	192	60.57	9.99492E-002	2.07119E-006	0.00000E+000	9.99387E-002	0.00000E+000	9	...........	1426.40
	193	60.58	9.99526E-002	-6.57185E-007	0.00000E+000	9.99387E-002	0.00000E+000	9	...........	1426.40
	194	60.59	9.99501E-002	2.05840E-006	0.00000E+000	9.99387E-002	0.00000E+000	9	...........	1426.40
	195	60.6	9.99484E-002	-6.91943E-007	0.00000E+000	9.99387E-002	0.00000E+000	9	...........	1426.40
	196	60.61	9.99457E-002	2.00362E-006	0.00000E+000	9.99387E-002	0.00000E+000	9	...........	1426.40
	197	60.71	9.99477E-002	1.87070E-006	0.00000E+000	9.99387E-002	0.00000E+000	9	...........	1426.40
	198	60.81	9.99530E-002	1.82621E-006	0.00000E+000	9.99387E-002	0.00000E+000	9	...........	1426.40
	199	60.91	9.99452E-002	1.72082E-006	0.00000E+000	9.99387E-002	0.00000E+000	9	...........	1426.40
	200	61	9.99500E-002	-1.09625E-006	0.00000E+000	9.99387E-002	0.00000E+000	9	...........	1426.40
