#Wave		#Intensity
2001.221680	38753.218750
2000.251953	38906.117188
1999.282227	38861.734375
1998.312500	38709.625000
1997.342773	38783.031250
1996.372070	38956.605469
1995.402344	38914.742188
1994.431641	38750.203125
1993.460938	39271.664063
1992.490234	38664.082031
1991.518555	38985.167969
1990.547852	39286.125000
1989.576172	38751.402344
1988.604492	39252.390625
1987.632813	38810.390625
1986.661133	38886.125000
1985.689453	38796.835938
1984.716797	39035.011719
1983.745117	39340.578125
1982.772461	39313.714844
1981.799805	39311.839844
1980.827148	39182.582031
1979.853516	38793.644531
1978.880859	38552.156250
1977.907227	39009.761719
1976.933594	38920.574219
1975.959961	38858.871094
1974.986328	39301.207031
1974.011719	39129.683594
1973.038086	39574.312500
1972.063477	38968.871094
1971.088867	39398.406250
1970.114258	38905.386719
1969.138672	39347.242188
1968.164063	39048.785156
1967.188477	39378.335938
1966.212891	39084.957031
1965.237305	39444.269531
1964.261719	39225.691406
1963.286133	39271.121094
1962.309570	39555.523438
1961.333984	39735.285156
1960.357422	39494.402344
1959.380859	39701.480469
1958.404297	39468.148438
1957.426758	39486.117188
1956.450195	39389.683594
1955.472656	39845.269531
1954.495117	39900.449219
1953.517578	39406.296875
1952.540039	39789.566406
1951.561523	39573.890625
1950.583008	39571.933594
1949.605469	39440.816406
1948.626953	39610.234375
1947.647461	39062.015625
1946.668945	39536.789063
1945.690430	39517.460938
1944.710938	39106.031250
1943.731445	39975.058594
1942.751953	40211.179688
1941.772461	39765.117188
1940.791992	39683.753906
1939.812500	39547.875000
1938.832031	40076.425781
1937.851563	39955.390625
1936.871094	39673.316406
1935.890625	39733.265625
1934.909180	40011.199219
1933.928711	39565.785156
1932.947266	39739.632813
1931.965820	39888.664063
1930.984375	39834.640625
1930.002930	39956.371094
1929.020508	39753.867188
1928.038086	39739.480469
1927.056641	39618.718750
1926.074219	39574.675781
1925.090820	40215.664063
1924.108398	39785.812500
1923.125000	40228.765625
1922.142578	40070.941406
1921.159180	39928.000000
1920.175781	40064.308594
1919.191406	40027.644531
1918.208008	39778.570313
1917.223633	39929.648438
1916.240234	39784.378906
1915.255859	40031.675781
1914.271484	39837.074219
1913.286133	40081.804688
1912.301758	39754.019531
1911.316406	39808.722656
1910.331055	40137.183594
1909.345703	40490.191406
1908.360352	40162.558594
1907.375000	40160.445313
1906.388672	40569.945313
1905.402344	40010.820313
1904.416016	40001.339844
1903.429688	40164.300781
1902.443359	40073.511719
1901.457031	40344.753906
1900.469727	39857.554688
1899.482422	40461.070313
1898.495117	39604.824219
1897.507813	40048.214844
1896.520508	40196.195313
1895.532227	40194.058594
1894.543945	40423.125000
1893.556641	40125.851563
1892.568359	40290.917969
1891.579102	40433.800781
1890.590820	40443.910156
1889.601563	40269.707031
1888.613281	40746.664063
1887.624023	39990.261719
1886.634766	40943.585938
1885.644531	40253.714844
1884.655273	40759.796875
1883.665039	40244.488281
1882.674805	40571.218750
1881.684570	40173.914063
1880.694336	39936.226563
1879.704102	40802.519531
1878.712891	40299.910156
1877.722656	40457.132813
1876.731445	40391.183594
1875.740234	40357.121094
1874.748047	40416.207031
1873.756836	40178.757813
1872.764648	40580.867188
1871.773438	40642.328125
1870.781250	40515.171875
1869.788086	40439.488281
1868.795898	40141.023438
1867.803711	40153.554688
1866.810547	40655.578125
1865.817383	40883.355469
1864.824219	40929.996094
1863.831055	40081.300781
1862.837891	40695.484375
1861.843750	40458.468750
1860.849609	40282.656250
1859.855469	40850.031250
1858.861328	40420.023438
1857.867188	40327.390625
1856.872070	40400.925781
1855.877930	40540.390625
1854.882813	40516.164063
1853.887695	40655.554688
1852.892578	40560.511719
1851.896484	40375.179688
1850.901367	40387.601563
1849.905273	40719.687500
1848.909180	40319.718750
1847.913086	40941.980469
1846.916992	40881.121094
1845.919922	40734.933594
1844.923828	40956.945313
1843.926758	40813.230469
1842.929688	40866.980469
1841.932617	40876.843750
1840.935547	40932.996094
1839.937500	41296.050781
1838.939453	40930.769531
1837.942383	40850.511719
1836.943359	40733.765625
1835.945313	41086.855469
1834.947266	41067.453125
1833.948242	41091.859375
1832.949219	41082.191406
1831.951172	41057.929688
1830.951172	41425.238281
1829.952148	41155.328125
1828.953125	41184.550781
1827.953125	41369.328125
1826.953125	40815.214844
1825.953125	41308.589844
1824.953125	41162.835938
1823.952148	41000.125000
1822.952148	41415.484375
1821.951172	41039.101563
1820.950195	41842.750000
1819.949219	41264.953125
1818.948242	41442.128906
1817.946289	41446.960938
1816.945313	41825.402344
1815.943359	41582.746094
1814.941406	41718.507813
1813.939453	41713.578125
1812.936523	40988.617188
1811.934570	40688.097656
1810.931641	41507.343750
1809.928711	41846.527344
1808.925781	41734.976563
1807.921875	41415.152344
1806.918945	42030.253906
1805.915039	41570.046875
1804.912109	41928.281250
1803.908203	41676.417969
1802.903320	42114.363281
1801.899414	41693.175781
1800.894531	41922.910156
1799.890625	42123.535156
1798.885742	42065.320313
1797.880859	42140.109375
1796.875000	42130.261719
1795.870117	42243.683594
1794.864258	42064.648438
1793.858398	42062.062500
1792.852539	42574.042969
1791.846680	42148.667969
1790.840820	42607.320313
1789.833984	42266.597656
1788.828125	42493.308594
1787.821289	42319.265625
1786.814453	42502.445313
1785.806641	42591.457031
1784.799805	42489.859375
1783.791992	42750.089844
1782.784180	42930.644531
1781.776367	43103.902344
1780.768555	42985.402344
1779.760742	42717.503906
1778.751953	43158.195313
1777.743164	43061.425781
1776.735352	42817.742188
1775.725586	43296.714844
1774.716797	43072.335938
1773.708008	43214.007813
1772.698242	43151.011719
1771.688477	42755.882813
1770.678711	43282.562500
1769.668945	43371.160156
1768.659180	43572.789063
1767.648438	43351.031250
1766.637695	43492.464844
1765.626953	43580.957031
1764.616211	43212.671875
1763.605469	43685.734375
1762.593750	43973.589844
1761.583008	43619.839844
1760.571289	43458.390625
1759.559570	44111.203125
1758.547852	44101.007813
1757.535156	44013.980469
1756.523438	44186.242188
1755.510742	44152.031250
1754.498047	44302.605469
1753.485352	44395.539063
1752.472656	45052.164063
1751.458984	44535.742188
1750.445313	44539.855469
1749.432617	44970.734375
1748.417969	44888.468750
1747.404297	44818.218750
1746.390625	45028.355469
1745.375977	45221.644531
1744.361328	45180.109375
1743.346680	45215.226563
1742.332031	45324.566406
1741.317383	45175.292969
1740.302734	45279.808594
1739.287109	45460.871094
1738.271484	45735.187500
1737.255859	46050.078125
1736.240234	46070.636719
1735.223633	46447.531250
1734.208008	46692.781250
1733.191406	47002.492188
1732.174805	47333.601563
1731.158203	47497.300781
1730.140625	47773.242188
1729.124023	47580.828125
1728.106445	48016.695313
1727.088867	48053.574219
1726.071289	48357.871094
1725.053711	48996.289063
1724.035156	49235.859375
1723.017578	48947.917969
1721.999023	49397.386719
1720.980469	49305.140625
1719.961914	49728.144531
1718.942383	49497.546875
1717.923828	49548.390625
1716.904297	49720.800781
1715.884766	49914.597656
1714.865234	50313.277344
1713.844727	50001.757813
1712.825195	49973.843750
1711.804688	50034.066406
1710.784180	49875.167969
1709.763672	49983.003906
1708.743164	49845.593750
1707.722656	49555.898438
1706.701172	49704.183594
1705.679688	49414.609375
1704.658203	49667.535156
1703.636719	49803.824219
1702.615234	49526.269531
1701.592773	48984.894531
1700.571289	48940.550781
1699.548828	49133.906250
1698.526367	49191.738281
1697.502930	48867.007813
1696.480469	49003.253906
1695.457031	49246.332031
1694.433594	48952.632813
1693.410156	48939.207031
1692.386719	49229.636719
1691.363281	49023.910156
1690.338867	48640.273438
1689.314453	48774.003906
1688.290039	48587.437500
1687.265625	49119.585938
1686.241211	49355.125000
1685.215820	49298.949219
1684.191406	49231.070313
1683.166016	49163.128906
1682.140625	49095.187500
1681.115234	49027.246094
1680.088867	48959.238281
1679.062500	48891.230469
1678.037109	49540.855469
1677.010742	49240.851563
1675.983398	49575.351563
1674.957031	49694.355469
1673.930664	49794.386719
1672.903320	49548.957031
1671.875977	49710.476563
1670.848633	49782.062500
1669.820313	50217.777344
1668.792969	50171.031250
1667.764648	50334.679688
1666.736328	50169.761719
1665.708008	50073.421875
1664.679688	50244.082031
1663.651367	50731.207031
1662.622070	50370.300781
1661.592773	50361.355469
1660.563477	50857.636719
1659.534180	50799.031250
1658.504883	50870.250000
1657.474609	51281.222656
1656.444336	50920.593750
1655.415039	51326.687500
1654.383789	50926.082031
1653.353516	51386.261719
1652.323242	51735.472656
1651.291992	52013.843750
1650.260742	51516.769531
1649.229492	51684.332031
1648.198242	51776.445313
1647.166016	51637.695313
1646.134766	51953.503906
1645.102539	52184.437500
1644.070313	52285.804688
1643.038086	52483.640625
1642.004883	52486.074219
1640.972656	52646.152344
1639.939453	52730.890625
1638.906250	53020.226563
1637.873047	53401.167969
1636.839844	53535.097656
1635.805664	53504.417969
1634.772461	53668.832031
1633.738281	54253.828125
1632.704102	53955.183594
1631.668945	54114.722656
1630.634766	54767.437500
1629.599609	54807.007813
1628.565430	54757.343750
1627.530273	55402.542969
1626.494141	55561.671875
1625.458984	55734.824219
1624.422852	56478.039063
1623.387695	56826.894531
1622.351563	57126.371094
1621.315430	57660.234375
1620.278320	58653.433594
1619.242188	59383.738281
1618.205078	60842.671875
1617.167969	62317.488281
1616.130859	64021.378906
1615.093750	65354.550781
1614.055664	66462.406250
1613.018555	68457.343750
1611.980469	70034.835938
1610.942383	69867.867188
1609.904297	70529.453125
1608.865234	69985.726563
1607.827148	69421.125000
1606.788086	67991.257813
1605.749023	66674.148438
1604.709961	65177.457031
1603.669922	63375.035156
1602.630859	62713.933594
1601.590820	61258.468750
1600.550781	60455.441406
1599.510742	60232.074219
1598.470703	59312.718750
1597.429688	59362.867188
1596.389648	59163.156250
1595.348633	59663.878906
1594.307617	58577.210938
1593.265625	58319.398438
1592.224609	58043.007813
1591.182617	57468.105469
1590.140625	58334.863281
1589.098633	58086.597656
1588.056641	57731.160156
1587.014648	57207.996094
1585.971680	58029.890625
1584.928711	58052.171875
1583.886719	57676.011719
1582.842773	57761.238281
1581.799805	57811.496094
1580.755859	57570.640625
1579.712891	57662.816406
1578.668945	57820.140625
1577.625000	57807.496094
1576.580078	57599.386719
1575.536133	58033.500000
1574.491211	57723.062500
1573.446289	58175.597656
1572.401367	58481.472656
1571.356445	58508.238281
1570.311523	58372.269531
1569.265625	58392.066406
1568.219727	58558.250000
1567.173828	58457.187500
1566.127930	58228.398438
1565.082031	58150.652344
1564.035156	58163.492188
1562.988281	58148.464844
1561.941406	57648.300781
1560.894531	57273.636719
1559.847656	56915.347656
1558.799805	56960.863281
1557.751953	57495.796875
1556.704102	57128.375000
1555.656250	57517.000000
1554.608398	57817.386719
1553.560547	57331.882813
1552.511719	57458.378906
1551.462891	57559.335938
1550.414063	58105.058594
1549.365234	58249.871094
1548.315430	57799.449219
1547.265625	58027.613281
1546.216797	58061.230469
1545.166992	58212.882813
1544.116211	58160.824219
1543.066406	58629.386719
1542.015625	58873.378906
1540.965820	58254.546875
1539.915039	58188.632813
1538.863281	58411.757813
1537.812500	57326.359375
1536.760742	57926.300781
1535.709961	57909.011719
1534.658203	58021.117188
1533.605469	57504.835938
1532.553711	57596.175781
1531.501953	56756.855469
1530.449219	56465.027344
1529.396484	56741.175781
1528.343750	55971.691406
1527.290039	56185.515625
1526.237305	56288.519531
1525.183594	56024.707031
1524.129883	55617.988281
1523.076172	56115.347656
1522.022461	55637.285156
1520.968750	55470.582031
1519.914063	55732.613281
1518.859375	55531.382813
1517.804688	54973.121094
1516.750000	54905.699219
1515.694336	54985.691406
1514.639648	54752.492188
1513.583984	54487.144531
1512.528320	54304.753906
1511.472656	54159.250000
1510.416016	54434.878906
1509.360352	54038.636719
1508.303711	54314.183594
1507.247070	54042.285156
1506.190430	54384.410156
1505.132813	54317.199219
1504.076172	54116.695313
1503.018555	54617.187500
1501.960938	54072.039063
1500.903320	53972.757813
1499.844727	54275.468750
1498.787109	53693.925781
1497.728516	53436.332031
1496.669922	53644.847656
1495.611328	53419.484375
1494.552734	54004.273438
1493.493164	53843.164063
1492.434570	54150.089844
1491.375000	53335.335938
1490.315430	54045.839844
1489.254883	53978.832031
1488.195313	54338.230469
1487.134766	54202.433594
1486.074219	54412.707031
1485.013672	54008.878906
1483.953125	54148.093750
1482.892578	53847.519531
1481.831055	54719.476563
1480.769531	54471.558594
1479.708008	54642.628906
1478.646484	54440.582031
1477.583984	54163.093750
1476.522461	54702.464844
1475.459961	54619.457031
1474.397461	54058.488281
1473.334961	54243.156250
1472.271484	54816.410156
1471.208984	54271.699219
1470.145508	54506.500000
1469.082031	54373.332031
1468.018555	54151.113281
1466.954102	54794.667969
1465.890625	54764.281250
1464.826172	54932.554688
1463.761719	54993.468750
1462.697266	54474.597656
1461.631836	55124.351563
1460.567383	55552.542969
1459.501953	55606.449219
1458.436523	55197.312500
1457.371094	55374.402344
1456.305664	55122.777344
1455.239258	55377.320313
1454.172852	55565.671875
1453.107422	55414.410156
1452.040039	55418.128906
1450.973633	55419.566406
1449.907227	55598.656250
1448.839844	55363.230469
1447.772461	55248.554688
1446.705078	55404.808594
1445.637695	56013.917969
1444.569336	55824.089844
1443.500977	55955.121094
1442.432617	55519.691406
1441.364258	55969.132813
1440.295898	55836.285156
1439.227539	56406.000000
1438.158203	56061.714844
1437.088867	56617.546875
1436.019531	56550.562500
1434.950195	56574.476563
1433.879883	56950.460938
1432.810547	56928.871094
1431.740234	57202.468750
1430.669922	56935.648438
1429.598633	56764.253906
1428.528320	57103.542969
1427.457031	56782.417969
1426.386719	57137.457031
1425.314453	56737.050781
1424.243164	56289.164063
1423.171875	56628.218750
1422.099609	56296.125000
1421.027344	56338.128906
1419.955078	55806.777344
1418.882813	55996.128906
1417.810547	56047.218750
1416.737305	55656.625000
1415.664063	55746.253906
1414.590820	55817.734375
1413.517578	55755.625000
1412.444336	55553.210938
1411.370117	55160.781250
1410.295898	56026.445313
1409.221680	55545.847656
1408.147461	55603.699219
1407.073242	55973.589844
1405.998047	55936.382813
1404.922852	56358.066406
1403.847656	55509.437500
1402.772461	56116.332031
1401.697266	56135.597656
1400.621094	56514.011719
1399.544922	55641.113281
1398.468750	56154.957031
1397.392578	56178.710938
1396.316406	56130.222656
1395.239258	56395.445313
1394.162109	56958.414063
1393.084961	56424.765625
1392.007813	57095.789063
1390.930664	57299.746094
1389.852539	57598.328125
1388.774414	57718.707031
1387.696289	58021.609375
1386.618164	58590.320313
1385.540039	59140.800781
1384.460938	59053.550781
1383.382813	59752.394531
1382.303711	59975.828125
1381.223633	60019.058594
1380.144531	59564.769531
1379.064453	60044.687500
1377.985352	60542.437500
1376.905273	60349.281250
1375.825195	60351.898438
1374.744141	60170.085938
1373.664063	60161.488281
1372.583008	59552.593750
1371.501953	59483.414063
1370.420898	59531.121094
1369.338867	58608.074219
1368.257813	58489.664063
1367.175781	58613.890625
1366.093750	58639.253906
1365.011719	58478.230469
1363.929688	57926.628906
1362.846680	57765.785156
1361.763672	57654.375000
1360.680664	57673.144531
1359.597656	57386.796875
1358.514648	57253.074219
1357.430664	57065.578125
1356.346680	57162.906250
1355.262695	56701.988281
1354.178711	56209.851563
1353.094727	56430.531250
1352.009766	56306.074219
1350.925781	55944.199219
1349.840820	55689.964844
1348.755859	55648.558594
1347.669922	55882.562500
1346.584961	55901.574219
1345.499023	56081.722656
1344.413086	55496.492188
1343.327148	55502.132813
1342.240234	55852.257813
1341.154297	55497.742188
1340.067383	55968.492188
1338.980469	55502.289063
1337.893555	55861.097656
1336.805664	55379.433594
1335.718750	55537.019531
1334.630859	55917.957031
1333.542969	55925.726563
1332.455078	55397.492188
1331.367188	55738.046875
1330.278320	55194.406250
1329.189453	55836.207031
1328.100586	55194.542969
1327.011719	55876.273438
1325.922852	55799.246094
1324.833008	56094.738281
1323.743164	55792.457031
1322.653320	55929.527344
1321.563477	55914.957031
1320.473633	56306.046875
1319.382813	56451.863281
1318.291992	56029.460938
1317.201172	56620.800781
1316.110352	56592.742188
1315.019531	56758.429688
1313.927734	57164.515625
1312.835938	57690.656250
1311.744141	57339.695313
1310.652344	57204.710938
1309.560547	56918.480469
1308.467773	57450.949219
1307.375000	57075.808594
1306.282227	57410.148438
1305.189453	57132.972656
1304.095703	57504.960938
1303.002930	57541.226563
1301.909180	57230.839844
1300.815430	56898.343750
1299.721680	57267.875000
1298.626953	57432.957031
1297.533203	57462.527344
1296.438477	57858.390625
1295.343750	57810.183594
1294.248047	58572.007813
1293.153320	58419.398438
1292.057617	57639.027344
1290.961914	58455.910156
1289.866211	58660.433594
1288.770508	58696.375000
1287.674805	58705.695313
1286.578125	59087.367188
1285.481445	59189.679688
1284.384766	59147.941406
1283.288086	58534.691406
1282.190430	58577.242188
1281.092773	58473.625000
1279.996094	58321.332031
1278.897461	57925.597656
1277.799805	58140.847656
1276.702148	58448.957031
1275.603516	58088.804688
1274.504883	57843.804688
1273.406250	57842.167969
1272.307617	57265.617188
1271.208008	57246.843750
1270.108398	57228.070313
1269.008789	57209.300781
1267.909180	57190.527344
1266.809570	57171.753906
1265.708984	56441.320313
1264.609375	56662.968750
1263.508789	56756.468750
1262.407227	55849.894531
1261.306641	56457.777344
1260.206055	56021.628906
1259.104492	56024.703125
1258.002930	56016.750000
1256.901367	55947.035156
1255.798828	55423.078125
1254.697266	55717.285156
1253.594727	55261.886719
1252.492188	55068.929688
1251.389648	54851.800781
1250.286133	55357.394531
1249.183594	54730.566406
1248.080078	54885.812500
1246.976563	54433.250000
1245.872070	55061.832031
1244.768555	54690.839844
1243.664063	54841.570313
1242.560547	54961.437500
1241.455078	54676.460938
1240.350586	54864.500000
1239.246094	54977.691406
1238.140625	54503.761719
1237.035156	55030.273438
1235.929688	54723.550781
1234.824219	54452.097656
1233.717773	54723.449219
1232.612305	54920.011719
1231.505859	54418.039063
1230.399414	54337.882813
1229.291992	53930.609375
1228.185547	54127.160156
1227.078125	54308.273438
1225.970703	54052.632813
1224.863281	54047.199219
1223.755859	54103.183594
1222.647461	54192.046875
1221.539063	54247.984375
1220.430664	53874.183594
1219.322266	54041.945313
1218.213867	53727.488281
1217.104492	54219.507813
1215.995117	54277.566406
1214.885742	53579.906250
1213.776367	53977.511719
1212.666992	53726.835938
1211.556641	53984.152344
1210.446289	53698.546875
1209.335938	53531.210938
1208.225586	53495.222656
1207.115234	54461.175781
1206.003906	53731.671875
1204.892578	53636.609375
1203.781250	53583.125000
1202.669922	53606.167969
1201.557617	53967.972656
1200.446289	53977.824219
1199.333984	53963.632813
1198.221680	53912.308594
1197.108398	54404.832031
1195.996094	54763.968750
1194.882813	54668.855469
1193.769531	54706.925781
1192.656250	55054.894531
1191.542969	54922.675781
1190.428711	55370.832031
1189.314453	55295.312500
1188.200195	55056.253906
1187.085938	55161.792969
1185.971680	55273.835938
1184.856445	55132.988281
1183.741211	55367.031250
1182.625977	55261.078125
1181.510742	55664.925781
1180.395508	55201.742188
1179.279297	55076.269531
1178.163086	55092.367188
1177.046875	55217.296875
1175.930664	55318.242188
1174.813477	55406.089844
1173.697266	55026.121094
1172.580078	54663.695313
1171.462891	55040.871094
1170.344727	54917.765625
1169.227539	54590.332031
1168.109375	54463.000000
1166.991211	54620.421875
1165.873047	54834.281250
1164.754883	54546.199219
1163.635742	54375.515625
1162.516602	54339.542969
1161.397461	54286.207031
1160.278320	54690.964844
1159.159180	54398.820313
1158.039063	54584.214844
1156.918945	54491.808594
1155.798828	54564.308594
1154.678711	54001.265625
1153.558594	54106.351563
1152.437500	54204.894531
1151.316406	54127.804688
1150.195313	54315.164063
1149.074219	54586.964844
1147.952148	54516.343750
1146.831055	54575.714844
1145.708984	54697.871094
1144.586914	54742.027344
1143.463867	54567.496094
1142.341797	55222.078125
1141.218750	55179.539063
1140.095703	55766.687500
1138.972656	55763.000000
1137.849609	55990.757813
1136.725586	56036.765625
1135.601563	55734.628906
1134.477539	56455.167969
1133.353516	55671.050781
1132.229492	55453.421875
1131.104492	55838.699219
1129.979492	55683.765625
1128.854492	55347.449219
1127.729492	55466.910156
1126.603516	55815.195313
1125.478516	55798.523438
1124.352539	55654.515625
1123.226563	55804.035156
1122.099609	55528.460938
1120.973633	54979.031250
1119.846680	55029.375000
1118.719727	54428.480469
1117.592773	54532.800781
1116.465820	54751.324219
1115.337891	54411.578125
1114.209961	54388.703125
1113.082031	54650.214844
1111.954102	54362.359375
1110.826172	54016.460938
1109.697266	54036.734375
1108.568359	54115.117188
1107.439453	53644.609375
1106.310547	53895.195313
1105.180664	53919.765625
1104.051758	54084.156250
1102.921875	53839.824219
1101.791992	53681.597656
1100.661133	53938.382813
1099.531250	54205.824219
1098.400391	53925.101563
1097.269531	54067.808594
1096.138672	53946.195313
1095.006836	53820.328125
1093.875977	53746.050781
1092.744141	54084.082031
1091.612305	53610.453125
1090.480469	53439.652344
1089.347656	53045.718750
1088.215820	53121.835938
1087.083008	53157.167969
1085.950195	52656.246094
1084.816406	53165.589844
1083.683594	53299.515625
1082.549805	52389.375000
1081.416016	52392.644531
1080.282227	52398.050781
1079.148438	53125.507813
1078.013672	52573.804688
1076.878906	52718.386719
1075.744141	52907.882813
1074.609375	52455.000000
1073.474609	52263.441406
1072.338867	52399.402344
1071.203125	52381.246094
1070.067383	52497.878906
1068.931641	52839.066406
1067.794922	52745.976563
1066.659180	52744.867188
1065.522461	52121.628906
1064.385742	52381.402344
1063.248047	52803.496094
1062.111328	52535.277344
1060.973633	52284.246094
1059.835938	51834.660156
1058.698242	52634.527344
1057.559570	52795.691406
1056.421875	52132.777344
1055.283203	52283.296875
1054.144531	52141.406250
1053.005859	51786.203125
1051.866211	52301.472656
1050.726563	51974.093750
1049.587891	52173.539063
1048.447266	52183.160156
1047.307617	52305.750000
1046.167969	51882.695313
1045.027344	52173.628906
1043.886719	52178.968750
1042.746094	52128.925781
1041.604492	52083.156250
1040.463867	52569.722656
1039.322266	52174.750000
1038.180664	52165.175781
1037.038086	51913.000000
1035.896484	51735.382813
1034.753906	52291.753906
1033.611328	51918.453125
1032.468750	51866.390625
1031.326172	52339.507813
1030.182617	51787.828125
1029.040039	51784.695313
1027.896484	51562.691406
1026.751953	52400.937500
1025.608398	51771.046875
1024.463867	51428.101563
1023.319336	51809.367188
1022.174805	51967.570313
1021.030273	51890.101563
1019.885742	52128.875000
1018.740234	51928.332031
1017.594727	52084.269531
1016.449219	51905.011719
1015.303711	51783.082031
1014.157227	51985.597656
1013.010742	52101.121094
1011.864258	51938.941406
1010.717773	51783.175781
1009.571289	51705.859375
1008.423828	51935.730469
1007.276367	52015.140625
1006.128906	51785.351563
1004.981445	52063.769531
1003.833008	51859.453125
1002.684570	52323.992188
1001.536133	52134.511719
1000.387695	52558.628906
999.239258	51999.003906
998.089844	52575.253906
996.941406	51920.675781
995.791992	52509.410156
994.641602	52582.187500
993.492188	52356.957031
992.341797	52784.699219
991.191406	52633.453125
990.041016	52218.238281
988.890625	52571.851563
987.739258	52226.472656
986.588867	52632.726563
985.437500	52618.820313
984.285156	52691.433594
983.133789	52631.101563
981.981445	52939.937500
980.829102	51820.843750
979.676758	52496.613281
978.524414	52493.273438
977.372070	52470.964844
976.218750	52543.496094
975.065430	52523.285156
973.912109	52273.453125
972.757813	52470.246094
971.604492	52639.585938
970.450195	52783.597656
969.295898	52923.339844
968.141602	52930.433594
966.986328	53025.902344
965.832031	53108.710938
964.676758	52661.378906
963.521484	53112.277344
962.365234	52774.453125
961.209961	52798.371094
960.053711	53167.007813
958.897461	52833.558594
957.741211	52920.480469
956.584961	52559.878906
955.427734	53043.808594
954.270508	53031.933594
953.113281	53055.753906
951.956055	53159.335938
950.797852	53210.406250
949.639648	53185.906250
948.481445	53461.453125
947.323242	52685.902344
946.165039	52764.281250
945.005859	53100.554688
943.847656	53432.515625
942.687500	52504.507813
941.528320	52341.824219
940.369141	52738.691406
939.208984	52689.156250
938.048828	52733.898438
936.888672	52671.812500
935.728516	52848.457031
934.567383	52928.726563
933.406250	52810.117188
932.245117	52936.402344
931.083984	52587.667969
929.922852	52927.324219
928.760742	53248.031250
927.598633	52991.437500
926.436523	53293.191406
925.274414	53674.265625
924.111328	53210.816406
922.948242	53658.628906
921.785156	53201.617188
920.622070	53741.171875
919.458984	53791.816406
918.294922	53717.152344
917.130859	54053.796875
915.966797	53323.675781
914.802734	53800.089844
913.637695	54474.554688
912.472656	54474.921875
911.307617	54431.488281
910.142578	54713.390625
908.977539	55199.523438
907.811523	55112.191406
906.645508	55625.164063
905.479492	55412.746094
904.313477	55271.246094
903.146484	54798.578125
901.980469	55332.042969
900.813477	54699.195313
899.646484	54609.968750
898.478516	54808.031250
897.311523	54392.066406
896.143555	54581.769531
894.975586	54509.265625
893.806641	54264.140625
892.638672	54468.312500
891.469727	54481.109375
890.300781	54215.332031
889.131836	53712.699219
887.962891	54502.839844
886.792969	54245.507813
885.623047	54085.906250
884.453125	54458.062500
883.283203	54543.507813
882.112305	54552.105469
880.942383	54434.066406
879.771484	54556.824219
878.600586	54202.269531
877.428711	55032.476563
876.257813	55648.722656
875.085938	55586.578125
873.914063	55856.210938
872.741211	55775.386719
871.569336	55503.894531
870.396484	55748.519531
869.223633	55765.132813
868.050781	55738.238281
866.877930	56036.527344
865.704102	55775.578125
864.530273	56672.105469
863.356445	56792.023438
862.182617	57108.511719
861.007813	57443.507813
859.833984	57397.695313
858.659180	57875.234375
857.484375	57179.957031
856.308594	57173.500000
855.133789	56947.898438
853.958008	57220.523438
852.782227	57083.859375
851.605469	56730.285156
850.429688	56573.097656
849.252930	56141.257813
848.076172	56756.570313
846.899414	57004.136719
845.722656	57041.050781
844.544922	57234.804688
843.367188	56883.710938
842.189453	57702.554688
841.011719	57749.613281
839.833008	57765.714844
838.655273	58390.105469
837.476563	58814.281250
836.296875	59063.089844
835.118164	59909.457031
833.938477	59539.820313
832.758789	59295.984375
831.579102	59140.804688
830.399414	58621.175781
829.219727	58324.105469
828.039063	57891.273438
826.858398	57296.003906
825.677734	56715.359375
824.496094	55820.136719
823.315430	55836.519531
822.133789	55480.636719
820.952148	55176.289063
819.769531	55073.531250
818.587891	55460.023438
817.405273	54767.421875
816.222656	54864.101563
815.040039	54714.218750
813.856445	54821.136719
812.673828	54412.554688
811.490234	54478.417969
810.305664	54708.484375
809.122070	54318.617188
807.938477	54372.144531
806.753906	54366.148438
805.569336	54356.046875
804.383789	54296.726563
803.199219	54225.121094
802.013672	54426.214844
800.828125	54028.691406
799.642578	53977.660156
798.457031	53799.609375
797.270508	53656.449219
796.083984	53632.136719
794.897461	53345.703125
793.710938	53245.695313
792.523438	53260.363281
791.336914	52898.421875
790.149414	52557.074219
788.961914	52880.800781
787.773438	52658.222656
786.585938	52646.386719
785.397461	52509.812500
784.208984	52498.003906
783.019531	51934.292969
781.831055	52251.625000
780.641602	52493.238281
779.452148	52160.683594
778.262695	51934.468750
777.072266	52051.421875
775.882813	52066.238281
774.692383	51927.941406
773.501953	51685.597656
772.310547	51539.253906
771.120117	51711.250000
769.928711	52095.328125
768.737305	52142.738281
767.544922	52055.546875
766.353516	51831.785156
765.161133	52541.691406
763.968750	52364.789063
762.776367	52513.976563
761.583984	52555.128906
760.390625	52630.894531
759.197266	53209.640625
758.003906	53362.621094
756.810547	53782.222656
755.616211	53778.312500
754.421875	53894.464844
753.227539	53591.441406
752.033203	53937.449219
750.838867	53780.960938
749.643555	53565.562500
748.448242	53256.718750
747.252930	53478.523438
746.057617	53045.832031
744.861328	52708.804688
743.665039	53003.714844
742.468750	52282.917969
741.272461	52441.730469
740.075195	52133.480469
738.878906	51867.976563
737.681641	52296.714844
736.484375	51676.144531
735.286133	52206.203125
734.087891	51731.933594
732.890625	51906.847656
731.691406	52106.031250
730.493164	51569.187500
729.294922	51537.269531
728.095703	51778.964844
726.896484	51836.171875
725.696289	51520.589844
724.497070	52011.281250
723.296875	51689.707031
722.096680	51700.308594
720.896484	51828.320313
719.696289	52033.195313
718.495117	51337.472656
717.293945	51694.101563
716.092773	51324.382813
714.891602	51349.183594
713.689453	51774.355469
712.487305	51602.949219
711.285156	51621.613281
710.083008	51300.746094
708.880859	51711.453125
707.677734	51614.925781
706.474609	51348.765625
705.271484	51957.136719
704.068359	51367.953125
702.864258	51372.488281
701.660156	51443.628906
700.456055	51199.933594
699.251953	51351.777344
698.046875	50888.308594
696.841797	51409.230469
695.636719	51694.027344
694.431641	51478.726563
693.226563	51523.531250
692.020508	51231.757813
690.814453	51935.476563
689.608398	51220.667969
688.402344	51897.937500
687.195313	51580.121094
685.988281	51485.914063
684.781250	51744.027344
683.574219	51382.128906
682.366211	51481.187500
681.158203	51475.585938
679.950195	51854.191406
678.742188	51780.136719
677.534180	51675.945313
676.325195	51740.664063
675.116211	51337.015625
673.907227	52068.984375
672.697266	52181.812500
671.488281	51712.003906
670.278320	52124.128906
669.068359	51835.238281
667.858398	51452.085938
666.647461	51912.195313
665.436523	51487.019531
664.225586	51517.519531
663.014648	51389.503906
661.802734	51432.039063
660.591797	51274.000000
659.379883	51350.625000
658.167969	51018.238281
656.955078	51006.679688
655.743164	50500.125000
654.530273	50574.824219
653.317383	51130.285156
652.103516	51134.730469
650.890625	51017.015625
649.676758	51079.535156
648.462891	50507.464844
647.249023	50592.070313
646.034180	50700.652344
644.819336	50833.203125
643.604492	50755.667969
642.389648	50842.156250
641.174805	50648.667969
639.958984	50813.105469
638.743164	50971.484375
637.527344	50742.101563
636.311523	50926.402344
635.094727	50645.171875
633.877930	50735.542969
632.661133	50777.953125
631.444336	51129.808594
630.226563	50748.933594
629.008789	50691.519531
627.791016	50935.433594
626.573242	50935.855469
625.355469	50758.750000
624.136719	50190.824219
622.917969	50185.398438
621.699219	50481.000000
620.480469	50469.535156
619.260742	50615.507813
618.041016	50325.078125
616.821289	50094.515625
615.601563	50700.550781
614.380859	50454.070313
613.160156	50378.898438
611.939453	50327.644531
610.718750	50594.835938
609.497070	50406.253906
608.276367	50434.593750
607.054688	50490.765625
605.832031	50383.839844
604.610352	50131.804688
603.387695	50635.285156
602.165039	50351.488281
600.942383	50196.968750
599.719727	50366.355469
598.496094	50329.085938
597.272461	49866.804688
596.048828	49990.480469
594.825195	50280.878906
593.600586	50019.343750
592.375977	50150.851563
591.151367	50028.328125
589.926758	49667.785156
588.701172	50211.843750
587.476563	49893.042969
586.250977	50119.613281
585.024414	50094.335938
583.798828	50027.441406
582.572266	49948.683594
581.345703	50107.699219
580.119141	50423.144531
578.892578	50177.984375
577.665039	50107.164063
576.437500	50446.179688
575.209961	50494.097656
573.982422	50547.929688
572.753906	49952.746094
571.525391	50105.570313
570.296875	50507.546875
569.068359	50217.238281
567.838867	50227.566406
566.610352	50188.464844
565.380859	50145.421875
564.150391	50086.585938
562.920898	50535.519531
561.690430	50130.949219
560.459961	50255.812500
559.229492	50279.921875
557.999023	50359.296875
556.767578	50748.523438
555.536133	50770.546875
554.304688	50498.574219
553.073242	50504.847656
551.840820	50544.648438
550.608398	50491.750000
549.375977	50547.304688
548.143555	50482.589844
546.910156	50798.273438
545.676758	50599.539063
544.443359	50883.554688
543.209961	50582.453125
541.975586	50578.832031
540.742188	50384.218750
539.507813	50571.589844
538.272461	50577.804688
537.038086	50576.148438
535.802734	50574.488281
534.567383	50806.914063
533.332031	50783.574219
532.096680	50496.742188
530.860352	50554.066406
529.624023	50574.023438
528.387695	50658.824219
527.151367	50865.414063
525.914063	50692.765625
524.676758	50791.238281
523.439453	51280.464844
522.202148	50978.246094
520.963867	50640.804688
519.725586	50845.183594
518.487305	50890.539063
517.249023	50757.339844
516.009766	50777.187500
514.771484	50710.734375
513.532227	50854.113281
512.291992	50801.390625
511.052734	50650.679688
509.812500	50688.152344
508.572266	51048.906250
507.332031	50759.140625
506.090820	50402.886719
504.850586	50775.230469
503.609375	50820.464844
502.368164	50979.218750
501.125977	51010.695313
499.884766	51233.917969
498.642578	51042.300781
497.400391	50954.421875
496.157227	50956.535156
494.915039	51248.027344
493.671875	51097.597656
492.428711	51164.171875
491.184570	50767.582031
489.941406	51449.640625
488.697266	51057.046875
487.453125	51047.402344
486.208984	50949.886719
484.963867	51338.539063
483.718750	51143.402344
482.473633	51196.187500
481.228516	51131.878906
479.982422	51352.417969
478.737305	51155.464844
477.491211	51305.707031
476.244141	51660.609375
474.998047	51543.628906
473.750977	51561.171875
472.503906	51584.550781
471.256836	51748.195313
470.009766	51810.480469
468.761719	51975.964844
467.513672	52229.003906
466.265625	52102.316406
465.017578	52431.140625
463.768555	52205.210938
462.519531	53053.390625
461.270508	52704.867188
460.021484	52947.742188
458.771484	53211.910156
457.521484	53396.265625
456.271484	53292.855469
455.021484	53461.574219
453.770508	53779.843750
452.519531	53958.113281
451.268555	54503.425781
450.017578	54898.988281
448.765625	54810.929688
447.514648	55231.519531
446.262695	55964.437500
445.009766	56091.621094
443.757813	56051.894531
442.504883	56334.195313
441.251953	56468.984375
439.999023	55655.511719
438.745117	55590.687500
437.492188	55033.542969
436.238281	54034.750000
434.983398	53206.839844
433.729492	53204.507813
432.474609	53244.789063
431.219727	52634.382813
429.964844	52649.578125
428.709961	52080.160156
427.454102	52178.675781
426.198242	52470.652344
424.942383	52350.429688
423.685547	51996.203125
422.429688	51827.761719
421.172852	52005.492188
419.916016	51881.574219
418.658203	51854.343750
417.401367	51326.605469
416.143555	51770.921875
414.885742	51973.593750
413.626953	51355.355469
412.369141	51828.367188
411.110352	51426.617188
409.851563	51833.800781
408.591797	51602.027344
407.333008	51767.828125
406.073242	51484.062500
404.813477	51833.054688
403.553711	51277.468750
402.292969	51450.906250
401.032227	51315.839844
