#Wave		#Intensity
2001.182617	33649.722656
2000.212891	33431.656250
1999.243164	33430.832031
1998.273438	33139.355469
1997.303711	33454.234375
1996.333008	33661.296875
1995.363281	33750.582031
1994.392578	33689.605469
1993.421875	33428.371094
1992.451172	33397.503906
1991.479492	33421.703125
1990.508789	33370.828125
1989.537109	33334.980469
1988.566406	33911.949219
1987.594727	33563.414063
1986.622070	33942.609375
1985.650391	33549.191406
1984.677734	33670.804688
1983.706055	33572.457031
1982.733398	33236.773438
1981.760742	33408.335938
1980.788086	33654.773438
1979.814453	34068.441406
1978.841797	33705.433594
1977.868164	33482.351563
1976.894531	33651.222656
1975.920898	33425.730469
1974.947266	33617.003906
1973.972656	33885.546875
1972.999023	33817.265625
1972.024414	33888.664063
1971.049805	33553.613281
1970.075195	33742.195313
1969.099609	33716.359375
1968.125000	33648.160156
1967.149414	33986.125000
1966.173828	33686.218750
1965.198242	33378.945313
1964.222656	34015.617188
1963.247070	33516.664063
1962.270508	34006.210938
1961.294922	34284.011719
1960.318359	34086.394531
1959.341797	34053.062500
1958.364258	33920.230469
1957.387695	33934.195313
1956.410156	33871.062500
1955.433594	33902.429688
1954.456055	33961.136719
1953.478516	34062.074219
1952.500000	34451.246094
1951.522461	34303.589844
1950.543945	33691.429688
1949.565430	34318.906250
1948.586914	34285.585938
1947.608398	34197.648438
1946.629883	34362.953125
1945.650391	34664.718750
1944.671875	34092.835938
1943.692383	34253.109375
1942.712891	34252.074219
1941.733398	34583.402344
1940.752930	33982.171875
1939.773438	33847.289063
1938.792969	34379.312500
1937.812500	34375.769531
1936.832031	34352.406250
1935.851563	34762.648438
1934.870117	34246.234375
1933.888672	34809.917969
1932.908203	34590.847656
1931.926758	34599.644531
1930.945313	34256.906250
1929.962891	34211.304688
1928.981445	34794.289063
1927.999023	34224.058594
1927.016602	34779.625000
1926.034180	34360.472656
1925.051758	35168.058594
1924.069336	34523.980469
1923.085938	34391.855469
1922.102539	34516.824219
1921.119141	34869.105469
1920.135742	34843.226563
1919.152344	34763.011719
1918.168945	34798.164063
1917.184570	34833.351563
1916.200195	34868.539063
1915.215820	34903.730469
1914.231445	34938.917969
1913.247070	34974.105469
1912.261719	35009.328125
1911.276367	35044.550781
1910.291992	35079.738281
1909.306641	35114.960938
1908.320313	35150.218750
1907.334961	35185.441406
1906.348633	35028.917969
1905.363281	35126.277344
1904.376953	35250.699219
1903.390625	34993.246094
1902.403320	35354.097656
1901.416992	35205.066406
1900.429688	35282.601563
1899.443359	35389.648438
1898.456055	35459.742188
1897.467773	35291.101563
1896.480469	34652.582031
1895.493164	35522.257813
1894.504883	34785.535156
1893.516602	35846.691406
1892.528320	35210.972656
1891.540039	35094.171875
1890.550781	35196.156250
1889.562500	35674.085938
1888.573242	35478.636719
1887.583984	35784.386719
1886.594727	35328.636719
1885.605469	35668.683594
1884.615234	35790.093750
1883.625000	35565.332031
1882.635742	35713.710938
1881.645508	35466.953125
1880.654297	35850.835938
1879.664063	36143.816406
1878.673828	35982.949219
1877.682617	35839.304688
1876.691406	35771.714844
1875.700195	35439.398438
1874.708984	35817.968750
1873.716797	36073.882813
1872.725586	35616.730469
1871.733398	35999.964844
1870.741211	36140.593750
1869.749023	35759.578125
1868.755859	35907.539063
1867.763672	36030.968750
1866.770508	35899.816406
1865.777344	36201.835938
1864.784180	36051.121094
1863.791016	36120.617188
1862.797852	36283.027344
1861.803711	36352.453125
1860.809570	36184.699219
1859.815430	36329.894531
1858.821289	35895.800781
1857.827148	36121.632813
1856.832031	36462.214844
1855.837891	36719.621094
1854.842773	35982.906250
1853.847656	36333.097656
1852.852539	36448.781250
1851.856445	36615.683594
1850.861328	36428.636719
1849.865234	36451.511719
1848.869141	36506.093750
1847.873047	36602.125000
1846.876953	36883.476563
1845.879883	36567.300781
1844.883789	36599.875000
1843.886719	37124.835938
1842.889648	36911.144531
1841.892578	37201.933594
1840.895508	36983.425781
1839.897461	37120.632813
1838.899414	37452.632813
1837.901367	36973.640625
1836.903320	36969.570313
1835.905273	37501.015625
1834.907227	37178.027344
1833.908203	36794.316406
1832.909180	37284.148438
1831.910156	37275.152344
1830.911133	37066.730469
1829.912109	36911.875000
1828.912109	37666.335938
1827.913086	37820.132813
1826.913086	37259.359375
1825.913086	37702.328125
1824.913086	37639.808594
1823.912109	37914.949219
1822.912109	37730.984375
1821.911133	38207.546875
1820.910156	37462.777344
1819.909180	37822.703125
1818.908203	37711.683594
1817.906250	37724.449219
1816.904297	37484.902344
1815.903320	38043.468750
1814.900391	38017.363281
1813.898438	37785.160156
1812.896484	38115.484375
1811.893555	38062.714844
1810.891602	38116.593750
1809.888672	38262.527344
1808.885742	37902.078125
1807.881836	38084.328125
1806.878906	38101.832031
1805.875000	38714.980469
1804.871094	38383.753906
1803.867188	38209.968750
1802.863281	38517.843750
1801.859375	38397.328125
1800.854492	38274.433594
1799.849609	38666.785156
1798.844727	38517.281250
1797.839844	38798.222656
1796.834961	38890.500000
1795.830078	38690.273438
1794.824219	39048.363281
1793.818359	38884.417969
1792.812500	38785.757813
1791.806641	39003.546875
1790.799805	38904.898438
1789.793945	39115.339844
1788.787109	39081.882813
1787.780273	39164.292969
1786.773438	38795.394531
1785.766602	39307.304688
1784.758789	38909.558594
1783.751953	39172.832031
1782.744141	38816.246094
1781.736328	39578.539063
1780.728516	39132.808594
1779.719727	39670.621094
1778.711914	39678.078125
1777.703125	39615.656250
1776.694336	39733.929688
1775.685547	39724.503906
1774.676758	39823.449219
1773.666992	40069.226563
1772.657227	39987.523438
1771.648438	40538.855469
1770.638672	40416.187500
1769.627930	40187.695313
1768.618164	40120.457031
1767.607422	40370.722656
1766.597656	40743.539063
1765.586914	40534.378906
1764.576172	40794.050781
1763.564453	40940.664063
1762.553711	40577.781250
1761.541992	40647.496094
1760.530273	41034.269531
1759.518555	40894.921875
1758.506836	41228.687500
1757.495117	41353.449219
1756.482422	41295.730469
1755.469727	41593.242188
1754.457031	41415.515625
1753.444336	41744.085938
1752.431641	41408.070313
1751.417969	41947.578125
1750.405273	42093.632813
1749.391602	42045.429688
1748.377930	42165.042969
1747.364258	42236.679688
1746.349609	42138.152344
1745.335938	42231.324219
1744.321289	42310.089844
1743.306641	42010.417969
1742.291992	42730.933594
1741.276367	42627.613281
1740.261719	42756.511719
1739.246094	42667.578125
1738.230469	42533.207031
1737.214844	43123.792969
1736.199219	43565.863281
1735.182617	43374.003906
1734.166992	43777.609375
1733.150391	44114.128906
1732.133789	44247.351563
1731.117188	44356.628906
1730.099609	44602.062500
1729.083008	45048.089844
1728.065430	45004.285156
1727.047852	45454.855469
1726.030273	45375.175781
1725.012695	46157.363281
1723.994141	46464.269531
1722.976563	45852.250000
1721.958008	45739.144531
1720.939453	46878.558594
1719.920898	46686.589844
1718.901367	47105.207031
1717.882813	47154.093750
1716.863281	47279.246094
1715.843750	47392.433594
1714.824219	47229.132813
1713.803711	47587.707031
1712.784180	47779.390625
1711.763672	47904.312500
1710.743164	47662.441406
1709.722656	47661.140625
1708.702148	48071.683594
1707.681641	47837.050781
1706.660156	47742.902344
1705.638672	47313.296875
1704.617188	47390.554688
1703.595703	47696.117188
1702.574219	47973.031250
1701.551758	47134.726563
1700.529297	47887.089844
1699.507813	47507.816406
1698.484375	47397.210938
1697.461914	47341.289063
1696.439453	47446.921875
1695.416016	47300.750000
1694.392578	47472.843750
1693.369141	47488.167969
1692.345703	47351.558594
1691.322266	47428.605469
1690.297852	47534.097656
1689.273438	47539.902344
1688.249023	47607.382813
1687.224609	47354.644531
1686.200195	47415.015625
1685.174805	47283.316406
1684.150391	47941.039063
1683.125000	47908.832031
1682.099609	47679.953125
1681.073242	47951.062500
1680.047852	48129.691406
1679.021484	48305.886719
1677.995117	48458.335938
1676.968750	48302.949219
1675.942383	48812.781250
1674.916016	48647.914063
1673.888672	48693.703125
1672.862305	48843.574219
1671.834961	48794.687500
1670.806641	49107.671875
1669.779297	48793.917969
1668.751953	48792.347656
1667.723633	49362.808594
1666.695313	49143.707031
1665.666992	49118.437500
1664.638672	49764.136719
1663.609375	49571.054688
1662.581055	49961.375000
1661.551758	49463.718750
1660.522461	49480.902344
1659.493164	49793.128906
1658.462891	49798.445313
1657.433594	49990.164063
1656.403320	50014.312500
1655.373047	50033.730469
1654.342773	50008.332031
1653.312500	50216.375000
1652.281250	49997.632813
1651.250977	50116.031250
1650.219727	51009.722656
1649.188477	50757.964844
1648.156250	50541.632813
1647.125000	50876.535156
1646.092773	50634.347656
1645.060547	51006.785156
1644.028320	51364.964844
1642.996094	50423.757813
1641.963867	51372.589844
1640.930664	51363.453125
1639.898438	51554.281250
1638.865234	51187.601563
1637.832031	51778.164063
1636.797852	51150.589844
1635.764648	52093.562500
1634.730469	52293.480469
1633.696289	52093.832031
1632.662109	52176.199219
1631.627930	52406.527344
1630.592773	53141.742188
1629.558594	52817.621094
1628.523438	53294.230469
1627.488281	54150.957031
1626.453125	54122.546875
1625.416992	54305.335938
1624.381836	54703.910156
1623.345703	55189.136719
1622.309570	56452.843750
1621.273438	57406.570313
1620.237305	58195.835938
1619.200195	58928.558594
1618.163086	59942.261719
1617.125977	61508.613281
1616.088867	63238.406250
1615.051758	64698.203125
1614.014648	66365.914063
1612.976563	67934.679688
1611.938477	68676.445313
1610.900391	69120.664063
1609.862305	69443.031250
1608.823242	69119.445313
1607.785156	68080.085938
1606.746094	66645.789063
1605.707031	65675.054688
1604.667969	63339.109375
1603.628906	62240.722656
1602.588867	60927.683594
1601.548828	59713.261719
1600.508789	58821.722656
1599.468750	58928.050781
1598.428711	58011.269531
1597.387695	57092.476563
1596.347656	56657.343750
1595.306641	57090.804688
1594.265625	56849.554688
1593.224609	56160.316406
1592.182617	55888.976563
1591.140625	55515.089844
1590.099609	55582.164063
1589.057617	54872.644531
1588.014648	55072.707031
1586.972656	54512.726563
1585.929688	54764.054688
1584.887695	54423.375000
1583.844727	54392.699219
1582.800781	54389.988281
1581.757813	54068.187500
1580.714844	54147.035156
1579.670898	53981.378906
1578.626953	54197.554688
1577.583008	54434.597656
1576.538086	54448.156250
1575.494141	54210.433594
1574.449219	54149.585938
1573.404297	54142.250000
1572.359375	54488.371094
1571.314453	54834.371094
1570.269531	54764.144531
1569.223633	54573.089844
1568.177734	53782.578125
1567.131836	54460.679688
1566.085938	53879.527344
1565.040039	53795.589844
1563.993164	53184.570313
1562.946289	53625.476563
1561.899414	53263.074219
1560.852539	53204.828125
1559.805664	53297.425781
1558.757813	52638.312500
1557.709961	53392.054688
1556.662109	53760.542969
1555.614258	53219.945313
1554.566406	53293.902344
1553.517578	52927.421875
1552.469727	53026.890625
1551.420898	53395.105469
1550.372070	53427.269531
1549.322266	53496.476563
1548.273438	52901.007813
1547.223633	52903.132813
1546.173828	53578.929688
1545.124023	53458.253906
1544.074219	53018.261719
1543.024414	53217.027344
1541.973633	53499.000000
1540.922852	53568.078125
1539.872070	53114.496094
1538.821289	52765.117188
1537.770508	52381.187500
1536.718750	52369.511719
1535.666992	53014.132813
1534.615234	52824.437500
1533.563477	52851.953125
1532.511719	52650.800781
1531.458984	53262.574219
1530.407227	52955.210938
1529.354492	52209.355469
1528.300781	53143.992188
1527.248047	52259.910156
1526.195313	52919.644531
1525.141602	52746.398438
1524.087891	52402.542969
1523.034180	52028.828125
1521.980469	52367.656250
1520.925781	52155.437500
1519.871094	52395.011719
1518.817383	52120.644531
1517.762695	52143.570313
1516.707031	52293.179688
1515.652344	51657.390625
1514.596680	51468.539063
1513.541016	52391.730469
1512.485352	51862.140625
1511.429688	52430.511719
1510.374023	51965.527344
1509.317383	52384.132813
1508.260742	52045.832031
1507.204102	51967.519531
1506.147461	52556.042969
1505.090820	52461.574219
1504.033203	52252.207031
1502.975586	52281.917969
1501.917969	52536.789063
1500.860352	52380.355469
1499.802734	52416.910156
1498.744141	52621.093750
1497.686523	52297.109375
1496.627930	52462.207031
1495.569336	52468.875000
1494.509766	52257.531250
1493.451172	52429.425781
1492.391602	52757.250000
1491.332031	52676.695313
1490.272461	52495.269531
1489.212891	52428.542969
1488.152344	52815.722656
1487.092773	52588.519531
1486.032227	52854.078125
1484.971680	52773.578125
1483.910156	52060.875000
1482.849609	52747.789063
1481.788086	53074.945313
1480.726563	52893.718750
1479.665039	53145.191406
1478.603516	53103.621094
1477.541992	53062.062500
1476.479492	53173.800781
1475.416992	53372.421875
1474.354492	52990.066406
1473.291992	53147.484375
1472.229492	53442.015625
1471.166016	53142.132813
1470.102539	53121.171875
1469.039063	53545.785156
1467.975586	53888.000000
1466.912109	53490.027344
1465.847656	53676.832031
1464.783203	53648.933594
1463.718750	53840.203125
1462.654297	54754.953125
1461.589844	54069.628906
1460.524414	53852.289063
1459.458984	53911.062500
1458.393555	54790.921875
1457.328125	54434.457031
1456.262695	54433.808594
1455.196289	54462.789063
1454.130859	54188.621094
1453.064453	54436.398438
1451.998047	54520.039063
1450.930664	54635.539063
1449.864258	54655.335938
1448.796875	54672.847656
1447.729492	54886.148438
1446.662109	55181.324219
1445.594727	55150.929688
1444.526367	55245.699219
1443.458008	55219.847656
1442.390625	55764.960938
1441.321289	55795.882813
1440.252930	56140.585938
1439.184570	56646.585938
1438.115234	56527.296875
1437.045898	57169.398438
1435.976563	57090.957031
1434.907227	57201.105469
1433.836914	57781.406250
1432.767578	58386.476563
1431.697266	58914.125000
1430.626953	58535.753906
1429.555664	59004.164063
1428.485352	59170.574219
1427.414063	59262.039063
1426.342773	60458.281250
1425.271484	60052.746094
1424.200195	60230.171875
1423.128906	60294.164063
1422.056641	60759.386719
1420.984375	60870.855469
1419.912109	61000.406250
1418.839844	61048.343750
1417.767578	60842.542969
1416.694336	60596.046875
1415.621094	61291.675781
1414.547852	60402.171875
1413.474609	59952.144531
1412.400391	59961.726563
1411.327148	59803.851563
1410.252930	59089.453125
1409.178711	58997.386719
1408.104492	58575.140625
1407.029297	58863.085938
1405.955078	58786.929688
1404.879883	59117.675781
1403.804688	59057.312500
1402.729492	58947.257813
1401.653320	58947.941406
1400.578125	59280.667969
1399.501953	59586.175781
1398.425781	59376.742188
1397.349609	59424.746094
1396.272461	59797.769531
1395.196289	60710.027344
1394.119141	61069.144531
1393.041992	61175.453125
1391.964844	61534.351563
1390.886719	61696.914063
1389.809570	62346.445313
1388.731445	63254.992188
1387.653320	63931.050781
1386.575195	64025.449219
1385.497070	63482.171875
1384.417969	63439.195313
1383.338867	63535.875000
1382.259766	63416.332031
1381.180664	62889.304688
1380.101563	63334.945313
1379.021484	62945.410156
1377.941406	63147.843750
1376.861328	63345.699219
1375.781250	62789.906250
1374.701172	62544.679688
1373.620117	62542.398438
1372.539063	62256.832031
1371.458008	62090.503906
1370.376953	61935.472656
1369.295898	61966.996094
1368.213867	61627.808594
1367.132813	61744.730469
1366.050781	61327.097656
1364.967773	62014.367188
1363.885742	62009.914063
1362.802734	62714.761719
1361.720703	62761.796875
1360.637695	63493.175781
1359.554688	63163.156250
1358.470703	63346.902344
1357.387695	63248.007813
1356.303711	62371.109375
1355.219727	62113.257813
1354.135742	61761.355469
1353.050781	61100.324219
1351.966797	60829.390625
1350.881836	59649.039063
1349.796875	59853.289063
1348.711914	59726.039063
1347.626953	59157.753906
1346.541016	59064.246094
1345.455078	58292.609375
1344.369141	58626.699219
1343.283203	58750.351563
1342.197266	58048.527344
1341.110352	57966.476563
1340.023438	58550.816406
1338.936523	57979.074219
1337.849609	58107.191406
1336.762695	58358.179688
1335.674805	58282.835938
1334.586914	57780.800781
1333.499023	58089.781250
1332.411133	57855.957031
1331.323242	58673.910156
1330.234375	58341.828125
1329.145508	58400.476563
1328.056641	58534.984375
1326.967773	59077.761719
1325.878906	59058.160156
1324.789063	59781.312500
1323.699219	60029.195313
1322.609375	60294.824219
1321.519531	61131.046875
1320.429688	62238.886719
1319.338867	62602.015625
1318.248047	63646.796875
1317.157227	64564.218750
1316.066406	65441.218750
1314.975586	66353.531250
1313.883789	66918.179688
1312.791992	67429.195313
1311.700195	67532.734375
1310.608398	67609.523438
1309.516602	66742.960938
1308.423828	66352.726563
1307.331055	65769.148438
1306.238281	64447.527344
1305.145508	63760.003906
1304.051758	62930.468750
1302.958984	62279.019531
1301.865234	62289.968750
1300.771484	61989.886719
1299.677734	61705.457031
1298.583008	60974.742188
1297.489258	61958.453125
1296.394531	62082.656250
1295.299805	62311.136719
1294.204102	62408.593750
1293.109375	62186.507813
1292.013672	62250.675781
1290.917969	62217.222656
1289.822266	62709.351563
1288.726563	62214.644531
1287.630859	62090.320313
1286.534180	61629.148438
1285.437500	61385.304688
1284.340820	61267.835938
1283.244141	61041.863281
1282.146484	60277.777344
1281.048828	60353.218750
1279.951172	60514.972656
1278.853516	60152.046875
1277.755859	59658.671875
1276.658203	59428.796875
1275.559570	59406.964844
1274.460938	58856.472656
1273.362305	58938.695313
1272.262695	58333.203125
1271.164063	57778.777344
1270.064453	58228.062500
1268.964844	57587.660156
1267.865234	58111.941406
1266.765625	57465.160156
1265.665039	56946.722656
1264.564453	57026.937500
1263.463867	56941.527344
1262.363281	56589.027344
1261.262695	56739.886719
1260.161133	56491.265625
1259.059570	56439.097656
1257.958008	56069.285156
1256.856445	55869.433594
1255.754883	55940.890625
1254.652344	56215.156250
1253.549805	55889.734375
1252.447266	55996.402344
1251.344727	55682.148438
1250.242188	55802.031250
1249.138672	55946.101563
1248.035156	55737.734375
1246.931641	55335.664063
1245.828125	55376.257813
1244.724609	55526.890625
1243.620117	55081.058594
1242.515625	55618.953125
1241.411133	55602.253906
1240.306641	55757.128906
1239.201172	56109.871094
1238.096680	55714.894531
1236.991211	56179.628906
1235.885742	56206.792969
1234.779297	56179.003906
1233.673828	56041.363281
1232.567383	55954.296875
1231.460938	55924.363281
1230.354492	55712.175781
1229.248047	55438.585938
1228.140625	55564.613281
1227.033203	55451.363281
1225.926758	55522.480469
1224.818359	55569.437500
1223.710938	55489.144531
1222.602539	55428.617188
1221.495117	55712.378906
1220.386719	55320.773438
1219.278320	55409.359375
1218.168945	55088.078125
1217.060547	55341.011719
1215.951172	55300.277344
1214.841797	55743.640625
1213.731445	55039.273438
1212.622070	55622.648438
1211.511719	55115.582031
1210.402344	55245.644531
1209.291992	55631.703125
1208.180664	55833.820313
1207.070313	55790.851563
1205.958984	55918.500000
1204.847656	56557.816406
1203.736328	56066.511719
1202.625000	56565.660156
1201.512695	56745.515625
1200.401367	56586.597656
1199.289063	56633.105469
1198.176758	56965.757813
1197.063477	57549.453125
1195.951172	57287.859375
1194.837891	57430.261719
1193.724609	57858.562500
1192.611328	58131.750000
1191.498047	58217.175781
1190.383789	57578.261719
1189.269531	57356.199219
1188.155273	56957.562500
1187.041016	57169.601563
1185.926758	56363.464844
1184.811523	55973.941406
1183.696289	56260.128906
1182.581055	55831.539063
1181.465820	55753.839844
1180.350586	55671.808594
1179.234375	55454.785156
1178.118164	55300.984375
1177.001953	55288.734375
1175.885742	55666.078125
1174.768555	54835.546875
1173.652344	54886.476563
1172.535156	55294.132813
1171.417969	54577.210938
1170.299805	54391.132813
1169.182617	54526.886719
1168.064453	54590.855469
1166.946289	54785.195313
1165.828125	54610.070313
1164.709961	54180.816406
1163.590820	54212.187500
1162.471680	54243.562500
1161.352539	54274.933594
1160.233398	54306.308594
1159.114258	54244.312500
1157.994141	54381.992188
1156.874023	54385.093750
1155.753906	54336.128906
1154.633789	53964.000000
1153.513672	54329.320313
1152.392578	54373.617188
1151.271484	54285.656250
1150.150391	54605.199219
1149.029297	54486.886719
1147.907227	54134.621094
1146.786133	53942.785156
1145.664063	54164.738281
1144.541992	54386.695313
1143.418945	54608.839844
1142.296875	54830.796875
1141.173828	55052.941406
1140.050781	55275.089844
1138.927734	55944.320313
1137.803711	56059.566406
1136.680664	55755.210938
1135.556641	55401.234375
1134.432617	55663.515625
1133.308594	55579.863281
1132.183594	55846.328125
1131.059570	55684.886719
1129.934570	55458.687500
1128.809570	56312.515625
1127.684570	55334.777344
1126.558594	55404.558594
1125.432617	55893.097656
1124.307617	55755.546875
1123.180664	55659.046875
1122.054688	55185.011719
1120.928711	55366.914063
1119.801758	54679.582031
1118.674805	55133.203125
1117.547852	54633.730469
1116.419922	55037.613281
1115.292969	54984.449219
1114.165039	54450.792969
1113.037109	54643.351563
1111.909180	54848.761719
1110.780273	54313.261719
1109.652344	53859.777344
1108.523438	54293.406250
1107.394531	54253.343750
1106.264648	54413.433594
1105.135742	54065.679688
1104.005859	54212.832031
1102.875977	54555.652344
1101.746094	54592.984375
1100.616211	54189.542969
1099.485352	54534.324219
1098.355469	54281.484375
1097.224609	54643.304688
1096.092773	54437.800781
1094.961914	54417.097656
1093.830078	54364.187500
1092.699219	53989.203125
1091.567383	54271.300781
1090.434570	53660.351563
1089.302734	53987.468750
1088.169922	53705.082031
1087.037109	53695.253906
1085.904297	53848.441406
1084.771484	54113.082031
1083.637695	54191.085938
1082.504883	53593.777344
1081.371094	53397.496094
1080.236328	53623.445313
1079.102539	53412.222656
1077.968750	53980.832031
1076.833984	53688.230469
1075.699219	53616.296875
1074.564453	54158.855469
1073.428711	53800.019531
1072.292969	53957.101563
1071.158203	54022.109375
1070.022461	53716.972656
1068.885742	53249.375000
1067.750000	54268.312500
1066.613281	53875.621094
1065.476563	54147.945313
1064.339844	53887.937500
1063.203125	53555.363281
1062.065430	54094.679688
1060.927734	53640.414063
1059.790039	53807.863281
1058.652344	53804.406250
1057.514648	54146.839844
1056.375977	53797.488281
1055.237305	53625.417969
1054.098633	53365.910156
1052.959961	54013.265625
1051.820313	53913.765625
1050.681641	53690.601563
1049.541992	53738.332031
1048.402344	54208.175781
1047.261719	54556.339844
1046.122070	54510.105469
1044.981445	54419.132813
1043.840820	54196.109375
1042.700195	54286.277344
1041.558594	54559.562500
1040.417969	54281.261719
1039.276367	53883.847656
1038.134766	53905.890625
1036.992188	53947.070313
1035.850586	54213.769531
1034.708008	53782.613281
1033.565430	53653.636719
1032.422852	53524.699219
1031.280273	53468.101563
1030.136719	53449.781250
1028.994141	53601.496094
1027.850586	53332.410156
1026.706055	53328.992188
1025.562500	53550.734375
1024.417969	53283.921875
1023.273438	53475.859375
1022.128906	53625.265625
1020.984375	53492.304688
1019.839844	53696.824219
1018.694336	53699.691406
1017.548828	53348.273438
1016.403320	53189.996094
1015.256836	53447.429688
1014.111328	53460.933594
1012.964844	53629.183594
1011.818359	53839.757813
1010.671875	53238.628906
1009.524414	53529.703125
1008.377930	53358.871094
1007.230469	53759.949219
1006.083008	53675.953125
1004.934570	53376.031250
1003.787109	53654.101563
1002.638672	53692.914063
1001.490234	53956.007813
1000.341797	54227.464844
999.193359	53959.437500
998.043945	53996.039063
996.894531	54220.812500
995.745117	53938.128906
994.595703	53704.160156
993.446289	54182.449219
992.295898	53699.195313
991.145508	54039.992188
989.995117	53607.628906
988.844727	54047.562500
987.693359	53967.945313
986.541992	53696.257813
985.390625	53863.664063
984.239258	53963.480469
983.087891	53947.218750
981.935547	54416.125000
980.783203	54330.183594
979.630859	54199.992188
978.478516	54286.996094
977.325195	54348.667969
976.172852	54256.472656
975.019531	54353.941406
973.865234	54598.843750
972.711914	54641.445313
971.557617	54580.843750
970.404297	54638.167969
969.250000	54299.707031
968.094727	54474.921875
966.940430	54797.375000
965.785156	54471.687500
964.629883	54602.593750
963.474609	54298.085938
962.319336	54704.437500
961.163086	54982.390625
960.007813	55024.812500
958.851563	54989.453125
957.694336	55353.339844
956.538086	55126.750000
955.380859	55209.011719
954.223633	55093.832031
953.066406	55003.886719
951.909180	55256.164063
950.751953	55279.558594
949.593750	54780.410156
948.435547	54694.773438
947.277344	54657.417969
946.118164	54378.875000
944.959961	54534.511719
943.800781	54778.144531
942.641602	54828.832031
941.482422	54106.132813
940.322266	54460.761719
939.162109	54572.230469
938.001953	54679.464844
936.841797	55021.218750
935.681641	54556.691406
934.520508	54649.207031
933.360352	54519.816406
932.198242	54482.550781
931.037109	55026.972656
929.875977	54826.445313
928.713867	55422.886719
927.551758	55400.109375
926.389648	54988.449219
925.227539	55551.074219
924.064453	55457.218750
922.901367	55645.496094
921.738281	55672.832031
920.575195	55806.683594
919.412109	56182.753906
918.248047	56088.851563
917.083984	55997.074219
915.919922	56082.750000
914.755859	56091.171875
913.590820	56875.796875
912.426758	56884.066406
911.261719	56838.101563
910.095703	57011.117188
908.930664	57144.449219
907.764648	58026.121094
906.598633	58180.054688
905.432617	57387.851563
904.266602	57716.855469
903.099609	58195.718750
901.933594	57218.578125
900.766602	56945.628906
899.599609	56939.265625
898.431641	56847.562500
897.264648	56662.230469
896.096680	56077.457031
894.928711	56897.171875
893.759766	56356.246094
892.591797	56412.375000
891.422852	55907.078125
890.253906	56589.003906
889.084961	56381.082031
887.916016	56204.406250
886.746094	56081.812500
885.576172	56231.390625
884.406250	56098.449219
883.236328	56333.105469
882.065430	56418.187500
880.895508	56154.500000
879.724609	56683.718750
878.552734	56376.500000
877.381836	56944.894531
876.209961	57548.335938
875.039063	57769.960938
873.866211	57367.375000
872.694336	57582.726563
871.522461	57563.773438
870.349609	57316.871094
869.176758	57946.496094
868.003906	57767.968750
866.830078	58264.714844
865.657227	58179.375000
864.483398	58325.953125
863.309570	58677.410156
862.135742	59293.648438
860.960938	59624.097656
859.786133	59646.152344
858.611328	60354.945313
857.436523	60093.523438
856.261719	59443.457031
855.085938	58956.949219
853.910156	58803.402344
852.734375	58999.167969
851.558594	58601.851563
850.382813	58621.980469
849.206055	58518.167969
848.029297	59060.761719
846.852539	58975.484375
845.674805	59538.425781
844.498047	59228.121094
843.320313	59776.355469
842.142578	60041.734375
840.963867	60439.031250
839.786133	61518.824219
838.607422	61870.328125
837.428711	62421.675781
836.250000	63269.636719
835.070313	63142.492188
833.891602	63075.148438
832.711914	62820.355469
831.532227	62429.714844
830.352539	61975.378906
829.171875	61237.074219
827.991211	60523.742188
826.810547	59613.089844
825.629883	59820.152344
824.449219	58689.816406
823.267578	58578.128906
822.085938	58260.816406
820.904297	58398.054688
819.722656	57897.914063
818.540039	58121.492188
817.357422	57712.007813
816.174805	57444.449219
814.992188	57152.335938
813.809570	56977.406250
812.625977	56954.503906
811.442383	57081.492188
810.258789	57103.738281
809.074219	57634.980469
807.890625	57154.351563
806.706055	57153.992188
805.521484	57233.632813
804.336914	57756.242188
803.151367	57792.675781
801.966797	57369.851563
800.781250	57418.636719
799.594727	57108.753906
798.409180	56565.394531
797.222656	56302.898438
796.037109	56202.308594
794.849609	55819.148438
793.663086	55370.609375
792.476563	55425.824219
791.289063	55345.929688
790.101563	56000.707031
788.914063	55368.316406
787.725586	54995.953125
786.538086	55063.441406
785.349609	55179.984375
784.161133	55241.277344
782.971680	55196.253906
781.783203	54871.257813
780.593750	54856.964844
779.404297	54707.839844
778.214844	54234.003906
777.024414	54513.902344
775.834961	54562.972656
774.644531	54577.316406
773.454102	54118.132813
772.262695	54895.753906
771.072266	54110.234375
769.880859	54916.121094
768.689453	54791.687500
767.497070	54624.476563
766.305664	54551.105469
765.113281	55240.113281
763.920898	55081.054688
762.728516	55551.679688
761.536133	55973.230469
760.342773	56209.269531
759.149414	55942.203125
757.956055	56051.917969
756.762695	56267.441406
755.568359	56057.500000
754.374023	56822.378906
753.179688	56779.242188
751.985352	56520.492188
750.791016	56349.289063
749.595703	56239.152344
748.400391	56399.449219
747.205078	55801.492188
746.009766	55463.890625
744.813477	55185.339844
743.617188	54850.003906
742.420898	55111.960938
741.224609	54693.496094
740.027344	54535.082031
738.830078	54600.027344
737.632813	54441.679688
736.435547	54257.011719
735.238281	54581.664063
734.040039	53851.359375
732.841797	54246.949219
731.643555	54092.859375
730.445313	53500.910156
729.246094	53859.847656
728.046875	53531.617188
726.847656	53543.921875
725.648438	53444.792969
724.449219	53185.687500
723.249023	53414.730469
722.048828	53661.906250
720.848633	53574.964844
719.647461	53401.023438
718.447266	53561.042969
717.246094	53437.746094
716.044922	53688.722656
714.842773	53933.531250
713.641602	53868.867188
712.439453	54010.441406
711.237305	53721.410156
710.035156	54030.695313
708.832031	53802.382813
707.629883	54254.964844
706.426758	54287.250000
705.223633	54067.089844
704.019531	54313.414063
702.815430	54365.851563
701.612305	53931.847656
700.408203	53992.398438
699.203125	53766.433594
697.999023	54234.464844
696.793945	53778.613281
695.588867	54452.140625
694.383789	53996.414063
693.177734	54002.449219
691.971680	54175.753906
690.766602	54175.703125
689.559570	53921.812500
688.353516	54000.359375
687.146484	53660.000000
685.939453	53815.070313
684.732422	53982.160156
683.525391	53452.792969
682.318359	53527.316406
681.110352	53026.398438
679.902344	53473.101563
678.693359	53044.777344
677.485352	53392.781250
676.276367	53481.304688
675.067383	53199.945313
673.858398	53561.781250
672.649414	53648.207031
671.439453	53577.906250
670.229492	53591.984375
669.019531	53194.378906
667.809570	53545.828125
666.598633	53359.156250
665.387695	53596.035156
664.176758	53012.097656
662.965820	53134.589844
661.754883	53265.058594
660.542969	53108.683594
659.331055	53397.511719
658.119141	53098.824219
656.906250	53028.750000
655.694336	53299.386719
654.481445	52894.683594
653.268555	53051.054688
652.054688	53287.476563
650.841797	53001.144531
649.627930	53245.492188
648.414063	53601.847656
647.200195	53866.000000
645.985352	54334.156250
644.770508	54962.187500
643.555664	55437.960938
642.340820	55679.562500
641.125977	55881.078125
639.910156	55970.566406
638.694336	55256.503906
637.478516	54766.527344
636.262695	54436.574219
635.045898	54416.382813
633.829102	53713.125000
632.612305	53559.277344
631.395508	53754.878906
630.177734	53728.832031
628.959961	52884.515625
627.742188	52744.894531
626.524414	52639.242188
625.306641	52888.679688
624.087891	52489.871094
622.869141	52958.566406
621.650391	52667.542969
620.430664	52567.968750
619.211914	52623.871094
617.992188	52514.375000
616.772461	52757.515625
615.551758	52807.367188
614.332031	52297.640625
613.111328	52620.308594
611.890625	52731.859375
610.669922	52363.730469
609.448242	52142.980469
608.226563	52503.226563
607.004883	52897.152344
605.783203	52306.523438
604.561523	52392.140625
603.338867	52135.800781
602.116211	51957.066406
600.893555	52547.445313
599.669922	52577.312500
598.447266	52750.191406
597.223633	52309.304688
596.000000	52017.511719
594.775391	52380.980469
593.551758	52601.398438
592.327148	52861.417969
591.102539	52387.179688
589.877930	52534.062500
588.652344	52216.753906
587.426758	52538.117188
586.201172	52669.015625
584.975586	52330.046875
583.750000	52841.472656
582.523438	52661.121094
581.296875	52871.140625
580.070313	53059.285156
578.842773	52841.359375
577.616211	52674.996094
576.388672	52967.992188
575.161133	53120.339844
573.932617	53124.203125
572.705078	52957.902344
571.476563	53543.398438
570.248047	52955.785156
569.018555	53347.257813
567.790039	53109.851563
566.560547	52489.042969
565.331055	52589.843750
564.101563	52313.187500
562.871094	52451.515625
561.641602	52259.921875
560.411133	52342.906250
559.179688	52273.820313
557.949219	51861.253906
556.717773	51750.828125
555.486328	52112.089844
554.254883	51539.960938
553.023438	51980.031250
551.791016	52212.835938
550.558594	51978.207031
549.326172	51822.523438
548.093750	52037.480469
546.860352	51487.675781
545.627930	51678.964844
544.393555	51584.519531
543.160156	51620.105469
541.926758	51817.164063
540.692383	51901.910156
539.458008	51876.382813
538.223633	51697.343750
536.988281	51845.031250
535.752930	51799.847656
534.517578	52205.148438
533.282227	51811.792969
532.046875	52201.203125
530.810547	52360.441406
529.574219	52395.781250
528.337891	52415.382813
527.101563	52352.449219
525.864258	52403.480469
524.626953	52389.671875
523.389648	51959.542969
522.152344	52744.925781
520.914063	51853.578125
519.675781	51710.335938
518.437500	51788.886719
517.199219	52063.597656
515.959961	51875.277344
514.721680	52132.210938
513.482422	51994.925781
512.242188	51906.695313
511.002930	52153.671875
509.762695	51945.902344
508.522461	51945.898438
507.282227	51769.582031
506.041016	52094.730469
504.800781	51738.292969
503.559570	51840.125000
502.318359	51902.765625
501.076172	51624.843750
499.833984	51924.265625
498.592773	51853.812500
497.349609	52094.390625
496.107422	51826.410156
494.864258	51623.050781
493.622070	52092.253906
492.377930	51648.511719
491.134766	52101.890625
489.891602	52037.343750
488.647461	52064.628906
487.403320	51841.910156
486.158203	52167.980469
484.914063	52199.121094
483.668945	52105.324219
482.423828	52220.378906
481.178711	52421.242188
479.932617	52163.578125
478.686523	52883.199219
477.440430	52607.988281
476.194336	52878.804688
474.948242	52937.039063
473.701172	52634.679688
472.454102	52977.429688
471.207031	52811.554688
469.958984	53311.917969
468.711914	52908.433594
467.463867	53077.566406
466.215820	52931.253906
464.966797	53143.136719
463.718750	53354.933594
462.469727	53521.898438
461.220703	53624.601563
459.970703	53742.824219
458.721680	54263.527344
457.471680	53815.812500
456.221680	53930.035156
454.970703	54446.511719
453.720703	54496.445313
452.469727	55109.750000
451.218750	55235.285156
449.966797	55506.421875
448.715820	55936.667969
447.463867	56040.613281
446.211914	56705.437500
444.959961	57393.292969
443.707031	57363.023438
442.454102	57584.937500
441.201172	57515.851563
439.948242	57035.703125
438.695313	56179.628906
437.441406	55560.351563
436.187500	54613.789063
434.933594	54826.269531
433.678711	54027.429688
432.424805	53277.312500
431.169922	53085.187500
429.914063	53042.214844
428.659180	52788.257813
427.403320	52969.855469
426.147461	52439.292969
424.891602	52570.585938
423.635742	52111.863281
422.378906	51955.007813
421.122070	51949.027344
419.865234	52111.230469
418.608398	51892.605469
417.350586	51915.617188
416.092773	52218.773438
414.834961	52017.628906
413.577148	51490.160156
412.318359	51719.835938
411.059570	51891.507813
409.800781	51985.898438
408.541992	51624.796875
407.282227	51734.632813
406.022461	51765.328125
404.762695	51614.707031
403.502930	51593.339844
402.242188	51712.730469
400.981445	51357.859375
