#Wave		#Intensity
2001.221680	32223.750000
2000.251953	32058.320313
1999.282227	31990.072266
1998.312500	32084.712891
1997.342773	32051.554688
1996.372070	31712.824219
1995.402344	31892.607422
1994.431641	31801.906250
1993.460938	32204.416016
1992.490234	31815.832031
1991.518555	31730.193359
1990.547852	31854.763672
1989.576172	32121.886719
1988.604492	31991.212891
1987.632813	31597.996094
1986.661133	31842.515625
1985.689453	32244.447266
1984.716797	31946.371094
1983.745117	31750.859375
1982.772461	31777.794922
1981.799805	31862.177734
1980.827148	31884.085938
1979.853516	31856.039063
1978.880859	32092.671875
1977.907227	31992.197266
1976.933594	31971.630859
1975.959961	31324.675781
1974.986328	31885.601563
1974.011719	31907.470703
1973.038086	31777.179688
1972.063477	31836.464844
1971.088867	32117.642578
1970.114258	32037.238281
1969.138672	31789.859375
1968.164063	31824.175781
1967.188477	31571.935547
1966.212891	31905.222656
1965.237305	32168.650391
1964.261719	31991.189453
1963.286133	31335.724609
1962.309570	31606.578125
1961.333984	31835.021484
1960.357422	31938.953125
1959.380859	31833.837891
1958.404297	31828.269531
1957.426758	31969.453125
1956.450195	31424.208984
1955.472656	31883.675781
1954.495117	31962.621094
1953.517578	31805.410156
1952.540039	32016.050781
1951.561523	31508.539063
1950.583008	31965.099609
1949.605469	31745.896484
1948.626953	31837.191406
1947.647461	31906.109375
1946.668945	32218.289063
1945.690430	31907.351563
1944.710938	32154.896484
1943.731445	32164.154297
1942.751953	32019.599609
1941.772461	32311.636719
1940.791992	32053.027344
1939.812500	31997.824219
1938.832031	32071.552734
1937.851563	31721.408203
1936.871094	31889.326172
1935.890625	32119.128906
1934.909180	31595.742188
1933.928711	31686.808594
1932.947266	32015.578125
1931.965820	32024.828125
1930.984375	31737.001953
1930.002930	31837.873047
1929.020508	31861.992188
1928.038086	31985.072266
1927.056641	32216.958984
1926.074219	32062.908203
1925.090820	32148.791016
1924.108398	31779.693359
1923.125000	32275.962891
1922.142578	32255.476563
1921.159180	31916.205078
1920.175781	31969.912109
1919.191406	31951.955078
1918.208008	32319.318359
1917.223633	32442.068359
1916.240234	32327.740234
1915.255859	31969.056641
1914.271484	32121.417969
1913.286133	31831.990234
1912.301758	32070.677734
1911.316406	32074.921875
1910.331055	31958.304688
1909.345703	31992.158203
1908.360352	31752.312500
1907.375000	32279.226563
1906.388672	32184.833984
1905.402344	32011.613281
1904.416016	32057.740234
1903.429688	32128.484375
1902.443359	31832.210938
1901.457031	32107.363281
1900.469727	31658.539063
1899.482422	32421.046875
1898.495117	31945.250000
1897.507813	32311.234375
1896.520508	31850.384766
1895.532227	32009.615234
1894.543945	32195.845703
1893.556641	31781.976563
1892.568359	32041.939453
1891.579102	32046.148438
1890.590820	32006.113281
1889.601563	32209.375000
1888.613281	32161.953125
1887.624023	32178.416016
1886.634766	32312.765625
1885.644531	32284.990234
1884.655273	32291.597656
1883.665039	32033.080078
1882.674805	32317.074219
1881.684570	32200.970703
1880.694336	31900.890625
1879.704102	32457.050781
1878.712891	31847.992188
1877.722656	32148.927734
1876.731445	32422.787109
1875.740234	32468.572266
1874.748047	32538.847656
1873.756836	32388.550781
1872.764648	32333.857422
1871.773438	32070.962891
1870.781250	32378.828125
1869.788086	32373.138672
1868.795898	32137.304688
1867.803711	32175.718750
1866.810547	32610.615234
1865.817383	32497.212891
1864.824219	32528.201172
1863.831055	32495.576172
1862.837891	32284.417969
1861.843750	32246.953125
1860.849609	32590.908203
1859.855469	32431.175781
1858.861328	32251.943359
1857.867188	32290.259766
1856.872070	32162.421875
1855.877930	32383.943359
1854.882813	32637.138672
1853.887695	32289.529297
1852.892578	32579.271484
1851.896484	32680.949219
1850.901367	32355.478516
1849.905273	32686.535156
1848.909180	32419.728516
1847.913086	32779.929688
1846.916992	32469.296875
1845.919922	32909.828125
1844.923828	32552.957031
1843.926758	32639.859375
1842.929688	32692.609375
1841.932617	32813.566406
1840.935547	32486.197266
1839.937500	32636.376953
1838.939453	32842.519531
1837.942383	32714.988281
1836.943359	33123.117188
1835.945313	32757.025391
1834.947266	32799.933594
1833.948242	32514.326172
1832.949219	33182.519531
1831.951172	32916.402344
1830.951172	32986.000000
1829.952148	32943.714844
1828.953125	32928.191406
1827.953125	32856.761719
1826.953125	32782.925781
1825.953125	32893.789063
1824.953125	32710.642578
1823.952148	33159.117188
1822.952148	33201.847656
1821.951172	33358.687500
1820.950195	32940.089844
1819.949219	33077.500000
1818.948242	32862.957031
1817.946289	32937.242188
1816.945313	33161.914063
1815.943359	33410.765625
1814.941406	33235.113281
1813.939453	33706.937500
1812.936523	33366.437500
1811.934570	33103.621094
1810.931641	33340.136719
1809.928711	33423.914063
1808.925781	33136.996094
1807.921875	33775.464844
1806.918945	33258.511719
1805.915039	33526.261719
1804.912109	33629.292969
1803.908203	33223.980469
1802.903320	33789.261719
1801.899414	33659.902344
1800.894531	33622.515625
1799.890625	33754.460938
1798.885742	33736.414063
1797.880859	33587.804688
1796.875000	33584.300781
1795.870117	33585.625000
1794.864258	33794.785156
1793.858398	33757.414063
1792.852539	33594.429688
1791.846680	33639.226563
1790.840820	34099.382813
1789.833984	34156.144531
1788.828125	34099.417969
1787.821289	33765.140625
1786.814453	34164.609375
1785.806641	34247.855469
1784.799805	33831.703125
1783.791992	34204.414063
1782.784180	34215.257813
1781.776367	34071.781250
1780.768555	34005.500000
1779.760742	33859.699219
1778.751953	34193.515625
1777.743164	34100.738281
1776.735352	34321.164063
1775.725586	34132.050781
1774.716797	34520.960938
1773.708008	34423.371094
1772.698242	34922.828125
1771.688477	34437.691406
1770.678711	34936.964844
1769.668945	34678.160156
1768.659180	34392.984375
1767.648438	34398.937500
1766.637695	34683.835938
1765.626953	34504.597656
1764.616211	34395.132813
1763.605469	34504.421875
1762.593750	34856.382813
1761.583008	35030.421875
1760.571289	34827.250000
1759.559570	35087.691406
1758.547852	34831.750000
1757.535156	34902.425781
1756.523438	35385.960938
1755.510742	35576.515625
1754.498047	35889.378906
1753.485352	35448.773438
1752.472656	35420.917969
1751.458984	35913.523438
1750.445313	36017.480469
1749.432617	35673.058594
1748.417969	36424.238281
1747.404297	35991.187500
1746.390625	36380.207031
1745.375977	36337.835938
1744.361328	36451.179688
1743.346680	36248.343750
1742.332031	37010.593750
1741.317383	36537.183594
1740.302734	36923.292969
1739.287109	37105.832031
1738.271484	37206.949219
1737.255859	37360.660156
1736.240234	37803.753906
1735.223633	37964.480469
1734.208008	37790.378906
1733.191406	38749.562500
1732.174805	38642.308594
1731.158203	38857.734375
1730.140625	39331.144531
1729.124023	39474.695313
1728.106445	40126.976563
1727.088867	40303.769531
1726.071289	40418.410156
1725.053711	40757.425781
1724.035156	40535.382813
1723.017578	40848.003906
1721.999023	41088.929688
1720.980469	41327.378906
1719.961914	41482.257813
1718.942383	41505.917969
1717.923828	41481.875000
1716.904297	41743.921875
1715.884766	41738.910156
1714.865234	41679.089844
1713.844727	42014.820313
1712.825195	41704.824219
1711.804688	42300.054688
1710.784180	42040.125000
1709.763672	41946.960938
1708.743164	41946.667969
1707.722656	42098.710938
1706.701172	41922.285156
1705.679688	41962.445313
1704.658203	42000.207031
1703.636719	41854.808594
1702.615234	41435.980469
1701.592773	42061.097656
1700.571289	41934.781250
1699.548828	41463.863281
1698.526367	41178.472656
1697.502930	41705.773438
1696.480469	41351.546875
1695.457031	41315.710938
1694.433594	41455.621094
1693.410156	41331.925781
1692.386719	41744.777344
1691.363281	41772.976563
1690.338867	41573.351563
1689.314453	41812.730469
1688.290039	41760.242188
1687.265625	41686.425781
1686.241211	41527.261719
1685.215820	41688.234375
1684.191406	41991.375000
1683.166016	42092.949219
1682.140625	42362.734375
1681.115234	42075.644531
1680.088867	42269.531250
1679.062500	42238.347656
1678.037109	42595.523438
1677.010742	42540.609375
1675.983398	42305.812500
1674.957031	43001.226563
1673.930664	42846.882813
1672.903320	42482.027344
1671.875977	42564.371094
1670.848633	43093.683594
1669.820313	43173.523438
1668.792969	42941.257813
1667.764648	43226.746094
1666.736328	43415.230469
1665.708008	43253.929688
1664.679688	43822.707031
1663.651367	43545.644531
1662.622070	43391.484375
1661.592773	43711.996094
1660.563477	43458.703125
1659.534180	44652.445313
1658.504883	43858.628906
1657.474609	44103.312500
1656.444336	44192.203125
1655.415039	44512.222656
1654.383789	44598.644531
1653.353516	44727.480469
1652.323242	45002.433594
1651.291992	45006.222656
1650.260742	45544.972656
1649.229492	45242.343750
1648.198242	45830.328125
1647.166016	45753.875000
1646.134766	46346.265625
1645.102539	46210.882813
1644.070313	47064.289063
1643.038086	46427.472656
1642.004883	47299.359375
1640.972656	47538.003906
1639.939453	47974.171875
1638.906250	47869.207031
1637.873047	48046.472656
1636.839844	48588.117188
1635.805664	48694.664063
1634.772461	49057.363281
1633.738281	49732.480469
1632.704102	49514.523438
1631.668945	50137.632813
1630.634766	50596.109375
1629.599609	51028.589844
1628.565430	51773.183594
1627.530273	52418.914063
1626.494141	53148.906250
1625.458984	54073.406250
1624.422852	54779.378906
1623.387695	55745.484375
1622.351563	56891.832031
1621.315430	58260.542969
1620.278320	59783.503906
1619.242188	61097.292969
1618.205078	63235.597656
1617.167969	65077.886719
1616.130859	66556.367188
1615.093750	68753.453125
1614.055664	70378.296875
1613.018555	72157.109375
1611.980469	72216.835938
1610.942383	72899.195313
1609.904297	72979.828125
1608.865234	72442.679688
1607.827148	71868.289063
1606.788086	70494.117188
1605.749023	67988.500000
1604.709961	66290.484375
1603.669922	64988.167969
1602.630859	63833.574219
1601.590820	63079.023438
1600.550781	62088.738281
1599.510742	61014.703125
1598.470703	60433.898438
1597.429688	60009.765625
1596.389648	59569.441406
1595.348633	59168.953125
1594.307617	58908.656250
1593.265625	58466.421875
1592.224609	57872.675781
1591.182617	57976.671875
1590.140625	57602.472656
1589.098633	57270.378906
1588.056641	57425.714844
1587.014648	56844.328125
1585.971680	56668.707031
1584.928711	56339.339844
1583.886719	56240.753906
1582.842773	56738.566406
1581.799805	56390.722656
1580.755859	56455.183594
1579.712891	56077.242188
1578.668945	55981.105469
1577.625000	56040.945313
1576.580078	55898.304688
1575.536133	56335.046875
1574.491211	57288.054688
1573.446289	56889.421875
1572.401367	57316.449219
1571.356445	57536.394531
1570.311523	57663.273438
1569.265625	58568.703125
1568.219727	57566.011719
1567.173828	57973.933594
1566.127930	58058.828125
1565.082031	58336.453125
1564.035156	58202.968750
1562.988281	57955.769531
1561.941406	58504.843750
1560.894531	58102.175781
1559.847656	57871.363281
1558.799805	57698.628906
1557.751953	57226.726563
1556.704102	57691.937500
1555.656250	57076.437500
1554.608398	56832.089844
1553.560547	56988.828125
1552.511719	56209.230469
1551.462891	55796.015625
1550.414063	56082.585938
1549.365234	55771.449219
1548.315430	56143.601563
1547.265625	55950.652344
1546.216797	55945.285156
1545.166992	55629.757813
1544.116211	55480.964844
1543.066406	55186.449219
1542.015625	54915.175781
1540.965820	55064.957031
1539.915039	54735.980469
1538.863281	53997.871094
1537.812500	54397.394531
1536.760742	53876.867188
1535.709961	53825.640625
1534.658203	53730.527344
1533.605469	53136.472656
1532.553711	53501.136719
1531.501953	52676.402344
1530.449219	52341.437500
1529.396484	52459.039063
1528.343750	51971.898438
1527.290039	52234.902344
1526.237305	51789.500000
1525.183594	52128.558594
1524.129883	52227.632813
1523.076172	51717.898438
1522.022461	51734.007813
1520.968750	52559.207031
1519.914063	51738.542969
1518.859375	51600.246094
1517.804688	51770.714844
1516.750000	51701.558594
1515.694336	51123.449219
1514.639648	51086.667969
1513.583984	51328.468750
1512.528320	51328.488281
1511.472656	51372.234375
1510.416016	50649.726563
1509.360352	51098.476563
1508.303711	50988.121094
1507.247070	50709.917969
1506.190430	50956.066406
1505.132813	50923.953125
1504.076172	50737.847656
1503.018555	51466.460938
1501.960938	50795.500000
1500.903320	50850.730469
1499.844727	50830.136719
1498.787109	50543.160156
1497.728516	50150.660156
1496.669922	50357.468750
1495.611328	50991.117188
1494.552734	50357.785156
1493.493164	50390.062500
1492.434570	50211.277344
1491.375000	50248.152344
1490.315430	49583.296875
1489.254883	49673.000000
1488.195313	49884.164063
1487.134766	49728.539063
1486.074219	49806.703125
1485.013672	49541.167969
1483.953125	49781.976563
1482.892578	49855.503906
1481.831055	49993.121094
1480.769531	49766.656250
1479.708008	49693.636719
1478.646484	49586.316406
1477.583984	49938.968750
1476.522461	49271.113281
1475.459961	49751.789063
1474.397461	49514.164063
1473.334961	49244.609375
1472.271484	49592.421875
1471.208984	49640.671875
1470.145508	49499.214844
1469.082031	49632.003906
1468.018555	49127.347656
1466.954102	49305.835938
1465.890625	49415.742188
1464.826172	49276.726563
1463.761719	49411.707031
1462.697266	49681.308594
1461.631836	49583.390625
1460.567383	49026.882813
1459.501953	49675.093750
1458.436523	49942.164063
1457.371094	49832.859375
1456.305664	49351.941406
1455.239258	49322.562500
1454.172852	48693.753906
1453.107422	49211.421875
1452.040039	48936.011719
1450.973633	48836.101563
1449.907227	48836.441406
1448.839844	49264.894531
1447.772461	49611.226563
1446.705078	49281.343750
1445.637695	49800.519531
1444.569336	49736.960938
1443.500977	49639.292969
1442.432617	50035.281250
1441.364258	50149.105469
1440.295898	49439.726563
1439.227539	49692.296875
1438.158203	49992.511719
1437.088867	50365.343750
1436.019531	50565.343750
1434.950195	50351.785156
1433.879883	50946.949219
1432.810547	50274.640625
1431.740234	51380.496094
1430.669922	51071.589844
1429.598633	51641.218750
1428.528320	51554.773438
1427.457031	51708.875000
1426.386719	52607.023438
1425.314453	52910.578125
1424.243164	53250.304688
1423.171875	54165.828125
1422.099609	54659.359375
1421.027344	54887.519531
1419.955078	54916.171875
1418.882813	54944.812500
1417.810547	55077.648438
1416.737305	55024.703125
1415.664063	55336.371094
1414.590820	55186.039063
1413.517578	54782.222656
1412.444336	53595.437500
1411.370117	53038.167969
1410.295898	52777.488281
1409.221680	52349.500000
1408.147461	51177.570313
1407.073242	51335.695313
1405.998047	50580.363281
1404.922852	51000.750000
1403.847656	50871.785156
1402.772461	50338.386719
1401.697266	50302.214844
1400.621094	50458.050781
1399.544922	50487.359375
1398.468750	50234.402344
1397.392578	50250.191406
1396.316406	51148.542969
1395.239258	51913.417969
1394.162109	52170.324219
1393.084961	53277.648438
1392.007813	54366.523438
1390.930664	55274.589844
1389.852539	55756.175781
1388.774414	56943.203125
1387.696289	57043.386719
1386.618164	56879.867188
1385.540039	56637.546875
1384.460938	56417.832031
1383.382813	55691.421875
1382.303711	55242.257813
1381.223633	55000.394531
1380.144531	54294.882813
1379.064453	53832.703125
1377.985352	53771.242188
1376.905273	53208.074219
1375.825195	53171.488281
1374.744141	53033.703125
1373.664063	53080.359375
1372.583008	52457.003906
1371.501953	52685.820313
1370.420898	52761.726563
1369.338867	53030.847656
1368.257813	52830.316406
1367.175781	53407.062500
1366.093750	53550.148438
1365.011719	54175.949219
1363.929688	55088.890625
1362.846680	56477.363281
1361.763672	57661.105469
1360.680664	57711.289063
1359.597656	58708.171875
1358.514648	59054.218750
1357.430664	58895.550781
1356.346680	59328.878906
1355.262695	58665.808594
1354.178711	57857.281250
1353.094727	57001.984375
1352.009766	55613.730469
1350.925781	54584.406250
1349.840820	54222.906250
1348.755859	52690.339844
1347.669922	51695.679688
1346.584961	51489.351563
1345.499023	50734.746094
1344.413086	50620.410156
1343.327148	50063.117188
1342.240234	50233.031250
1341.154297	49922.023438
1340.067383	50013.636719
1338.980469	49986.714844
1337.893555	49349.554688
1336.805664	49367.460938
1335.718750	49863.546875
1334.630859	49479.203125
1333.542969	49644.496094
1332.455078	49572.992188
1331.367188	50662.628906
1330.278320	50541.851563
1329.189453	49976.921875
1328.100586	50849.414063
1327.011719	51400.277344
1325.922852	52107.109375
1324.833008	52733.378906
1323.743164	53323.742188
1322.653320	54692.050781
1321.563477	56004.128906
1320.473633	57732.535156
1319.382813	59917.148438
1318.291992	61675.406250
1317.201172	64767.406250
1316.110352	66731.281250
1315.019531	68743.437500
1313.927734	70509.953125
1312.835938	70980.257813
1311.744141	71161.046875
1310.652344	70478.375000
1309.560547	69030.593750
1308.467773	68377.460938
1307.375000	65998.703125
1306.282227	64003.265625
1305.189453	62486.546875
1304.095703	60190.156250
1303.002930	58928.031250
1301.909180	57581.921875
1300.815430	56522.886719
1299.721680	55701.906250
1298.626953	54901.207031
1297.533203	54478.269531
1296.438477	54483.945313
1295.343750	54332.027344
1294.248047	54630.664063
1293.153320	54463.234375
1292.057617	54515.488281
1290.961914	54561.070313
1289.866211	54475.789063
1288.770508	54692.082031
1287.674805	54460.492188
1286.578125	54873.964844
1285.481445	54757.656250
1284.384766	54829.714844
1283.288086	54004.585938
1282.190430	54683.609375
1281.092773	54419.042969
1279.996094	54116.937500
1278.897461	53923.402344
1277.799805	53681.246094
1276.702148	53337.382813
1275.603516	53358.691406
1274.504883	52990.675781
1273.406250	52567.503906
1272.307617	52210.816406
1271.208008	52561.714844
1270.108398	52262.625000
1269.008789	51749.269531
1267.909180	51346.578125
1266.809570	51695.160156
1265.708984	51429.566406
1264.609375	51672.000000
1263.508789	51254.148438
1262.407227	50979.941406
1261.306641	50880.203125
1260.206055	50645.882813
1259.104492	50716.125000
1258.002930	50541.476563
1256.901367	50338.214844
1255.798828	50011.539063
1254.697266	49733.480469
1253.594727	49940.488281
1252.492188	49717.636719
1251.389648	49957.621094
1250.286133	49761.285156
1249.183594	49796.312500
1248.080078	50077.988281
1246.976563	50218.636719
1245.872070	49667.929688
1244.768555	49812.996094
1243.664063	49852.371094
1242.560547	50127.171875
1241.455078	50850.671875
1240.350586	50980.011719
1239.246094	51102.707031
1238.140625	50981.292969
1237.035156	51286.402344
1235.929688	51587.007813
1234.824219	51362.273438
1233.717773	51429.847656
1232.612305	51328.242188
1231.505859	51402.382813
1230.399414	50775.968750
1229.291992	50577.921875
1228.185547	50623.613281
1227.078125	50256.660156
1225.970703	50107.089844
1224.863281	49869.808594
1223.755859	49895.843750
1222.647461	49689.386719
1221.539063	49577.292969
1220.430664	49522.242188
1219.322266	48912.628906
1218.213867	49302.613281
1217.104492	48669.152344
1215.995117	48476.277344
1214.885742	48699.648438
1213.776367	48530.921875
1212.666992	48581.218750
1211.556641	48666.519531
1210.446289	48920.332031
1209.335938	48613.808594
1208.225586	49230.746094
1207.115234	49048.968750
1206.003906	49368.132813
1204.892578	49588.769531
1203.781250	50047.648438
1202.669922	50182.820313
1201.557617	50112.496094
1200.446289	50291.308594
1199.333984	50454.761719
1198.221680	50530.773438
1197.108398	50803.320313
1195.996094	51200.238281
1194.882813	51286.984375
1193.769531	51744.781250
1192.656250	51484.378906
1191.542969	51365.906250
1190.428711	51099.117188
1189.314453	50496.507813
1188.200195	50164.542969
1187.085938	49662.621094
1185.971680	49594.718750
1184.856445	49546.453125
1183.741211	49097.214844
1182.625977	49694.003906
1181.510742	49329.859375
1180.395508	49527.796875
1179.279297	49838.898438
1178.163086	49829.816406
1177.046875	50062.378906
1175.930664	49961.843750
1174.813477	49961.445313
1173.697266	50119.875000
1172.580078	49684.378906
1171.462891	50058.113281
1170.344727	49679.320313
1169.227539	49961.601563
1168.109375	49745.992188
1166.991211	49754.312500
1165.873047	49723.511719
1164.754883	49386.394531
1163.635742	49108.042969
1162.516602	49709.355469
1161.397461	49402.816406
1160.278320	49752.019531
1159.159180	49671.316406
1158.039063	49649.238281
1156.918945	49316.890625
1155.798828	49700.554688
1154.678711	49225.156250
1153.558594	49237.863281
1152.437500	49619.160156
1151.316406	49588.429688
1150.195313	49037.531250
1149.074219	50034.078125
1147.952148	49645.792969
1146.831055	49810.035156
1145.708984	50229.777344
1144.586914	49880.640625
1143.463867	50148.660156
1142.341797	50349.480469
1141.218750	50364.097656
1140.095703	50833.117188
1138.972656	50981.769531
1137.849609	50961.648438
1136.725586	51246.464844
1135.601563	50981.964844
1134.477539	51085.074219
1133.353516	51047.648438
1132.229492	50781.156250
1131.104492	50968.507813
1129.979492	50911.671875
1128.854492	51098.925781
1127.729492	50083.261719
1126.603516	49942.410156
1125.478516	49687.195313
1124.352539	49807.617188
1123.226563	49554.671875
1122.099609	49055.859375
1120.973633	49282.023438
1119.846680	48744.617188
1118.719727	48858.621094
1117.592773	48047.679688
1116.465820	48062.609375
1115.337891	47758.566406
1114.209961	47573.148438
1113.082031	47874.683594
1111.954102	47396.363281
1110.826172	47420.003906
1109.697266	47826.902344
1108.568359	47292.871094
1107.439453	47021.632813
1106.310547	47269.125000
1105.180664	47230.359375
1104.051758	47142.125000
1102.921875	47320.628906
1101.791992	47051.769531
1100.661133	47271.070313
1099.531250	46995.867188
1098.400391	47197.898438
1097.269531	47374.066406
1096.138672	47300.945313
1095.006836	46748.824219
1093.875977	47148.335938
1092.744141	46826.203125
1091.612305	47208.371094
1090.480469	46635.199219
1089.347656	46356.253906
1088.215820	46356.351563
1087.083008	46126.898438
1085.950195	46054.105469
1084.816406	45994.207031
1083.683594	46438.203125
1082.549805	46073.835938
1081.416016	46101.839844
1080.282227	46350.554688
1079.148438	46217.800781
1078.013672	46851.996094
1076.878906	46507.152344
1075.744141	46451.523438
1074.609375	46310.273438
1073.474609	46541.542969
1072.338867	46036.480469
1071.203125	46368.285156
1070.067383	45949.015625
1068.931641	45917.066406
1067.794922	45900.101563
1066.659180	45930.179688
1065.522461	46214.652344
1064.385742	45701.734375
1063.248047	45511.707031
1062.111328	45618.750000
1060.973633	45448.027344
1059.835938	45390.570313
1058.698242	45597.941406
1057.559570	45649.367188
1056.421875	45512.910156
1055.283203	45570.734375
1054.144531	45455.679688
1053.005859	45583.894531
1051.866211	45560.601563
1050.726563	45501.062500
1049.587891	45693.164063
1048.447266	45541.937500
1047.307617	45733.957031
1046.167969	46015.417969
1045.027344	45781.105469
1043.886719	46309.582031
1042.746094	46169.023438
1041.604492	46211.664063
1040.463867	46243.640625
1039.322266	46243.671875
1038.180664	46186.230469
1037.038086	46164.984375
1035.896484	46118.214844
1034.753906	46322.484375
1033.611328	46035.351563
1032.468750	46265.074219
1031.326172	46333.125000
1030.182617	45963.238281
1029.040039	46600.914063
1027.896484	46481.859375
1026.751953	46084.523438
1025.608398	46124.917969
1024.463867	46173.792969
1023.319336	46131.335938
1022.174805	46674.855469
1021.030273	46091.046875
1019.885742	46496.417969
1018.740234	46175.964844
1017.594727	46731.792969
1016.449219	46447.468750
1015.303711	46165.363281
1014.157227	46067.828125
1013.010742	45709.578125
1011.864258	46432.414063
1010.717773	46091.179688
1009.571289	46076.351563
1008.423828	45906.890625
1007.276367	46599.500000
1006.128906	46688.339844
1004.981445	46724.218750
1003.833008	46891.324219
1002.684570	47303.871094
1001.536133	47601.996094
1000.387695	48266.015625
999.239258	48515.199219
998.089844	48430.144531
996.941406	48579.820313
995.791992	48374.277344
994.641602	48405.542969
993.492188	47606.265625
992.341797	48009.523438
991.191406	47622.550781
990.041016	48566.363281
988.890625	48004.152344
987.739258	48485.152344
986.588867	48064.593750
985.437500	47587.199219
984.285156	47863.320313
983.133789	47605.554688
981.981445	47248.738281
980.829102	47145.136719
979.676758	47208.152344
978.524414	46670.292969
977.372070	46375.031250
976.218750	46560.382813
975.065430	46625.558594
973.912109	46941.406250
972.757813	46884.316406
971.604492	46808.292969
970.450195	46736.507813
969.295898	46687.902344
968.141602	46799.273438
966.986328	46761.195313
965.832031	47415.335938
964.676758	47366.632813
963.521484	47890.015625
962.365234	47370.207031
961.209961	47920.726563
960.053711	48239.816406
958.897461	48674.378906
957.741211	49056.246094
956.584961	48669.046875
955.427734	48695.785156
954.270508	48665.808594
953.113281	48795.417969
951.956055	48385.449219
950.797852	48107.867188
949.639648	48313.050781
948.481445	47915.980469
947.323242	47602.968750
946.165039	47566.921875
945.005859	47776.242188
943.847656	47499.062500
942.687500	47702.023438
941.528320	47925.863281
940.369141	47768.246094
939.208984	47306.898438
938.048828	47434.328125
936.888672	47817.210938
935.728516	47791.636719
934.567383	47571.371094
933.406250	48006.343750
932.245117	48524.859375
931.083984	48051.398438
929.922852	48000.691406
928.760742	47929.082031
927.598633	48123.085938
926.436523	48193.652344
925.274414	47844.015625
924.111328	47996.117188
922.948242	47993.527344
921.785156	48172.699219
920.622070	48673.496094
919.458984	48403.445313
918.294922	48434.183594
917.130859	48642.363281
915.966797	48257.656250
914.802734	48534.656250
913.637695	48744.785156
912.472656	48141.210938
911.307617	48524.453125
910.142578	48519.660156
908.977539	48510.695313
907.811523	48889.480469
906.645508	48949.226563
905.479492	49315.281250
904.313477	48972.808594
903.146484	48697.117188
901.980469	48650.628906
900.813477	49068.515625
899.646484	48813.773438
898.478516	49110.746094
897.311523	48387.816406
896.143555	48946.929688
894.975586	48698.632813
893.806641	48733.308594
892.638672	49227.574219
891.469727	49243.421875
890.300781	49255.105469
889.131836	49181.562500
887.962891	48808.792969
886.792969	49381.531250
885.623047	49326.695313
884.453125	49616.652344
883.283203	49595.015625
882.112305	49465.417969
880.942383	49778.015625
879.771484	49916.160156
878.600586	49815.625000
877.428711	50013.871094
876.257813	50106.253906
875.085938	50723.296875
873.914063	50628.894531
872.741211	51000.976563
871.569336	50678.550781
870.396484	50882.621094
869.223633	51146.703125
868.050781	51435.542969
866.877930	50945.496094
865.704102	51163.855469
864.530273	51330.367188
863.356445	52469.742188
862.182617	52787.031250
861.007813	52876.582031
859.833984	53094.367188
858.659180	53099.011719
857.484375	53219.468750
856.308594	52996.628906
855.133789	53216.289063
853.958008	52569.792969
852.782227	52675.781250
851.605469	51973.835938
850.429688	51714.238281
849.252930	51849.234375
848.076172	51825.167969
846.899414	51691.679688
845.722656	51616.039063
844.544922	51247.347656
843.367188	51493.726563
842.189453	51348.011719
841.011719	51718.042969
839.833008	51547.585938
838.655273	51618.445313
837.476563	51930.488281
836.296875	51523.035156
835.118164	51505.234375
833.938477	51955.167969
832.758789	51615.914063
831.579102	51367.410156
830.399414	51242.558594
829.219727	50883.031250
828.039063	50011.046875
826.858398	50343.425781
825.677734	50004.832031
824.496094	49522.343750
823.315430	49463.785156
822.133789	49236.597656
820.952148	49264.472656
819.769531	48620.050781
818.587891	49018.019531
817.405273	48832.179688
816.222656	48615.582031
815.040039	48996.886719
813.856445	48956.980469
812.673828	48483.769531
811.490234	48805.335938
810.305664	49061.089844
809.122070	49207.968750
807.938477	49186.515625
806.753906	50112.957031
805.569336	50181.597656
804.383789	50873.699219
803.199219	51177.984375
802.013672	50502.164063
800.828125	50701.859375
799.642578	49932.105469
798.457031	49187.218750
797.270508	48778.589844
796.083984	48331.191406
794.897461	47736.511719
793.710938	48108.476563
792.523438	47708.527344
791.336914	47458.140625
790.149414	47314.257813
788.961914	47068.125000
787.773438	47092.105469
786.585938	46749.972656
785.397461	46870.105469
784.208984	46750.988281
783.019531	46758.644531
781.831055	46537.402344
780.641602	46741.253906
779.452148	46168.703125
778.262695	46472.628906
777.072266	46237.296875
775.882813	46543.132813
774.692383	46418.113281
773.501953	46162.507813
772.310547	46084.535156
771.120117	46361.597656
769.928711	46436.605469
768.737305	46427.964844
767.544922	46468.261719
766.353516	46700.187500
765.161133	46640.535156
763.968750	46803.042969
762.776367	47328.191406
761.583984	47166.585938
760.390625	47565.175781
759.197266	47252.882813
758.003906	47751.074219
756.810547	47487.714844
755.616211	47008.699219
754.421875	46995.875000
753.227539	47265.863281
752.033203	46901.066406
750.838867	47197.406250
749.643555	46783.953125
748.448242	46332.023438
747.252930	46479.906250
746.057617	46196.882813
744.861328	45981.015625
743.665039	46078.085938
742.468750	45984.187500
741.272461	45764.410156
740.075195	45445.222656
738.878906	45718.929688
737.681641	45527.734375
736.484375	45612.593750
735.286133	45082.656250
734.087891	45603.699219
732.890625	45228.097656
731.691406	45164.914063
730.493164	45134.187500
729.294922	45196.718750
728.095703	45366.632813
726.896484	45390.589844
725.696289	45096.472656
724.497070	45158.953125
723.296875	45170.777344
722.096680	45245.363281
720.896484	45172.140625
719.696289	45157.640625
718.495117	45268.605469
717.293945	45104.367188
716.092773	45275.984375
714.891602	45435.402344
713.689453	45412.765625
712.487305	45489.199219
711.285156	45735.402344
710.083008	45534.867188
708.880859	46160.835938
707.677734	46457.273438
706.474609	46555.648438
705.271484	46954.890625
704.068359	46697.773438
702.864258	47310.816406
701.660156	46841.796875
700.456055	46558.601563
699.251953	46687.101563
698.046875	46906.324219
696.841797	46476.042969
695.636719	47108.593750
694.431641	47670.343750
693.226563	47546.539063
692.020508	47426.808594
690.814453	47089.507813
689.608398	46802.695313
688.402344	46121.203125
687.195313	45917.242188
685.988281	45803.957031
684.781250	45885.984375
683.574219	45718.402344
682.366211	46037.859375
681.158203	45310.988281
679.950195	45684.714844
678.742188	45597.734375
677.534180	45699.800781
676.325195	46471.304688
675.116211	45734.968750
673.907227	45712.343750
672.697266	45830.378906
671.488281	45863.992188
670.278320	45949.816406
669.068359	45997.445313
667.858398	45962.738281
666.647461	46130.792969
665.436523	45937.507813
664.225586	45963.023438
663.014648	45691.597656
661.802734	45779.328125
660.591797	45736.664063
659.379883	45395.242188
658.167969	45527.082031
656.955078	46161.976563
655.743164	45640.296875
654.530273	45990.410156
653.317383	46184.128906
652.103516	45991.210938
650.890625	46831.679688
649.676758	47201.320313
648.462891	47909.125000
647.249023	48194.359375
646.034180	49768.164063
644.819336	50503.089844
643.604492	51951.847656
642.389648	52928.078125
641.174805	53346.066406
639.958984	53396.042969
638.743164	52692.453125
637.527344	52160.988281
636.311523	50802.523438
635.094727	50257.625000
633.877930	49029.847656
632.661133	48062.128906
631.444336	47957.281250
630.226563	47361.414063
629.008789	46903.476563
627.791016	46553.460938
626.573242	46792.121094
625.355469	46428.289063
624.136719	46337.816406
622.917969	46446.765625
621.699219	45859.921875
620.480469	46116.414063
619.260742	46805.246094
618.041016	46184.785156
616.821289	45767.746094
615.601563	46328.781250
614.380859	46469.437500
613.160156	46299.453125
611.939453	46217.109375
610.718750	46104.945313
609.497070	45905.269531
608.276367	45377.406250
607.054688	45496.187500
605.832031	46014.652344
604.610352	45636.183594
603.387695	45560.027344
602.165039	45376.562500
600.942383	45785.359375
599.719727	45200.578125
598.496094	45873.445313
597.272461	45284.890625
596.048828	45725.156250
594.825195	45720.539063
593.600586	45336.789063
592.375977	45252.859375
591.151367	44869.335938
589.926758	45618.738281
588.701172	45677.605469
587.476563	45635.308594
586.250977	45569.234375
585.024414	45501.199219
583.798828	45823.640625
582.572266	45759.539063
581.345703	45830.187500
580.119141	45704.703125
578.892578	45927.828125
577.665039	46299.378906
576.437500	45805.632813
575.209961	46317.597656
573.982422	46112.964844
572.753906	46001.402344
571.525391	46194.535156
570.296875	46132.441406
569.068359	46204.843750
567.838867	46089.386719
566.610352	46084.667969
565.380859	45998.917969
564.150391	46203.675781
562.920898	46125.835938
561.690430	46127.031250
560.459961	45897.160156
559.229492	46245.917969
557.999023	46176.011719
556.767578	45879.144531
555.536133	46294.796875
554.304688	46140.078125
553.073242	45709.234375
551.840820	46150.320313
550.608398	46303.328125
549.375977	45470.492188
548.143555	45867.996094
546.910156	45926.367188
545.676758	45821.164063
544.443359	46106.078125
543.209961	46201.789063
541.975586	45962.671875
540.742188	45948.109375
539.507813	46144.187500
538.272461	46239.808594
537.038086	46211.417969
535.802734	46312.890625
534.567383	46357.277344
533.332031	46659.289063
532.096680	46837.300781
530.860352	47414.343750
529.624023	47419.167969
528.387695	47659.816406
527.151367	48008.445313
525.914063	48246.925781
524.676758	48569.773438
523.439453	48077.523438
522.202148	47697.371094
520.963867	47884.679688
519.725586	47247.593750
518.487305	47317.175781
517.249023	47074.777344
516.009766	46779.511719
514.771484	47170.769531
513.532227	46334.402344
512.291992	46572.679688
511.052734	46458.046875
509.812500	46735.398438
508.572266	47108.652344
507.332031	46823.546875
506.090820	46802.960938
504.850586	46901.828125
503.609375	46845.988281
502.368164	46884.125000
501.125977	47249.085938
499.884766	47024.921875
498.642578	47012.132813
497.400391	47104.968750
496.157227	47084.339844
494.915039	47288.574219
493.671875	47336.335938
492.428711	47247.261719
491.184570	47322.367188
489.941406	47549.839844
488.697266	47443.183594
487.453125	47533.828125
486.208984	47704.496094
484.963867	47603.726563
483.718750	47655.242188
482.473633	47792.605469
481.228516	48195.285156
479.982422	48195.929688
478.737305	48645.187500
477.491211	48780.300781
476.244141	48964.105469
474.998047	49202.421875
473.750977	49592.667969
472.503906	49667.082031
471.256836	49209.589844
470.009766	49835.300781
468.761719	49130.605469
467.513672	49623.687500
466.265625	49197.683594
465.017578	49316.843750
463.768555	49073.988281
462.519531	49358.507813
461.270508	49440.601563
460.021484	49289.265625
458.771484	49079.644531
457.521484	49426.152344
456.271484	49160.210938
455.021484	49621.234375
453.770508	49631.273438
452.519531	49773.417969
451.268555	49884.421875
450.017578	50030.343750
448.765625	50164.554688
447.514648	49735.742188
446.262695	50407.585938
445.009766	50885.121094
443.757813	50838.625000
442.504883	50848.394531
441.251953	50999.738281
439.999023	50982.324219
438.745117	50482.175781
437.492188	50311.730469
436.238281	50214.992188
434.983398	49614.507813
433.729492	49853.074219
432.474609	49444.632813
431.219727	49340.375000
429.964844	49028.988281
428.709961	48940.332031
427.454102	49254.269531
426.198242	49215.910156
424.942383	49049.871094
423.685547	48868.421875
422.429688	49079.628906
421.172852	48929.171875
419.916016	49033.957031
418.658203	49092.308594
417.401367	48872.359375
416.143555	48892.074219
414.885742	48944.617188
413.626953	48975.894531
412.369141	49151.984375
411.110352	48789.351563
409.851563	49509.742188
408.591797	48848.042969
407.333008	49242.050781
406.073242	48821.792969
404.813477	49254.226563
403.553711	49055.894531
402.292969	49036.945313
401.032227	49104.746094
