#Wave		#Intensity
2001.248047	33895.757813
2000.278320	33479.671875
1999.308594	34140.449219
1998.338867	33793.718750
1997.369141	33963.183594
1996.398438	33849.550781
1995.428711	34154.179688
1994.458008	34125.679688
1993.487305	33551.433594
1992.516602	33883.484375
1991.545898	34047.742188
1990.574219	34051.804688
1989.603516	34008.332031
1988.631836	33699.738281
1987.660156	33743.871094
1986.688477	33920.503906
1985.715820	34339.574219
1984.744141	33916.152344
1983.771484	34572.488281
1982.798828	34171.660156
1981.826172	34080.750000
1980.853516	34207.179688
1979.880859	34103.804688
1978.907227	33725.804688
1977.933594	34149.304688
1976.959961	34013.542969
1975.986328	33875.332031
1975.012695	33901.851563
1974.039063	34100.492188
1973.064453	33722.882813
1972.089844	34382.847656
1971.115234	34037.730469
1970.140625	34562.789063
1969.166016	33931.113281
1968.190430	34117.074219
1967.215820	33886.859375
1966.240234	34458.902344
1965.264648	34191.339844
1964.289063	34499.148438
1963.312500	34114.644531
1962.336914	34253.070313
1961.360352	34518.386719
1960.383789	34355.566406
1959.407227	34384.390625
1958.430664	33905.703125
1957.454102	34245.511719
1956.476563	34679.699219
1955.499023	34203.691406
1954.521484	34607.902344
1953.543945	34253.863281
1952.566406	34598.277344
1951.587891	34366.113281
1950.610352	33845.851563
1949.631836	34575.148438
1948.653320	34643.601563
1947.674805	34729.406250
1946.696289	34571.894531
1945.716797	34285.363281
1944.737305	33926.964844
1943.758789	34387.500000
1942.779297	34445.980469
1941.798828	34400.261719
1940.819336	34322.320313
1939.838867	34494.835938
1938.859375	34491.277344
1937.878906	34505.066406
1936.898438	34910.402344
1935.916992	34631.738281
1934.936523	34467.121094
1933.955078	34438.792969
1932.974609	35153.414063
1931.993164	34518.343750
1931.010742	34660.832031
1930.029297	34805.746094
1929.047852	34802.125000
1928.065430	34375.394531
1927.083008	34953.203125
1926.100586	34618.113281
1925.118164	34958.269531
1924.135742	34858.183594
1923.152344	34459.007813
1922.168945	34697.667969
1921.185547	34736.070313
1920.202148	34628.675781
1919.218750	34970.933594
1918.235352	35014.203125
1917.250977	34605.531250
1916.266602	35100.691406
1915.282227	34820.515625
1914.297852	34839.093750
1913.313477	35099.507813
1912.328125	34446.906250
1911.343750	34820.773438
1910.358398	34955.257813
1909.373047	34941.730469
1908.387695	34984.914063
1907.401367	34631.183594
1906.416016	34950.460938
1905.429688	34769.363281
1904.443359	34997.335938
1903.457031	35001.050781
1902.470703	34741.214844
1901.483398	35323.687500
1900.497070	34709.332031
1899.509766	34944.492188
1898.522461	35014.660156
1897.535156	35225.074219
1896.546875	35204.132813
1895.559570	35158.593750
1894.571289	35142.585938
1893.583008	34811.808594
1892.594727	35349.078125
1891.606445	34954.460938
1890.618164	35321.921875
1889.628906	34959.394531
1888.639648	35459.398438
1887.650391	35197.691406
1886.661133	35395.371094
1885.671875	35020.800781
1884.682617	35405.039063
1883.692383	35371.820313
1882.702148	35156.984375
1881.711914	35278.417969
1880.721680	35625.531250
1879.731445	35643.804688
1878.740234	35120.027344
1877.749023	35258.542969
1876.757813	35002.265625
1875.766602	35447.171875
1874.775391	35477.710938
1873.784180	35559.695313
1872.791992	35668.601563
1871.799805	35427.167969
1870.807617	35420.941406
1869.815430	35517.570313
1868.823242	35655.781250
1867.830078	35576.078125
1866.837891	35454.792969
1865.844727	35820.519531
1864.851563	35579.343750
1863.858398	36074.566406
1862.864258	35195.074219
1861.871094	35890.710938
1860.876953	35666.800781
1859.882813	35601.863281
1858.888672	35480.730469
1857.894531	36100.066406
1856.899414	35886.046875
1855.905273	35928.589844
1854.910156	35590.113281
1853.915039	35925.722656
1852.919922	35763.148438
1851.923828	35900.882813
1850.928711	35835.992188
1849.932617	35722.320313
1848.936523	36116.160156
1847.940430	35517.042969
1846.944336	36093.699219
1845.947266	36209.273438
1844.951172	36351.625000
1843.954102	35991.773438
1842.957031	36160.917969
1841.959961	36037.589844
1840.962891	36002.011719
1839.964844	36473.117188
1838.966797	36498.359375
1837.969727	36367.746094
1836.970703	36660.808594
1835.972656	36371.984375
1834.974609	36372.882813
1833.975586	36164.511719
1832.976563	36396.574219
1831.978516	37032.343750
1830.978516	36690.199219
1829.979492	36795.593750
1828.980469	36881.500000
1827.980469	36998.976563
1826.980469	36836.917969
1825.980469	36898.468750
1824.980469	36913.835938
1823.979492	37108.949219
1822.979492	36932.406250
1821.978516	36969.609375
1820.977539	36878.125000
1819.976563	36895.898438
1818.975586	37204.902344
1817.973633	37244.449219
1816.972656	36992.855469
1815.970703	36877.179688
1814.968750	37222.339844
1813.966797	36905.406250
1812.963867	36874.660156
1811.961914	37316.589844
1810.958984	37028.886719
1809.956055	37322.824219
1808.953125	37447.066406
1807.950195	37474.378906
1806.946289	37240.121094
1805.943359	37294.089844
1804.939453	37268.148438
1803.935547	37680.328125
1802.930664	37424.414063
1801.926758	37393.617188
1800.922852	37266.062500
1799.917969	37631.988281
1798.913086	37898.632813
1797.908203	37551.015625
1796.903320	37655.597656
1795.897461	37484.593750
1794.891602	37738.980469
1793.886719	37804.812500
1792.880859	37411.609375
1791.874023	38006.445313
1790.868164	37970.761719
1789.862305	37894.039063
1788.855469	38133.593750
1787.848633	38049.628906
1786.841797	37958.449219
1785.833984	38347.457031
1784.827148	38077.734375
1783.819336	38155.433594
1782.812500	38368.152344
1781.804688	38354.148438
1780.795898	38234.074219
1779.788086	38273.121094
1778.779297	38666.402344
1777.771484	38365.621094
1776.762695	38570.843750
1775.753906	38761.539063
1774.744141	38906.406250
1773.735352	38981.402344
1772.725586	39037.105469
1771.715820	38835.253906
1770.706055	38912.621094
1769.696289	39045.300781
1768.686523	38870.011719
1767.675781	38944.921875
1766.666016	39024.613281
1765.655273	39457.714844
1764.644531	38919.476563
1763.632813	39025.566406
1762.622070	39290.214844
1761.610352	39408.210938
1760.598633	39487.726563
1759.586914	39588.832031
1758.575195	39248.042969
1757.563477	39946.988281
1756.550781	39474.226563
1755.538086	39640.054688
1754.525391	39724.234375
1753.512695	39983.531250
1752.500000	39868.515625
1751.486328	39907.035156
1750.473633	40096.617188
1749.459961	40319.691406
1748.446289	40636.175781
1747.432617	40267.085938
1746.417969	40358.214844
1745.404297	40504.410156
1744.389648	40367.894531
1743.375000	40902.027344
1742.360352	40767.882813
1741.344727	40674.480469
1740.330078	40741.492188
1739.314453	41215.339844
1738.298828	41325.300781
1737.283203	41198.367188
1736.267578	41329.816406
1735.251953	41353.593750
1734.235352	41477.792969
1733.218750	41668.890625
1732.202148	42275.835938
1731.185547	41960.054688
1730.168945	42676.648438
1729.151367	42382.406250
1728.133789	42807.250000
1727.117188	42962.074219
1726.098633	43028.492188
1725.081055	43221.417969
1724.063477	43197.054688
1723.044922	43905.371094
1722.026367	43871.351563
1721.007813	44207.125000
1719.989258	44530.851563
1718.970703	44317.867188
1717.951172	44777.371094
1716.931641	44500.046875
1715.912109	45145.269531
1714.892578	45242.132813
1713.873047	45517.664063
1712.853516	45123.664063
1711.833008	45551.562500
1710.812500	45388.695313
1709.791992	45421.132813
1708.771484	45241.675781
1707.750000	45709.703125
1706.729492	45418.410156
1705.708008	45860.062500
1704.686523	45863.832031
1703.665039	45998.414063
1702.642578	45624.031250
1701.621094	45658.746094
1700.598633	46233.082031
1699.576172	45680.589844
1698.553711	45729.523438
1697.531250	45809.332031
1696.507813	45962.750000
1695.485352	46199.242188
1694.461914	46302.660156
1693.438477	45883.695313
1692.415039	46324.226563
1691.390625	46391.960938
1690.367188	46426.449219
1689.342773	46425.332031
1688.318359	46697.019531
1687.293945	46657.902344
1686.269531	47240.097656
1685.244141	46935.351563
1684.218750	47510.175781
1683.194336	47354.796875
1682.168945	47592.843750
1681.142578	47854.496094
1680.117188	47654.128906
1679.090820	47382.777344
1678.064453	47994.785156
1677.038086	48088.074219
1676.011719	48202.632813
1674.985352	48485.187500
1673.958008	48206.820313
1672.931641	48605.199219
1671.904297	48260.671875
1670.876953	48651.800781
1669.848633	48404.335938
1668.821289	48863.859375
1667.792969	48670.804688
1666.764648	48508.542969
1665.736328	49194.640625
1664.708008	49174.093750
1663.679688	49047.253906
1662.650391	48960.605469
1661.621094	49473.753906
1660.591797	49202.910156
1659.562500	49704.027344
1658.533203	49053.269531
1657.502930	49417.375000
1656.472656	49224.578125
1655.442383	49324.335938
1654.412109	49478.300781
1653.381836	49247.863281
1652.351563	49710.613281
1651.320313	49345.859375
1650.289063	49483.203125
1649.257813	49439.066406
1648.226563	49371.382813
1647.194336	49539.261719
1646.163086	49756.539063
1645.130859	49632.320313
1644.098633	49665.871094
1643.066406	50078.363281
1642.033203	49297.566406
1641.000977	49677.031250
1639.967773	49837.578125
1638.934570	49753.449219
1637.901367	50551.218750
1636.868164	50288.296875
1635.833984	50458.015625
1634.800781	49974.261719
1633.766602	50905.363281
1632.732422	50565.019531
1631.697266	50816.781250
1630.663086	51430.156250
1629.627930	51512.589844
1628.593750	51531.601563
1627.558594	51329.937500
1626.522461	51400.605469
1625.487305	51985.160156
1624.451172	52250.417969
1623.416016	51511.570313
1622.379883	52121.585938
1621.343750	52661.035156
1620.306641	52363.281250
1619.270508	53143.933594
1618.233398	53743.839844
1617.196289	54266.203125
1616.159180	55142.152344
1615.122070	56172.390625
1614.083984	57087.500000
1613.046875	57555.027344
1612.008789	58113.695313
1610.970703	58882.835938
1609.932617	58341.082031
1608.893555	58632.546875
1607.855469	58271.171875
1606.816406	56721.640625
1605.777344	56879.925781
1604.738281	56315.617188
1603.698242	55513.042969
1602.659180	55066.046875
1601.619141	53876.023438
1600.579102	53303.296875
1599.539063	53109.238281
1598.499023	53349.703125
1597.458008	52079.089844
1596.417969	51320.285156
1595.376953	51733.691406
1594.335938	51472.382813
1593.294922	51269.511719
1592.252930	51146.039063
1591.210938	50859.308594
1590.169922	50798.929688
1589.127930	50386.425781
1588.084961	50792.476563
1587.042969	50694.832031
1586.000000	50737.070313
1584.958008	51005.339844
1583.915039	51520.488281
1582.872070	51406.472656
1581.828125	51916.703125
1580.785156	52047.167969
1579.741211	52526.832031
1578.697266	52403.394531
1577.653320	52035.613281
1576.609375	52573.191406
1575.564453	53152.457031
1574.520508	52733.554688
1573.475586	53205.593750
1572.430664	53256.558594
1571.384766	53460.957031
1570.339844	53053.910156
1569.293945	52721.382813
1568.249023	52765.421875
1567.202148	52409.828125
1566.156250	51552.605469
1565.110352	51617.722656
1564.063477	51274.128906
1563.017578	51109.421875
1561.970703	50694.074219
1560.922852	50197.648438
1559.875977	49789.570313
1558.829102	49455.875000
1557.781250	49426.167969
1556.733398	49364.000000
1555.685547	49487.355469
1554.636719	49112.214844
1553.588867	49286.562500
1552.540039	48802.664063
1551.491211	49150.781250
1550.442383	48843.144531
1549.393555	48269.246094
1548.344727	48489.894531
1547.294922	48703.515625
1546.245117	48579.058594
1545.195313	48676.851563
1544.145508	48969.003906
1543.094727	49168.496094
1542.044922	48627.628906
1540.994141	48864.113281
1539.943359	49026.507813
1538.892578	48599.246094
1537.840820	48835.601563
1536.790039	49155.082031
1535.738281	49647.761719
1534.686523	49005.808594
1533.634766	49565.328125
1532.583008	49233.113281
1531.530273	49355.937500
1530.477539	49469.480469
1529.424805	49236.714844
1528.372070	49461.019531
1527.319336	48951.421875
1526.265625	49272.593750
1525.212891	49930.441406
1524.159180	49404.882813
1523.105469	49100.882813
1522.051758	49288.070313
1520.997070	49221.621094
1519.942383	49570.046875
1518.888672	49051.925781
1517.833984	48974.031250
1516.778320	48990.605469
1515.723633	48493.585938
1514.667969	48618.460938
1513.612305	48379.535156
1512.556641	48113.070313
1511.500977	48373.722656
1510.445313	48328.250000
1509.388672	48193.062500
1508.332031	47634.687500
1507.275391	47968.828125
1506.218750	48362.628906
1505.162109	47767.734375
1504.104492	48136.144531
1503.047852	48350.441406
1501.990234	47776.542969
1500.931641	47880.554688
1499.874023	47956.964844
1498.816406	48042.531250
1497.757813	48378.335938
1496.699219	48369.667969
1495.640625	48136.070313
1494.582031	48047.125000
1493.522461	48288.609375
1492.462891	48380.894531
1491.403320	48360.757813
1490.343750	48446.113281
1489.284180	48311.328125
1488.224609	48515.859375
1487.164063	48417.777344
1486.103516	47964.539063
1485.042969	47894.078125
1483.982422	48219.941406
1482.920898	48092.199219
1481.860352	47969.082031
1480.798828	48585.515625
1479.737305	48508.132813
1478.675781	48945.726563
1477.613281	49001.023438
1476.550781	48500.343750
1475.489258	48907.964844
1474.426758	49262.832031
1473.363281	48890.421875
1472.300781	49032.542969
1471.237305	48966.601563
1470.174805	49302.914063
1469.111328	48896.480469
1468.046875	49027.066406
1466.983398	49187.300781
1465.919922	49064.285156
1464.855469	49114.847656
1463.791016	49608.281250
1462.726563	49647.312500
1461.661133	49757.074219
1460.596680	49985.441406
1459.531250	49791.683594
1458.465820	49830.644531
1457.400391	49655.226563
1456.334961	49890.277344
1455.268555	49863.085938
1454.202148	50031.914063
1453.135742	50171.058594
1452.069336	50430.902344
1451.002930	50679.265625
1449.935547	50713.437500
1448.869141	50859.183594
1447.801758	50852.324219
1446.734375	51116.359375
1445.666016	51698.933594
1444.598633	51616.828125
1443.530273	52171.796875
1442.461914	52483.164063
1441.393555	52485.105469
1440.325195	53107.832031
1439.256836	52989.160156
1438.187500	53643.390625
1437.118164	53667.839844
1436.048828	53980.863281
1434.979492	54148.371094
1433.909180	54408.945313
1432.839844	54455.945313
1431.769531	54039.707031
1430.699219	54434.097656
1429.627930	54560.503906
1428.557617	54677.785156
1427.486328	55080.917969
1426.416016	54782.898438
1425.343750	55360.519531
1424.272461	55212.226563
1423.201172	55519.734375
1422.128906	55337.460938
1421.056641	56354.273438
1419.984375	56169.640625
1418.912109	56268.296875
1417.839844	55879.855469
1416.766602	56440.574219
1415.693359	56093.003906
1414.620117	55643.667969
1413.546875	55325.789063
1412.473633	55802.449219
1411.399414	54602.109375
1410.325195	54863.785156
1409.250977	54862.960938
1408.176758	54961.648438
1407.102539	55854.015625
1406.027344	55877.875000
1404.952148	56516.574219
1403.876953	56341.417969
1402.801758	56961.722656
1401.726563	57310.691406
1400.650391	57476.562500
1399.574219	57235.851563
1398.498047	57449.093750
1397.421875	57551.628906
1396.345703	56441.996094
1395.268555	56625.917969
1394.191406	56320.128906
1393.114258	55876.832031
1392.037109	55884.812500
1390.959961	55398.898438
1389.881836	55925.558594
1388.804688	55931.265625
1387.726563	55684.519531
1386.647461	56113.933594
1385.569336	56180.429688
1384.491211	57093.937500
1383.412109	57119.687500
1382.333008	57264.777344
1381.253906	57315.250000
1380.173828	57277.906250
1379.094727	57296.843750
1378.014648	57331.519531
1376.934570	57138.941406
1375.854492	57025.164063
1374.773438	56978.898438
1373.693359	56440.179688
1372.612305	55840.949219
1371.531250	55556.636719
1370.450195	55629.777344
1369.369141	55345.601563
1368.287109	54520.078125
1367.205078	54835.953125
1366.123047	54269.089844
1365.041016	54248.070313
1363.958984	54103.582031
1362.875977	54001.792969
1361.793945	53985.316406
1360.710938	54220.156250
1359.626953	53941.160156
1358.543945	53583.757813
1357.460938	53542.691406
1356.376953	53681.015625
1355.292969	53005.511719
1354.208984	53278.363281
1353.124023	53564.558594
1352.040039	53109.011719
1350.955078	53289.839844
1349.870117	53412.367188
1348.785156	52851.835938
1347.700195	53961.789063
1346.614258	53327.480469
1345.528320	53333.519531
1344.442383	53715.500000
1343.356445	53520.097656
1342.270508	53425.425781
1341.183594	53350.917969
1340.096680	53857.835938
1339.009766	53993.429688
1337.922852	53845.085938
1336.835938	54157.191406
1335.748047	53834.574219
1334.661133	54142.093750
1333.573242	54442.800781
1332.484375	54278.863281
1331.396484	54400.800781
1330.307617	54172.183594
1329.219727	53997.214844
1328.130859	54889.070313
1327.041992	54928.238281
1325.952148	54882.617188
1324.863281	54132.167969
1323.773438	54345.394531
1322.683594	54175.031250
1321.593750	54885.300781
1320.502930	54480.863281
1319.413086	54185.765625
1318.322266	54256.179688
1317.231445	53954.539063
1316.140625	54503.832031
1315.048828	54340.320313
1313.958008	54350.531250
1312.866211	54151.484375
1311.774414	54753.750000
1310.682617	54352.195313
1309.589844	54380.187500
1308.498047	54330.308594
1307.405273	55557.058594
1306.312500	55675.976563
1305.218750	56115.000000
1304.125977	56433.828125
1303.032227	57752.644531
1301.939453	58175.492188
1300.845703	59240.242188
1299.750977	60169.105469
1298.657227	61268.636719
1297.562500	62307.816406
1296.467773	63597.480469
1295.373047	63949.988281
1294.278320	64357.843750
1293.183594	64301.816406
1292.087891	64077.203125
1290.992188	63271.546875
1289.896484	62685.722656
1288.800781	61989.246094
1287.704102	61062.468750
1286.608398	60062.886719
1285.511719	60018.765625
1284.415039	58997.570313
1283.317383	58091.933594
1282.220703	57983.957031
1281.123047	57902.593750
1280.025391	57298.746094
1278.927734	56843.425781
1277.830078	56275.398438
1276.731445	56524.097656
1275.633789	56706.335938
1274.535156	56461.585938
1273.436523	55655.171875
1272.336914	55669.406250
1271.238281	55376.332031
1270.138672	55543.125000
1269.039063	55102.105469
1267.939453	54946.281250
1266.839844	54587.265625
1265.739258	54787.203125
1264.638672	54183.210938
1263.538086	54564.199219
1262.437500	53830.210938
1261.336914	54191.257813
1260.235352	53927.648438
1259.134766	54107.617188
1258.033203	53835.289063
1256.930664	53600.550781
1255.829102	53515.851563
1254.726563	53836.863281
1253.625000	53042.328125
1252.522461	53127.476563
1251.418945	53468.207031
1250.316406	52982.613281
1249.212891	52587.507813
1248.110352	52756.359375
1247.006836	52656.503906
1245.902344	52400.367188
1244.798828	52500.914063
1243.694336	52720.269531
1242.589844	52420.242188
1241.485352	52771.527344
1240.380859	51961.289063
1239.276367	52404.890625
1238.170898	52360.195313
1237.065430	52693.640625
1235.959961	52848.921875
1234.854492	52421.777344
1233.748047	52043.125000
1232.642578	52708.093750
1231.536133	52847.875000
1230.429688	52660.398438
1229.322266	52725.484375
1228.215820	53269.097656
1227.108398	53399.886719
1226.000977	53583.292969
1224.893555	53288.335938
1223.786133	54204.359375
1222.677734	53652.785156
1221.569336	54132.031250
1220.460938	53935.839844
1219.352539	53989.605469
1218.244141	53615.980469
1217.134766	52997.070313
1216.025391	53079.453125
1214.916016	53330.464844
1213.806641	52742.597656
1212.697266	52897.230469
1211.586914	52933.585938
1210.476563	53175.679688
1209.366211	52986.554688
1208.255859	53018.492188
1207.145508	53100.730469
1206.034180	53384.164063
1204.922852	53512.226563
1203.811523	53861.070313
1202.700195	53538.664063
1201.587891	53607.609375
1200.476563	53971.535156
1199.364258	53557.515625
1198.251953	53598.011719
1197.138672	54066.570313
1196.026367	54017.425781
1194.913086	54142.957031
1193.799805	54128.738281
1192.686523	54140.710938
1191.573242	54429.800781
1190.458984	54136.273438
1189.344727	54307.464844
1188.230469	54389.175781
1187.116211	53731.667969
1186.001953	54275.625000
1184.886719	53733.898438
1183.772461	53697.960938
1182.657227	53714.328125
1181.541016	53567.300781
1180.425781	53211.226563
1179.309570	53377.929688
1178.193359	53607.710938
1177.077148	53223.515625
1175.960938	53451.058594
1174.844727	53574.066406
1173.727539	52726.648438
1172.610352	52318.957031
1171.493164	52537.789063
1170.375977	52191.164063
1169.257813	52070.769531
1168.139648	51993.894531
1167.022461	52316.941406
1165.903320	52537.738281
1164.785156	52189.242188
1163.666992	52177.554688
1162.547852	51937.835938
1161.428711	52091.222656
1160.309570	51790.812500
1159.189453	51774.859375
1158.070313	51824.011719
1156.950195	51324.187500
1155.830078	51844.160156
1154.709961	51476.820313
1153.588867	52330.535156
1152.468750	51794.117188
1151.347656	51710.964844
1150.226563	51775.222656
1149.104492	51895.796875
1147.983398	51617.667969
1146.861328	51597.421875
1145.739258	51503.539063
1144.617188	52535.714844
1143.495117	52461.179688
1142.372070	52789.289063
1141.250000	52796.968750
1140.126953	52808.972656
1139.003906	52805.824219
1137.879883	52990.859375
1136.756836	52710.851563
1135.632813	52874.210938
1134.508789	52762.949219
1133.384766	53151.031250
1132.259766	52741.523438
1131.135742	52686.515625
1130.010742	52957.734375
1128.885742	53004.222656
1127.759766	52422.269531
1126.634766	52544.402344
1125.508789	52571.503906
1124.382813	52639.597656
1123.256836	52330.027344
1122.130859	52624.683594
1121.003906	53249.269531
1119.877930	52881.519531
1118.750977	52492.335938
1117.624023	52321.046875
1116.496094	52591.710938
1115.369141	52396.753906
1114.241211	51951.910156
1113.113281	52595.195313
1111.985352	52327.101563
1110.856445	52677.191406
1109.728516	52318.738281
1108.599609	52418.968750
1107.470703	52743.011719
1106.340820	52675.261719
1105.211914	52491.347656
1104.082031	52507.562500
1102.952148	52515.167969
1101.822266	52051.816406
1100.692383	52339.007813
1099.561523	52701.324219
1098.431641	52642.253906
1097.300781	52411.289063
1096.169922	52665.964844
1095.038086	52432.925781
1093.907227	52212.859375
1092.775391	52203.304688
1091.643555	51873.863281
1090.511719	52132.683594
1089.378906	51872.046875
1088.246094	51575.023438
1087.114258	51574.164063
1085.980469	51753.480469
1084.847656	51855.527344
1083.714844	52105.476563
1082.581055	51330.609375
1081.447266	51535.550781
1080.313477	51498.257813
1079.179688	51640.953125
1078.044922	51811.441406
1076.910156	51579.203125
1075.775391	51985.195313
1074.640625	51984.238281
1073.505859	51985.417969
1072.370117	52376.121094
1071.234375	52567.675781
1070.098633	52767.710938
1068.962891	52706.707031
1067.826172	52493.875000
1066.690430	53164.234375
1065.553711	52793.187500
1064.416992	52693.738281
1063.279297	53583.804688
1062.142578	53180.828125
1061.004883	52978.812500
1059.867188	52928.519531
1058.729492	52630.519531
1057.590820	52539.734375
1056.453125	52600.550781
1055.314453	52748.851563
1054.175781	52585.535156
1053.037109	52426.539063
1051.897461	52026.550781
1050.757813	52132.183594
1049.618164	52152.476563
1048.478516	52449.921875
1047.338867	51990.527344
1046.199219	52313.464844
1045.058594	51884.093750
1043.917969	52121.707031
1042.777344	51963.042969
1041.635742	51915.171875
1040.495117	52142.000000
1039.353516	52049.406250
1038.211914	52131.378906
1037.069336	51800.468750
1035.927734	51507.972656
1034.785156	51898.460938
1033.642578	51682.621094
1032.500000	51611.464844
1031.357422	51410.636719
1030.213867	51569.132813
1029.071289	51891.226563
1027.927734	51998.574219
1026.783203	51825.429688
1025.639648	51484.539063
1024.495117	51562.160156
1023.351563	52389.324219
1022.207031	51727.929688
1021.061523	51599.558594
1019.916992	52137.625000
1018.771484	51928.593750
1017.625977	52112.109375
1016.480469	51837.398438
1015.334961	52472.566406
1014.188477	51845.914063
1013.041992	52550.804688
1011.895508	51636.105469
1010.749023	51972.039063
1009.602539	51907.398438
1008.455078	51747.457031
1007.307617	52233.550781
1006.160156	51533.617188
1005.012695	51917.941406
1003.864258	51880.878906
1002.716797	52586.691406
1001.568359	52261.734375
1000.419922	53265.519531
999.270508	53120.347656
998.122070	52992.148438
996.972656	53310.144531
995.823242	53148.128906
994.673828	53028.441406
993.523438	53388.515625
992.373047	53120.917969
991.222656	53163.960938
990.072266	52888.050781
988.921875	53013.472656
987.771484	53257.082031
986.620117	53629.371094
985.468750	52885.015625
984.317383	53221.359375
983.165039	53156.707031
982.013672	53530.839844
980.861328	53552.625000
979.708984	53802.128906
978.555664	53975.644531
977.403320	53809.726563
976.250000	53766.101563
975.096680	53680.343750
973.943359	53790.542969
972.790039	53100.296875
971.635742	53412.726563
970.481445	53194.441406
969.327148	53350.953125
968.172852	53096.972656
967.018555	53202.937500
965.863281	52734.464844
964.708008	52667.953125
963.552734	52959.011719
962.397461	52497.144531
961.241211	52855.402344
960.084961	52446.273438
958.929688	52402.980469
957.772461	52544.617188
956.616211	52860.570313
955.458984	52689.089844
954.301758	53368.218750
953.144531	53060.218750
951.987305	52867.796875
950.830078	52727.914063
949.671875	52972.121094
948.513672	52551.109375
947.355469	53070.066406
946.196289	53007.843750
945.038086	52945.644531
943.878906	52933.785156
942.719727	53083.335938
941.560547	53375.351563
940.400391	54000.433594
939.241211	53632.214844
938.081055	53680.972656
936.919922	53874.218750
935.759766	53650.695313
934.599609	54139.062500
933.438477	53438.328125
932.277344	53901.433594
931.116211	54000.292969
929.954102	54400.359375
928.791992	54361.035156
927.630859	54263.171875
926.467773	54836.500000
925.305664	54151.160156
924.143555	54414.960938
922.980469	54198.039063
921.817383	54271.605469
920.654297	54240.695313
919.490234	54602.437500
918.327148	54688.406250
917.163086	54707.535156
915.999023	54607.675781
914.833984	54768.722656
913.669922	55226.003906
912.504883	55126.097656
911.339844	55614.425781
910.174805	55599.980469
909.008789	55923.316406
907.843750	56106.859375
906.677734	56523.769531
905.511719	56594.597656
904.345703	56307.031250
903.178711	55746.679688
902.011719	55919.656250
900.844727	55392.894531
899.677734	55016.230469
898.510742	55056.015625
897.342773	54816.906250
896.174805	54871.277344
895.006836	55050.453125
893.838867	54703.304688
892.670898	54634.960938
891.501953	54454.355469
890.333008	55015.980469
889.164063	54180.636719
887.994141	55039.273438
886.825195	54470.179688
885.655273	54649.144531
884.485352	54564.261719
883.315430	54687.070313
882.144531	55034.058594
880.973633	55038.406250
879.803711	54758.414063
878.631836	54737.906250
877.460938	54777.570313
876.289063	55072.351563
875.118164	55037.273438
873.945313	55311.156250
872.773438	55607.742188
871.601563	55790.214844
870.428711	55500.117188
869.255859	55736.410156
868.083008	55429.851563
866.910156	55643.277344
865.736328	55985.015625
864.562500	55976.718750
863.388672	56471.449219
862.214844	56473.406250
861.040039	56696.777344
859.866211	57182.816406
858.691406	56826.777344
857.516602	56834.863281
856.340820	56836.742188
855.166016	57121.847656
853.990234	56710.265625
852.814453	56765.886719
851.637695	56871.078125
850.461914	56631.226563
849.285156	56947.078125
848.108398	56948.910156
846.931641	56959.003906
845.754883	57450.074219
844.577148	57837.765625
843.399414	57701.164063
842.221680	57983.437500
841.043945	58764.796875
839.865234	59597.425781
838.687500	60415.308594
837.508789	61100.941406
836.329102	61437.960938
835.150391	62088.109375
833.970703	62037.445313
832.791992	61512.968750
831.611328	60506.707031
830.431641	60503.718750
829.251953	59518.601563
828.071289	58974.382813
826.890625	58033.132813
825.709961	57693.109375
824.528320	57840.828125
823.347656	57155.378906
822.166016	57175.621094
820.984375	56838.054688
819.801758	56502.671875
818.620117	56459.292969
817.437500	55918.582031
816.254883	55934.914063
815.072266	56195.707031
813.888672	55955.222656
812.706055	55472.500000
811.522461	55267.140625
810.338867	55199.394531
809.154297	55542.171875
807.970703	55509.281250
806.786133	55240.453125
805.601563	55636.355469
804.416992	55295.816406
803.231445	54902.085938
802.045898	55584.851563
800.861328	55502.781250
799.674805	55291.621094
798.489258	55043.656250
797.302734	54674.910156
796.117188	54677.039063
794.930664	54867.570313
793.743164	55141.976563
792.556641	54750.957031
791.369141	54726.453125
790.181641	54984.355469
788.994141	54429.894531
787.805664	54378.859375
786.618164	54466.921875
785.429688	54681.726563
784.241211	54475.285156
783.052734	54405.875000
781.863281	54638.960938
780.673828	54117.960938
779.484375	53956.714844
778.294922	54044.722656
777.105469	53959.105469
775.915039	53859.226563
774.724609	53667.515625
773.534180	54090.234375
772.343750	53945.484375
771.152344	53951.765625
769.960938	53947.843750
768.769531	53948.003906
767.578125	54201.011719
766.385742	54535.476563
765.194336	54358.175781
764.001953	54712.863281
762.808594	54533.550781
761.616211	54934.925781
760.422852	55063.203125
759.230469	54606.957031
758.037109	55682.042969
756.842773	55236.023438
755.649414	55585.996094
754.455078	55469.820313
753.260742	56132.945313
752.066406	55963.820313
750.871094	55823.226563
749.676758	55613.542969
748.481445	55365.308594
747.286133	55233.031250
746.089844	54911.789063
744.894531	54487.035156
743.698242	55202.156250
742.501953	54564.226563
741.304688	54422.050781
740.108398	54442.363281
738.911133	54249.507813
737.713867	53908.554688
736.516602	54324.660156
735.319336	53803.238281
734.121094	53943.320313
732.922852	53878.500000
731.724609	53746.785156
730.526367	53878.679688
729.327148	54261.878906
728.127930	53459.332031
726.928711	53726.960938
725.729492	53692.625000
724.530273	53174.203125
723.330078	53283.765625
722.129883	53697.000000
720.929688	53577.664063
719.728516	53798.402344
718.528320	53341.140625
717.327148	53169.324219
716.125977	53622.640625
714.923828	53829.039063
713.722656	54049.515625
712.520508	53447.050781
711.318359	53796.878906
710.116211	53938.406250
708.913086	54166.769531
707.710938	53788.972656
706.507813	53572.902344
705.304688	53853.703125
704.100586	53603.371094
702.897461	54320.101563
701.693359	54239.312500
700.489258	54368.421875
699.284180	54957.496094
698.080078	54461.074219
696.875000	54594.097656
695.669922	55144.476563
694.464844	54902.320313
693.258789	55212.562500
692.053711	55121.628906
690.847656	55967.687500
689.641602	56408.496094
688.434570	56385.867188
687.228516	56568.652344
686.021484	56411.097656
684.814453	56005.984375
683.607422	55880.789063
682.399414	55194.199219
681.191406	55083.281250
679.983398	54817.511719
678.775391	54497.535156
677.567383	54746.738281
676.358398	54744.539063
675.149414	54565.453125
673.940430	54543.187500
672.730469	54653.542969
671.521484	54783.945313
670.311523	54633.097656
669.101563	54608.816406
667.890625	54610.644531
666.680664	54194.921875
665.469727	54263.054688
664.258789	54345.207031
663.047852	53835.464844
661.835938	54162.386719
660.625000	54072.023438
659.413086	53406.203125
658.201172	53718.980469
656.988281	54123.843750
655.776367	54025.531250
654.563477	53780.980469
653.350586	53877.085938
652.136719	53552.535156
650.923828	54055.160156
649.709961	53714.675781
648.496094	54295.148438
647.282227	53846.664063
646.067383	53958.640625
644.852539	53802.480469
643.637695	53814.406250
642.422852	53568.328125
641.208008	54156.160156
639.992188	54275.960938
638.776367	54667.550781
637.560547	54541.394531
636.344727	54507.195313
635.127930	54594.863281
633.911133	54516.722656
632.694336	54302.812500
631.477539	54208.777344
630.259766	53909.164063
629.042969	54174.480469
627.825195	53900.921875
626.606445	54014.511719
625.388672	54044.273438
624.169922	53828.722656
622.951172	53659.109375
621.732422	53960.042969
620.513672	54085.457031
619.293945	53953.750000
618.074219	53487.355469
616.854492	53758.203125
615.634766	53865.625000
614.414063	53732.054688
613.193359	53632.378906
611.972656	54380.726563
610.751953	54107.812500
609.530273	53580.300781
608.309570	54182.996094
607.087891	54341.898438
605.866211	53810.652344
604.643555	54693.316406
603.420898	54142.320313
602.198242	54183.832031
600.975586	54418.085938
599.752930	54689.996094
598.529297	54878.375000
597.305664	54774.718750
596.082031	54788.261719
594.858398	54676.714844
593.633789	55226.210938
592.410156	55255.527344
591.185547	55451.507813
589.959961	55675.183594
588.735352	55807.535156
587.509766	56475.273438
586.284180	56311.988281
585.058594	56878.277344
583.832031	57428.492188
582.606445	57108.562500
581.379883	58003.261719
580.153320	58134.984375
578.925781	58488.468750
577.699219	58804.195313
576.471680	59581.085938
575.244141	59383.816406
574.015625	59445.875000
572.788086	59557.371094
571.559570	59641.128906
570.331055	59078.074219
569.101563	58958.199219
567.873047	58907.562500
566.643555	57874.480469
565.414063	57986.132813
564.184570	57202.585938
562.954102	56371.917969
561.724609	56140.078125
560.494141	55977.445313
559.263672	55463.394531
558.032227	55241.718750
556.800781	55523.445313
555.570313	55649.164063
554.337891	54908.652344
553.106445	54699.070313
551.874023	54655.242188
550.642578	54347.187500
549.409180	54179.226563
548.176758	54626.347656
546.944336	54367.734375
545.710938	54158.476563
544.477539	53961.117188
543.243164	54476.871094
542.009766	54098.339844
540.775391	54310.644531
539.541016	54326.003906
538.306641	54134.691406
537.071289	54276.015625
535.836914	53795.554688
534.601563	54434.574219
533.366211	53989.660156
532.129883	53511.484375
530.894531	54177.710938
529.658203	54149.804688
528.421875	54009.890625
527.184570	54410.375000
525.948242	54278.316406
524.710938	54150.230469
523.473633	53929.894531
522.235352	54080.726563
520.998047	54447.437500
519.759766	54242.863281
518.521484	54407.277344
517.283203	54991.488281
516.043945	54896.765625
514.804688	55455.164063
513.565430	55130.964844
512.326172	55444.042969
511.085938	55435.542969
509.846680	55042.933594
508.606445	55056.062500
507.366211	55361.070313
506.125000	54945.187500
504.883789	55040.562500
503.643555	54877.457031
502.401367	54643.941406
501.160156	54653.199219
499.917969	54333.710938
498.675781	54765.601563
497.433594	54473.589844
496.191406	54574.777344
494.948242	54435.421875
493.705078	54176.867188
492.461914	54864.414063
491.218750	54588.281250
489.975586	54523.261719
488.731445	54399.664063
487.487305	54467.511719
486.242188	54707.167969
484.998047	54603.117188
483.752930	54936.347656
482.507813	54953.289063
481.262695	54937.050781
480.016602	54813.519531
478.771484	54730.992188
477.525391	54673.843750
476.278320	54946.226563
475.032227	55152.222656
473.785156	55124.253906
472.538086	55298.953125
471.291016	55502.812500
470.043945	55533.222656
468.795898	55329.914063
467.547852	55463.542969
466.299805	55723.660156
465.051758	56154.964844
463.802734	56037.308594
462.553711	56277.703125
461.304688	56368.214844
460.055664	56730.988281
458.805664	57173.347656
457.555664	56843.675781
456.305664	57315.000000
455.055664	57655.925781
453.804688	58107.480469
452.553711	57995.460938
451.302734	58015.562500
450.051758	57928.839844
448.799805	59168.308594
447.548828	59508.480469
446.296875	59737.890625
445.043945	60844.343750
443.791992	60937.593750
442.539063	61050.203125
441.286133	61548.718750
440.033203	61321.824219
438.779297	60540.535156
437.526367	59108.253906
436.272461	58438.140625
435.017578	57570.640625
433.763672	57290.457031
432.508789	57142.082031
431.253906	56621.949219
429.999023	56193.011719
428.744141	56234.628906
427.488281	56003.335938
426.232422	55837.917969
424.976563	55835.074219
423.720703	55706.496094
422.463867	55794.570313
421.207031	55586.765625
419.950195	55612.957031
418.693359	55405.261719
417.435547	55180.253906
416.177734	55252.871094
414.919922	55288.753906
413.662109	55542.871094
412.403320	55072.750000
411.144531	55035.277344
409.885742	55152.238281
408.626953	55006.679688
407.367188	54868.894531
406.107422	55471.968750
404.847656	54931.015625
403.587891	55271.570313
402.327148	54979.582031
401.067383	55400.960938
