#Wave		#Intensity
2001.242188	32166.218750
2000.272461	32547.208984
1999.302734	32140.554688
1998.333008	32636.074219
1997.363281	32620.355469
1996.392578	32314.087891
1995.422852	32568.896484
1994.452148	32425.496094
1993.481445	31731.380859
1992.510742	32181.390625
1991.540039	32541.148438
1990.568359	32580.505859
1989.596680	31926.871094
1988.625977	32231.453125
1987.654297	32480.910156
1986.681641	32277.703125
1985.709961	32627.060547
1984.738281	31988.980469
1983.765625	32465.716797
1982.792969	32060.259766
1981.820313	32524.324219
1980.847656	32168.951172
1979.874023	31956.050781
1978.901367	32427.376953
1977.927734	32583.980469
1976.954102	32465.964844
1975.980469	32268.128906
1975.006836	31983.031250
1974.032227	32279.302734
1973.058594	32121.509766
1972.083984	32764.296875
1971.109375	32337.181641
1970.134766	32448.699219
1969.160156	32325.875000
1968.184570	32215.554688
1967.209961	32239.822266
1966.234375	32161.939453
1965.258789	32537.408203
1964.283203	32250.306641
1963.306641	32070.371094
1962.331055	32363.503906
1961.354492	31745.533203
1960.377930	32008.751953
1959.401367	31963.341797
1958.424805	32303.550781
1957.447266	31962.109375
1956.470703	32197.748047
1955.493164	31853.957031
1954.515625	32005.001953
1953.538086	31860.210938
1952.560547	31819.843750
1951.582031	31687.554688
1950.604492	31828.582031
1949.625977	32116.105469
1948.647461	31929.195313
1947.668945	32325.849609
1946.689453	32076.902344
1945.710938	31967.041016
1944.731445	31973.853516
1943.751953	32151.867188
1942.772461	32056.929688
1941.792969	31733.830078
1940.813477	31626.597656
1939.833008	31945.875000
1938.852539	31727.080078
1937.873047	31991.695313
1936.891602	31691.187500
1935.911133	31762.449219
1934.930664	31724.681641
1933.949219	31753.800781
1932.967773	31936.451172
1931.986328	32151.222656
1931.004883	32021.812500
1930.023438	31882.542969
1929.041016	32089.785156
1928.059570	31824.361328
1927.077148	31833.628906
1926.094727	31687.066406
1925.112305	32171.167969
1924.128906	32177.892578
1923.146484	32053.591797
1922.163086	31620.371094
1921.179688	31918.794922
1920.196289	31883.550781
1919.212891	31818.673828
1918.228516	32183.589844
1917.245117	31476.603516
1916.260742	31764.906250
1915.276367	32253.070313
1914.291992	31985.783203
1913.307617	32036.935547
1912.322266	31824.060547
1911.336914	31737.070313
1910.352539	31968.289063
1909.367188	32290.669922
1908.380859	31695.720703
1907.395508	31990.916016
1906.409180	32128.263672
1905.423828	32117.699219
1904.437500	31855.818359
1903.451172	32108.896484
1902.463867	31938.240234
1901.477539	32141.958984
1900.490234	31904.875000
1899.503906	31749.111328
1898.516602	31969.980469
1897.528320	32129.250000
1896.541016	31761.925781
1895.553711	32263.115234
1894.565430	32215.640625
1893.577148	32298.517578
1892.588867	32137.949219
1891.600586	31859.437500
1890.611328	32055.388672
1889.623047	32197.208984
1888.633789	32213.669922
1887.644531	32279.253906
1886.655273	32106.570313
1885.666016	32270.376953
1884.675781	32245.068359
1883.686523	32229.585938
1882.696289	32339.285156
1881.706055	32326.244141
1880.715820	32222.423828
1879.724609	32081.843750
1878.734375	32370.531250
1877.743164	32337.871094
1876.751953	32236.570313
1875.760742	32456.435547
1874.769531	32296.322266
1873.778320	32128.914063
1872.786133	32304.576172
1871.793945	32592.861328
1870.801758	32699.798828
1869.809570	32248.371094
1868.817383	32568.337891
1867.824219	32298.236328
1866.832031	32454.095703
1865.838867	32208.578125
1864.845703	32716.714844
1863.851563	31879.246094
1862.858398	32174.476563
1861.865234	32181.046875
1860.871094	32483.451172
1859.876953	32216.179688
1858.882813	32772.652344
1857.887695	32715.574219
1856.893555	32998.121094
1855.898438	32347.421875
1854.904297	32688.548828
1853.909180	32611.984375
1852.913086	32840.632813
1851.917969	32685.953125
1850.922852	32404.410156
1849.926758	33069.769531
1848.930664	32834.613281
1847.934570	32540.992188
1846.938477	32971.835938
1845.941406	32829.480469
1844.945313	32857.835938
1843.948242	32778.925781
1842.951172	32885.269531
1841.954102	32689.414063
1840.956055	32868.824219
1839.958984	32958.042969
1838.960938	32830.464844
1837.962891	32849.039063
1836.964844	32607.097656
1835.966797	33248.855469
1834.968750	32846.296875
1833.969727	32855.117188
1832.970703	33148.582031
1831.971680	32721.923828
1830.972656	33287.699219
1829.973633	33126.210938
1828.973633	33395.105469
1827.974609	32832.574219
1826.974609	33317.726563
1825.974609	33122.324219
1824.974609	32919.699219
1823.973633	33062.074219
1822.973633	33068.394531
1821.972656	33353.957031
1820.971680	32857.667969
1819.970703	33126.171875
1818.968750	33164.019531
1817.967773	33230.972656
1816.965820	33465.300781
1815.964844	33083.425781
1814.961914	33164.906250
1813.959961	33251.203125
1812.958008	33252.617188
1811.955078	33181.308594
1810.953125	33173.039063
1809.950195	33065.421875
1808.947266	33091.085938
1807.943359	32724.341797
1806.940430	33418.476563
1805.936523	33143.808594
1804.932617	33329.222656
1803.928711	33153.910156
1802.924805	33179.523438
1801.920898	33592.277344
1800.916016	33637.156250
1799.911133	33590.105469
1798.907227	33717.195313
1797.901367	33421.089844
1796.896484	34024.417969
1795.891602	33341.625000
1794.885742	33432.410156
1793.879883	33520.746094
1792.874023	34036.652344
1791.868164	33977.507813
1790.862305	33739.675781
1789.855469	33443.976563
1788.848633	33636.035156
1787.842773	33741.128906
1786.834961	33491.433594
1785.828125	33702.679688
1784.821289	33682.257813
1783.813477	33862.039063
1782.805664	34307.023438
1781.797852	33968.230469
1780.790039	34005.628906
1779.782227	34216.550781
1778.773438	34253.886719
1777.764648	34339.398438
1776.755859	34292.382813
1775.747070	34112.910156
1774.738281	34155.050781
1773.729492	33968.437500
1772.719727	34260.945313
1771.709961	34242.863281
1770.700195	34398.046875
1769.690430	34644.605469
1768.680664	34352.218750
1767.669922	34646.800781
1766.659180	34715.226563
1765.648438	34499.917969
1764.637695	34784.695313
1763.626953	34780.953125
1762.615234	34657.058594
1761.604492	34696.585938
1760.592773	34930.675781
1759.581055	34763.582031
1758.569336	35120.046875
1757.556641	34763.300781
1756.544922	34824.371094
1755.532227	35334.238281
1754.519531	35222.406250
1753.506836	34952.261719
1752.494141	34982.066406
1751.480469	35141.371094
1750.466797	35689.089844
1749.454102	35270.402344
1748.440430	35300.121094
1747.425781	35255.531250
1746.412109	35064.785156
1745.397461	35169.585938
1744.383789	35274.289063
1743.369141	35379.089844
1742.353516	35765.546875
1741.338867	35754.429688
1740.324219	35855.824219
1739.308594	35569.464844
1738.292969	35917.320313
1737.277344	35930.105469
1736.261719	36069.664063
1735.245117	36323.968750
1734.229492	36530.355469
1733.212891	36930.324219
1732.196289	36565.238281
1731.179688	36957.882813
1730.162109	36815.140625
1729.145508	37264.941406
1728.127930	37705.023438
1727.110352	37555.054688
1726.092773	37796.742188
1725.075195	37875.996094
1724.056641	37921.804688
1723.039063	38382.851563
1722.020508	38473.886719
1721.001953	38416.976563
1719.983398	38970.714844
1718.963867	38687.167969
1717.945313	39119.054688
1716.925781	39121.664063
1715.906250	39143.335938
1714.886719	39727.429688
1713.867188	39274.820313
1712.846680	39365.539063
1711.826172	39632.484375
1710.806641	39730.246094
1709.786133	39832.734375
1708.764648	39487.628906
1707.744141	40018.558594
1706.722656	39597.386719
1705.701172	40377.941406
1704.679688	39752.257813
1703.658203	40154.320313
1702.636719	39923.660156
1701.614258	39852.386719
1700.592773	39980.828125
1699.570313	40028.406250
1698.547852	40430.054688
1697.524414	40586.832031
1696.501953	40565.382813
1695.478516	40016.656250
1694.456055	40389.519531
1693.432617	40569.925781
1692.408203	40254.125000
1691.384766	40273.097656
1690.360352	40721.582031
1689.336914	40427.269531
1688.312500	40216.089844
1687.288086	40733.121094
1686.262695	40472.160156
1685.238281	40574.042969
1684.212891	40920.054688
1683.187500	41116.625000
1682.162109	41057.195313
1681.136719	41256.039063
1680.110352	41473.757813
1679.084961	41639.292969
1678.058594	41236.445313
1677.032227	41752.363281
1676.005859	41699.976563
1674.978516	41571.875000
1673.952148	41938.375000
1672.924805	42084.714844
1671.897461	42278.308594
1670.870117	41970.441406
1669.842773	42322.414063
1668.814453	42312.535156
1667.787109	42357.027344
1666.758789	42507.851563
1665.730469	42396.335938
1664.701172	42743.187500
1663.672852	42570.250000
1662.643555	43065.730469
1661.615234	43095.863281
1660.585938	42927.667969
1659.555664	43061.671875
1658.526367	43556.707031
1657.497070	42852.886719
1656.466797	42996.261719
1655.436523	43507.550781
1654.406250	43289.925781
1653.375977	43562.828125
1652.344727	43491.437500
1651.313477	43599.203125
1650.282227	43452.414063
1649.250977	43348.082031
1648.219727	43213.164063
1647.188477	43556.441406
1646.156250	43720.613281
1645.124023	43851.761719
1644.091797	43895.757813
1643.059570	43925.613281
1642.027344	44324.929688
1640.994141	44333.519531
1639.961914	44325.636719
1638.928711	44663.511719
1637.895508	44580.316406
1636.861328	44906.261719
1635.828125	45206.234375
1634.793945	45367.421875
1633.759766	45335.851563
1632.725586	45301.941406
1631.691406	45946.945313
1630.656250	45938.773438
1629.622070	46390.871094
1628.586914	46112.609375
1627.551758	46597.375000
1626.516602	46840.218750
1625.480469	46951.562500
1624.445313	47180.175781
1623.409180	47809.835938
1622.373047	48364.218750
1621.336914	48557.281250
1620.300781	48883.910156
1619.263672	49276.054688
1618.227539	50488.359375
1617.190430	50896.480469
1616.153320	52136.175781
1615.115234	52967.835938
1614.078125	54120.062500
1613.040039	54459.328125
1612.001953	55154.335938
1610.963867	55966.136719
1609.925781	55689.367188
1608.887695	55899.402344
1607.848633	54972.343750
1606.809570	54599.988281
1605.770508	54295.585938
1604.731445	52918.007813
1603.692383	52555.562500
1602.652344	51622.902344
1601.613281	51356.628906
1600.573242	50492.269531
1599.533203	50205.265625
1598.492188	49778.210938
1597.452148	49395.679688
1596.411133	49517.632813
1595.370117	48789.765625
1594.329102	48589.671875
1593.288086	48833.054688
1592.247070	48231.691406
1591.205078	48440.050781
1590.163086	48018.566406
1589.121094	47618.222656
1588.079102	47826.574219
1587.036133	47848.351563
1585.994141	47350.351563
1584.951172	47586.597656
1583.908203	47771.500000
1582.865234	47954.007813
1581.822266	47992.035156
1580.778320	48118.542969
1579.734375	47828.234375
1578.691406	48045.507813
1577.646484	48269.687500
1576.602539	48726.488281
1575.558594	48775.964844
1574.513672	48671.886719
1573.468750	49079.523438
1572.423828	49498.640625
1571.378906	49394.484375
1570.333008	49866.855469
1569.288086	50106.644531
1568.242188	49707.308594
1567.196289	49173.363281
1566.150391	49241.246094
1565.103516	48489.253906
1564.057617	48171.757813
1563.010742	47657.035156
1561.963867	47752.984375
1560.916992	47117.828125
1559.869141	46970.191406
1558.822266	46778.519531
1557.774414	46944.136719
1556.726563	46409.300781
1555.678711	46094.933594
1554.630859	45880.367188
1553.582031	46294.039063
1552.534180	45527.933594
1551.485352	46300.671875
1550.436523	45606.656250
1549.386719	45086.609375
1548.337891	45201.292969
1547.288086	44493.949219
1546.238281	44909.652344
1545.188477	44540.542969
1544.138672	44493.242188
1543.088867	44570.902344
1542.038086	44745.695313
1540.987305	44545.722656
1539.936523	44627.949219
1538.885742	44201.472656
1537.834961	44473.292969
1536.783203	44363.644531
1535.731445	44300.250000
1534.679688	44537.242188
1533.627930	44016.441406
1532.576172	44151.769531
1531.523438	44208.535156
1530.471680	44602.367188
1529.418945	44315.070313
1528.366211	44318.687500
1527.312500	44183.839844
1526.259766	44455.109375
1525.206055	44306.445313
1524.152344	44351.566406
1523.098633	44481.988281
1522.044922	44213.503906
1520.990234	44212.507813
1519.936523	44455.812500
1518.881836	43931.691406
1517.827148	44092.015625
1516.772461	43991.984375
1515.716797	44039.386719
1514.662109	43455.839844
1513.606445	44035.136719
1512.550781	43688.882813
1511.495117	43278.312500
1510.438477	42856.382813
1509.382813	43156.992188
1508.326172	42776.636719
1507.269531	42709.183594
1506.212891	42841.796875
1505.155273	42792.746094
1504.098633	42454.089844
1503.041016	42506.238281
1501.983398	42523.902344
1500.925781	42350.878906
1499.867188	42421.390625
1498.809570	42372.453125
1497.750977	42268.429688
1496.692383	42543.222656
1495.633789	42303.781250
1494.575195	42105.730469
1493.515625	42479.062500
1492.457031	41758.011719
1491.397461	42493.656250
1490.337891	42424.125000
1489.277344	41889.183594
1488.217773	41712.039063
1487.157227	41709.148438
1486.096680	41779.585938
1485.036133	42037.867188
1483.975586	42000.554688
1482.915039	41995.312500
1481.853516	42001.523438
1480.791992	41998.574219
1479.730469	41952.128906
1478.668945	42271.886719
1477.606445	42191.082031
1476.544922	41883.808594
1475.482422	42180.527344
1474.419922	42067.757813
1473.357422	42266.007813
1472.293945	42036.664063
1471.231445	42152.558594
1470.167969	42373.535156
1469.104492	42100.875000
1468.041016	42481.703125
1466.976563	42179.421875
1465.913086	42898.089844
1464.848633	42541.039063
1463.784180	42474.046875
1462.719727	42436.753906
1461.655273	42712.121094
1460.589844	42980.542969
1459.524414	42429.878906
1458.458984	42805.449219
1457.393555	42993.886719
1456.328125	42815.164063
1455.261719	43242.894531
1454.196289	43146.238281
1453.129883	42940.234375
1452.063477	43511.246094
1450.996094	43330.300781
1449.929688	43292.914063
1448.862305	43043.753906
1447.794922	43418.523438
1446.727539	43560.968750
1445.660156	43391.550781
1444.591797	43283.628906
1443.524414	43046.062500
1442.456055	43047.429688
1441.387695	43908.496094
1440.318359	43441.273438
1439.250000	43915.453125
1438.180664	44305.359375
1437.111328	44038.308594
1436.041992	44321.250000
1434.972656	44615.445313
1433.903320	44791.417969
1432.833008	44817.433594
1431.762695	45245.343750
1430.692383	44753.648438
1429.622070	45589.988281
1428.550781	45248.183594
1427.480469	45891.261719
1426.409180	46121.214844
1425.337891	46264.894531
1424.266602	46494.695313
1423.194336	46880.863281
1422.122070	47398.375000
1421.050781	47244.789063
1419.978516	47197.765625
1418.905273	47501.953125
1417.833008	47400.527344
1416.759766	47550.550781
1415.687500	47483.117188
1414.614258	47198.347656
1413.540039	47151.375000
1412.466797	46491.050781
1411.392578	46489.472656
1410.319336	46130.417969
1409.245117	45782.800781
1408.169922	45708.972656
1407.095703	45687.175781
1406.020508	46113.042969
1404.946289	46149.953125
1403.871094	46123.566406
1402.794922	46244.062500
1401.719727	46448.109375
1400.643555	46349.390625
1399.568359	46980.187500
1398.492188	46443.347656
1397.415039	46125.687500
1396.338867	46704.261719
1395.261719	46456.625000
1394.185547	46175.234375
1393.108398	46850.488281
1392.031250	47232.265625
1390.953125	47571.058594
1389.875977	47614.351563
1388.797852	47948.437500
1387.719727	48235.070313
1386.641602	47469.179688
1385.562500	47717.488281
1384.484375	47911.636719
1383.405273	47423.253906
1382.326172	47498.027344
1381.247070	47126.972656
1380.166992	47352.593750
1379.087891	47229.273438
1378.007813	47335.527344
1376.927734	47230.246094
1375.847656	47167.746094
1374.767578	46644.195313
1373.686523	46896.636719
1372.605469	46222.683594
1371.524414	46524.558594
1370.443359	46210.511719
1369.362305	46840.347656
1368.280273	46092.746094
1367.199219	46064.214844
1366.117188	46747.632813
1365.034180	46537.109375
1363.952148	46537.695313
1362.870117	46556.238281
1361.787109	47272.726563
1360.704102	47441.460938
1359.621094	47224.261719
1358.537109	47767.527344
1357.454102	47453.910156
1356.370117	47815.312500
1355.286133	46815.804688
1354.202148	46334.417969
1353.118164	46122.121094
1352.033203	46028.656250
1350.948242	45724.640625
1349.863281	45550.640625
1348.778320	44841.488281
1347.693359	44732.640625
1346.607422	44514.136719
1345.521484	44515.050781
1344.435547	43934.144531
1343.349609	44382.632813
1342.263672	44112.894531
1341.176758	44091.507813
1340.090820	44287.035156
1339.003906	44455.660156
1337.916016	43975.972656
1336.829102	43959.089844
1335.741211	44024.886719
1334.654297	44099.597656
1333.566406	44598.687500
1332.478516	44400.792969
1331.389648	44285.589844
1330.301758	44382.515625
1329.212891	44499.496094
1328.124023	44509.308594
1327.035156	45219.746094
1325.945313	45456.972656
1324.856445	45457.675781
1323.766602	45353.566406
1322.676758	46065.558594
1321.586914	46866.464844
1320.496094	47074.195313
1319.406250	47748.289063
1318.315430	48422.984375
1317.224609	49097.683594
1316.133789	49772.378906
1315.041992	50447.679688
1313.951172	50333.910156
1312.859375	50957.011719
1311.767578	51132.523438
1310.675781	51125.500000
1309.583008	50617.882813
1308.491211	50219.445313
1307.398438	49418.593750
1306.305664	49302.914063
1305.212891	48740.406250
1304.119141	48149.199219
1303.026367	48100.480469
1301.932617	47765.132813
1300.838867	47872.015625
1299.744141	47483.519531
1298.650391	48263.324219
1297.555664	48529.921875
1296.461914	48805.300781
1295.366211	49124.972656
1294.271484	48763.218750
1293.176758	48896.394531
1292.081055	48865.359375
1290.985352	49009.554688
1289.889648	48687.992188
1288.793945	48408.675781
1287.697266	48552.867188
1286.601563	48056.460938
1285.504883	47484.886719
1284.408203	47290.175781
1283.311523	46982.554688
1282.213867	46779.136719
1281.116211	46730.804688
1280.018555	46210.898438
1278.920898	45990.019531
1277.823242	45707.250000
1276.725586	45424.578125
1275.626953	45387.582031
1274.528320	45423.597656
1273.429688	45240.648438
1272.330078	44717.238281
1271.231445	44740.082031
1270.131836	44687.765625
1269.032227	44443.191406
1267.932617	44512.472656
1266.833008	44367.429688
1265.732422	44284.285156
1264.632813	44086.335938
1263.532227	44098.210938
1262.430664	44379.410156
1261.330078	44194.785156
1260.228516	44292.695313
1259.127930	44536.191406
1258.026367	44122.210938
1256.924805	44308.300781
1255.822266	43590.187500
1254.720703	43621.964844
1253.618164	43611.847656
1252.515625	43390.144531
1251.413086	43139.875000
1250.309570	42911.726563
1249.207031	42743.136719
1248.103516	42909.367188
1247.000000	42736.429688
1245.895508	43036.898438
1244.791992	42749.535156
1243.687500	43104.906250
1242.583008	42872.640625
1241.478516	43408.257813
1240.374023	43257.402344
1239.269531	43190.167969
1238.164063	43046.000000
1237.058594	43082.152344
1235.953125	43184.226563
1234.847656	42837.953125
1233.741211	43109.218750
1232.635742	42923.449219
1231.529297	43003.507813
1230.422852	43065.968750
1229.315430	42954.949219
1228.208984	42791.289063
1227.101563	43424.398438
1225.994141	43071.984375
1224.886719	43086.097656
1223.779297	43405.117188
1222.670898	43447.675781
1221.562500	43161.289063
1220.454102	42807.042969
1219.345703	42926.398438
1218.237305	42824.359375
1217.127930	42590.875000
1216.018555	42664.195313
1214.909180	42411.109375
1213.799805	42112.125000
1212.690430	42148.261719
1211.580078	42206.273438
1210.469727	42076.023438
1209.359375	42751.164063
1208.249023	42332.039063
1207.138672	42293.710938
1206.027344	42312.265625
1204.916016	42676.335938
1203.804688	42386.519531
1202.693359	42652.066406
1201.581055	42873.800781
1200.469727	42859.441406
1199.357422	42748.957031
1198.245117	42942.148438
1197.131836	42737.769531
1196.019531	43037.886719
1194.906250	42890.328125
1193.792969	42978.566406
1192.679688	43496.718750
1191.566406	43464.800781
1190.452148	43179.812500
1189.337891	43470.789063
1188.223633	42965.632813
1187.109375	42883.675781
1185.995117	42494.351563
1184.879883	42475.714844
1183.764648	42690.265625
1182.649414	42492.929688
1181.534180	42265.160156
1180.418945	42747.539063
1179.302734	42360.828125
1178.186523	42433.675781
1177.070313	42489.074219
1175.954102	41948.085938
1174.837891	42628.101563
1173.720703	42045.941406
1172.603516	41979.675781
1171.486328	41913.406250
1170.369141	41847.140625
1169.250977	41780.816406
1168.132813	41714.492188
1167.015625	41648.222656
1165.896484	41581.839844
1164.778320	41515.515625
1163.660156	41449.191406
1162.541016	41320.015625
1161.421875	41227.800781
1160.302734	41437.378906
1159.182617	41518.816406
1158.063477	40973.042969
1156.943359	41241.132813
1155.823242	41407.164063
1154.703125	41046.066406
1153.582031	40823.886719
1152.461914	41254.417969
1151.340820	40856.687500
1150.219727	40647.664063
1149.097656	41032.480469
1147.976563	40836.500000
1146.854492	40703.406250
1145.732422	40895.238281
1144.610352	40578.117188
1143.488281	40746.082031
1142.365234	41180.230469
1141.243164	40973.605469
1140.120117	41362.113281
1138.996094	41339.417969
1137.873047	41574.136719
1136.750000	41419.484375
1135.625977	41368.679688
1134.501953	41153.585938
1133.377930	41154.714844
1132.252930	40957.027344
1131.127930	40666.496094
1130.003906	40931.269531
1128.878906	41070.667969
1127.752930	40849.375000
1126.627930	41083.734375
1125.501953	40627.214844
1124.375977	40850.734375
1123.250000	41134.593750
1122.124023	40924.269531
1120.997070	40651.464844
1119.871094	40801.480469
1118.744141	40684.050781
1117.617188	40437.304688
1116.489258	40186.332031
1115.362305	40502.265625
1114.234375	40404.363281
1113.106445	40409.902344
1111.978516	40365.898438
1110.849609	39985.949219
1109.721680	40008.781250
1108.592773	40569.812500
1107.463867	40594.679688
1106.333984	39984.691406
1105.205078	40343.156250
1104.075195	40221.765625
1102.945313	40190.750000
1101.815430	40628.542969
1100.685547	40090.046875
1099.554688	40235.339844
1098.424805	40262.371094
1097.293945	40560.144531
1096.162109	40582.804688
1095.031250	40622.636719
1093.899414	40134.121094
1092.768555	40393.042969
1091.636719	39784.515625
1090.503906	40118.531250
1089.372070	40315.074219
1088.239258	40037.332031
1087.106445	39656.714844
1085.973633	39956.183594
1084.840820	40023.929688
1083.708008	39868.652344
1082.574219	39880.648438
1081.440430	39779.039063
1080.306641	39962.480469
1079.171875	40060.152344
1078.038086	40095.660156
1076.903320	40011.210938
1075.768555	39909.664063
1074.633789	39940.890625
1073.498047	40047.031250
1072.363281	39924.121094
1071.227539	39961.746094
1070.091797	39776.847656
1068.956055	40522.515625
1067.819336	39569.792969
1066.682617	40084.285156
1065.546875	40339.902344
1064.409180	40114.484375
1063.272461	39833.582031
1062.135742	39854.062500
1060.998047	39677.988281
1059.860352	39788.191406
1058.722656	40026.484375
1057.583984	40070.390625
1056.446289	39665.980469
1055.307617	39931.906250
1054.168945	39905.378906
1053.029297	39580.160156
1051.890625	39615.566406
1050.750977	39572.042969
1049.611328	39869.718750
1048.471680	40212.058594
1047.332031	39618.488281
1046.191406	39376.781250
1045.051758	39819.167969
1043.911133	39818.257813
1042.769531	39966.445313
1041.628906	39590.679688
1040.487305	39481.210938
1039.346680	39842.265625
1038.205078	40218.085938
1037.062500	39929.792969
1035.920898	39862.886719
1034.778320	40108.726563
1033.635742	39631.308594
1032.493164	40072.738281
1031.350586	40105.777344
1030.207031	39953.863281
1029.063477	39544.832031
1027.919922	39922.195313
1026.776367	39876.621094
1025.632813	39724.851563
1024.488281	39766.406250
1023.343750	39701.769531
1022.199219	39870.691406
1021.054688	40366.437500
1019.910156	39839.070313
1018.764648	40052.425781
1017.619141	39996.273438
1016.473633	40048.316406
1015.327148	39867.062500
1014.181641	39921.226563
1013.035156	40028.367188
1011.888672	39590.746094
1010.742188	39786.906250
1009.594727	39800.785156
1008.448242	39564.687500
1007.300781	40089.023438
1006.153320	40143.066406
1005.005859	40349.523438
1003.857422	40792.988281
1002.708984	40882.843750
1001.560547	41139.828125
1000.412109	41257.089844
999.263672	42076.566406
998.114258	41937.707031
996.965820	42171.042969
995.816406	41949.765625
994.666016	42197.808594
993.516602	41961.808594
992.366211	41670.960938
991.215820	41984.398438
990.065430	41547.910156
988.915039	41669.082031
987.763672	41712.089844
986.613281	41246.332031
985.461914	41922.574219
984.309570	41406.300781
983.158203	40841.691406
982.005859	41599.894531
980.854492	41263.226563
979.701172	41072.179688
978.548828	40733.625000
977.396484	41086.570313
976.243164	41007.351563
975.089844	40727.988281
973.936523	41346.179688
972.783203	41113.191406
971.628906	40949.781250
970.474609	40430.593750
969.320313	40854.703125
968.166016	40407.285156
967.010742	40540.835938
965.856445	40413.441406
964.701172	40704.707031
963.545898	40642.523438
962.390625	40670.785156
961.234375	40921.890625
960.078125	40563.308594
958.921875	40902.609375
957.765625	40995.933594
956.609375	40879.132813
955.452148	40934.613281
954.294922	40996.371094
953.137695	41060.207031
951.980469	40907.781250
950.822266	40648.367188
949.665039	40750.000000
948.506836	41294.308594
947.347656	41332.843750
946.189453	41176.906250
945.030273	41020.835938
943.872070	40864.894531
942.712891	40708.824219
941.552734	40552.625000
940.393555	40396.554688
939.233398	40240.351563
938.073242	40249.687500
936.913086	40652.746094
935.752930	40481.917969
934.591797	40528.882813
933.430664	40374.882813
932.269531	40379.988281
931.108398	40631.992188
929.947266	40706.082031
928.785156	40453.851563
927.623047	40653.417969
926.460938	40305.105469
925.298828	40968.703125
924.135742	40480.421875
922.972656	40525.191406
921.810547	40526.066406
920.646484	40882.054688
919.483398	40935.074219
918.319336	40835.636719
917.155273	40917.867188
915.991211	41068.949219
914.827148	40957.015625
913.662109	41331.296875
912.498047	41081.664063
911.333008	41380.691406
910.167969	41414.753906
909.001953	41853.304688
907.836914	41862.250000
906.670898	42062.941406
905.504883	41657.144531
904.337891	41614.027344
903.171875	42012.546875
902.004883	41663.210938
900.837891	41545.144531
899.670898	41731.089844
898.503906	41486.074219
897.335938	41657.390625
896.167969	41807.828125
895.000000	41698.160156
893.832031	41657.167969
892.663086	41420.703125
891.495117	41812.265625
890.326172	41438.644531
889.156250	41655.460938
887.987305	41626.976563
886.817383	41991.191406
885.648438	41715.445313
884.478516	41878.039063
883.307617	41687.550781
882.137695	42238.339844
880.966797	42417.347656
879.795898	41979.882813
878.625000	41903.636719
877.454102	42146.917969
876.282227	42419.144531
875.110352	42123.023438
873.938477	42811.929688
872.766602	42480.593750
871.593750	42754.625000
870.421875	42643.089844
869.249023	42589.613281
868.076172	42679.093750
866.902344	43062.648438
865.729492	42735.765625
864.555664	43282.734375
863.381836	43156.722656
862.207031	43318.445313
861.033203	43759.457031
859.858398	43513.429688
858.683594	43790.824219
857.508789	43520.058594
856.333984	43588.500000
855.158203	43723.074219
853.982422	43431.792969
852.806641	43246.019531
851.630859	43351.648438
850.454102	42909.785156
849.278320	43073.265625
848.101563	43121.039063
846.924805	43435.140625
845.747070	43241.300781
844.570313	43202.324219
843.392578	43363.527344
842.214844	43452.453125
841.036133	44207.628906
839.858398	44364.425781
838.679688	44531.468750
837.500977	44667.527344
836.322266	44855.062500
835.143555	44951.847656
833.963867	45370.031250
832.784180	45060.839844
831.604492	44671.429688
830.424805	44263.628906
829.244141	43683.023438
828.063477	43788.140625
826.882813	43158.437500
825.702148	43399.425781
824.521484	43197.972656
823.339844	42618.093750
822.158203	42819.964844
820.976563	42844.917969
819.794922	42910.976563
818.612305	42504.238281
817.430664	42619.656250
816.248047	42459.691406
815.064453	42344.980469
813.881836	42717.109375
812.698242	42333.363281
811.514648	42508.242188
810.331055	42798.011719
809.147461	42293.363281
807.962891	42919.605469
806.778320	43094.234375
805.593750	42727.246094
804.409180	42801.347656
803.224609	43049.714844
802.039063	42615.277344
800.853516	42713.949219
799.667969	42134.222656
798.482422	41948.125000
797.295898	42079.636719
796.109375	41955.062500
794.922852	41660.558594
793.736328	41726.527344
792.548828	41307.292969
791.362305	41665.984375
790.174805	41353.328125
788.986328	41120.578125
787.798828	41249.988281
786.610352	41504.109375
785.421875	41238.738281
784.233398	41042.976563
783.044922	41096.667969
781.856445	41305.656250
780.666992	40954.695313
779.477539	40618.160156
778.288086	40716.816406
777.097656	40774.589844
775.907227	40699.625000
774.717773	40865.574219
773.526367	40635.496094
772.335938	40260.609375
771.144531	40455.109375
769.954102	40231.347656
768.762695	40189.187500
767.570313	40569.148438
766.378906	40773.628906
765.186523	40704.886719
763.994141	40534.265625
762.801758	41374.378906
761.609375	41435.941406
760.416016	41381.378906
759.222656	40923.605469
758.029297	41799.664063
756.835938	41677.875000
755.641602	41578.996094
754.447266	41480.121094
753.252930	41381.242188
752.058594	41282.367188
750.864258	41183.488281
749.668945	41427.964844
748.473633	41239.300781
747.278320	41461.316406
746.083008	41043.054688
744.886719	40746.871094
743.690430	40664.105469
742.494141	40654.496094
741.297852	40612.394531
740.100586	40785.535156
738.904297	40463.269531
737.707031	40248.699219
736.509766	40405.570313
735.311523	40290.500000
734.113281	40270.816406
732.916016	40498.574219
731.716797	40549.828125
730.518555	40071.906250
729.320313	40356.324219
728.121094	40354.878906
726.921875	40246.035156
725.721680	40058.222656
724.522461	40470.035156
723.322266	40168.835938
722.122070	40021.632813
720.921875	40481.800781
719.721680	40316.371094
718.520508	40584.062500
717.319336	40143.511719
716.118164	40481.929688
714.916992	40561.343750
713.714844	40383.914063
712.513672	40400.636719
711.311523	40722.578125
710.108398	40682.636719
708.906250	40972.074219
707.703125	41041.191406
706.500000	40972.929688
705.296875	41526.695313
704.093750	41516.921875
702.889648	41333.539063
701.685547	41273.339844
700.481445	41802.414063
699.277344	41304.328125
698.072266	41742.417969
696.868164	41480.496094
695.663086	41468.710938
694.457031	42194.820313
693.251953	42205.078125
692.045898	42199.207031
690.839844	42062.359375
689.633789	42008.164063
688.427734	42169.503906
687.220703	42765.773438
686.013672	42437.640625
684.806641	42331.062500
683.599609	42614.992188
682.391602	42325.296875
681.184570	42055.828125
679.976563	42096.242188
678.767578	41977.753906
677.559570	42191.093750
676.350586	42756.179688
675.141602	42000.437500
673.932617	42362.363281
672.723633	42201.730469
671.513672	42740.269531
670.303711	42463.125000
669.093750	42441.121094
667.883789	41911.148438
666.672852	42204.421875
665.462891	41889.441406
664.251953	41779.261719
663.040039	41703.226563
661.829102	41825.804688
660.617188	41585.332031
659.405273	41685.828125
658.193359	41700.074219
656.981445	41433.695313
655.768555	41816.730469
654.555664	41245.863281
653.342773	41656.832031
652.129883	41921.429688
650.916016	41593.167969
649.702148	41883.703125
648.488281	42005.976563
647.274414	42336.351563
646.059570	42976.761719
644.845703	42692.617188
643.630859	43308.714844
642.416016	43612.589844
641.200195	43570.425781
639.984375	43538.269531
638.769531	43626.054688
637.552734	43148.246094
636.336914	43004.289063
635.120117	42334.992188
633.904297	42376.992188
632.687500	42057.523438
631.469727	42544.785156
630.252930	41826.167969
629.035156	41804.351563
627.817383	41279.695313
626.599609	41483.429688
625.380859	41495.597656
624.163086	41733.117188
622.944336	41174.960938
621.724609	41751.351563
620.505859	41095.730469
619.286133	41608.148438
618.066406	41438.957031
616.846680	41389.347656
615.626953	41333.781250
614.406250	41218.492188
613.186523	41702.523438
611.965820	41869.867188
610.744141	41655.027344
609.523438	41621.339844
608.301758	41832.367188
607.080078	41697.214844
605.858398	41512.390625
604.635742	41687.523438
603.414063	41399.394531
602.191406	41642.058594
600.968750	41773.343750
599.745117	41705.894531
598.522461	41628.535156
597.298828	41763.714844
596.075195	42186.773438
594.850586	41736.113281
593.626953	42220.550781
592.402344	41462.437500
591.177734	41817.761719
589.953125	41952.742188
588.727539	41980.562500
587.501953	42293.937500
586.276367	42319.695313
585.050781	42418.789063
583.825195	42391.000000
582.598633	42646.585938
581.372070	42830.750000
580.145508	43179.257813
578.917969	43244.421875
577.691406	43291.734375
576.463867	43970.570313
575.236328	43552.570313
574.007813	43872.898438
572.780273	43987.324219
571.551758	43911.789063
570.323242	43545.527344
569.094727	43612.484375
567.865234	43517.285156
566.635742	43248.164063
565.406250	43364.539063
564.176758	43168.656250
562.947266	42960.992188
561.716797	42814.636719
560.486328	43053.445313
559.255859	42377.941406
558.024414	42598.972656
556.793945	42539.636719
555.562500	42265.214844
554.331055	42391.425781
553.098633	42156.585938
551.867188	42255.156250
550.634766	42128.882813
549.402344	42659.191406
548.168945	42450.093750
546.936523	42416.480469
545.703125	42493.222656
544.469727	42134.539063
543.236328	41730.687500
542.001953	41575.125000
540.767578	41900.054688
539.533203	42014.214844
538.298828	42069.281250
537.064453	41793.722656
535.829102	42098.683594
534.593750	41833.054688
533.358398	41933.343750
532.122070	42222.367188
530.886719	42273.386719
529.650391	42404.980469
528.414063	42338.031250
527.176758	42717.136719
525.940430	42726.761719
524.703125	42691.210938
523.465820	42846.156250
522.227539	42734.015625
520.990234	42555.167969
519.751953	42737.523438
518.513672	42309.527344
517.275391	42619.382813
516.036133	42813.386719
514.796875	42393.457031
513.557617	43016.851563
512.318359	42775.437500
511.079102	42832.050781
509.838867	42557.445313
508.598633	42702.246094
507.358398	42222.070313
506.117188	42366.875000
504.876953	42793.609375
503.635742	42961.742188
502.394531	42705.027344
501.152344	42677.394531
499.911133	42471.707031
498.668945	42467.597656
497.425781	42823.402344
496.183594	42956.125000
494.941406	43317.562500
493.698242	42632.980469
492.455078	42965.019531
491.210938	43083.925781
489.967773	43095.328125
488.723633	42956.304688
487.479492	43073.187500
486.235352	43092.390625
484.990234	43349.765625
483.745117	43679.265625
482.500000	43745.171875
481.254883	43391.539063
480.008789	43853.496094
478.763672	43476.566406
477.517578	44098.238281
476.271484	43536.171875
475.024414	44218.027344
473.777344	44137.554688
472.530273	44172.078125
471.283203	44422.847656
470.036133	44710.531250
468.788086	44028.226563
467.540039	44113.363281
466.291992	44252.980469
465.043945	44497.648438
463.794922	44522.316406
462.545898	45000.320313
461.296875	44993.753906
460.047852	44753.789063
458.797852	44965.062500
457.547852	44826.289063
456.297852	45292.113281
455.047852	45170.816406
453.796875	45181.699219
452.545898	45563.644531
451.294922	45556.964844
450.043945	45635.734375
448.792969	46273.667969
447.541016	46759.937500
446.289063	46811.253906
445.036133	46389.050781
443.784180	46502.500000
442.531250	46901.058594
441.278320	46676.894531
440.025391	46801.851563
438.771484	46428.507813
437.518555	45993.277344
436.264648	45408.984375
435.010742	45555.390625
433.755859	45395.656250
432.500977	45141.070313
431.246094	44462.480469
429.991211	44698.011719
428.736328	44786.332031
427.480469	44837.839844
426.224609	44608.746094
424.968750	44706.699219
423.712891	44628.589844
422.456055	44581.453125
421.199219	44420.246094
419.942383	44875.800781
418.685547	44488.453125
417.427734	44458.757813
416.169922	44701.503906
414.912109	44345.312500
413.654297	44352.351563
412.395508	44575.664063
411.136719	44179.148438
409.877930	44456.449219
408.619141	44314.851563
407.359375	44231.191406
406.099609	44747.539063
404.839844	44667.683594
403.580078	44481.789063
402.319336	44585.179688
401.059570	44547.800781
