#Wave		#Intensity
2001.221680	36875.839844
2000.251953	37038.761719
1999.282227	36899.476563
1998.312500	36652.492188
1997.342773	36603.507813
1996.372070	36684.781250
1995.402344	36518.101563
1994.431641	36919.859375
1993.460938	37158.750000
1992.490234	36947.015625
1991.518555	36455.062500
1990.547852	36844.035156
1989.576172	36735.027344
1988.604492	36951.226563
1987.632813	37047.304688
1986.661133	37190.859375
1985.689453	36996.867188
1984.716797	37225.355469
1983.745117	36901.468750
1982.772461	37027.453125
1981.799805	37188.363281
1980.827148	36909.609375
1979.853516	36963.093750
1978.880859	37545.902344
1977.907227	37289.695313
1976.933594	36923.750000
1975.959961	37134.414063
1974.986328	36920.828125
1974.011719	37146.382813
1973.038086	37346.914063
1972.063477	36896.480469
1971.088867	37279.003906
1970.114258	36893.554688
1969.138672	37298.375000
1968.164063	37638.257813
1967.188477	37235.500000
1966.212891	36994.812500
1965.237305	37205.042969
1964.261719	37081.492188
1963.286133	37127.292969
1962.309570	37267.679688
1961.333984	37452.820313
1960.357422	37291.976563
1959.380859	37258.082031
1958.404297	37520.242188
1957.426758	37307.230469
1956.450195	37216.152344
1955.472656	37383.691406
1954.495117	37536.253906
1953.517578	37206.562500
1952.540039	37438.625000
1951.561523	37268.085938
1950.583008	37298.828125
1949.605469	37602.777344
1948.626953	37320.539063
1947.647461	37381.046875
1946.668945	37123.769531
1945.690430	37544.191406
1944.710938	36944.503906
1943.731445	37414.433594
1942.751953	37494.710938
1941.772461	37632.007813
1940.791992	37489.023438
1939.812500	37274.179688
1938.832031	37431.273438
1937.851563	37253.691406
1936.871094	37512.335938
1935.890625	37307.546875
1934.909180	37486.812500
1933.928711	37381.167969
1932.947266	37510.828125
1931.965820	37269.035156
1930.984375	37713.062500
1930.002930	37889.617188
1929.020508	37818.636719
1928.038086	37267.667969
1927.056641	37666.851563
1926.074219	37568.734375
1925.090820	37527.531250
1924.108398	37575.351563
1923.125000	37338.859375
1922.142578	37752.503906
1921.159180	37496.289063
1920.175781	37726.917969
1919.191406	37569.609375
1918.208008	37229.582031
1917.223633	37716.960938
1916.240234	37512.820313
1915.255859	37844.449219
1914.271484	37578.652344
1913.286133	37759.617188
1912.301758	37711.050781
1911.316406	37539.152344
1910.331055	37794.019531
1909.345703	37614.769531
1908.360352	37561.324219
1907.375000	37692.789063
1906.388672	37548.148438
1905.402344	37718.996094
1904.416016	37559.617188
1903.429688	37809.230469
1902.443359	37455.308594
1901.457031	37887.082031
1900.469727	37661.300781
1899.482422	37374.058594
1898.495117	37785.921875
1897.507813	37651.324219
1896.520508	37730.832031
1895.532227	37591.371094
1894.543945	37720.050781
1893.556641	38030.660156
1892.568359	37694.519531
1891.579102	37668.238281
1890.590820	37794.347656
1889.601563	37492.824219
1888.613281	37810.566406
1887.624023	37914.472656
1886.634766	37777.640625
1885.644531	37518.070313
1884.655273	37432.914063
1883.665039	37622.730469
1882.674805	37724.117188
1881.684570	37791.109375
1880.694336	37519.492188
1879.704102	37900.492188
1878.712891	37739.316406
1877.722656	37801.351563
1876.731445	37593.664063
1875.740234	37927.800781
1874.748047	37487.320313
1873.756836	37510.140625
1872.764648	37849.015625
1871.773438	37641.492188
1870.781250	37963.074219
1869.788086	37723.769531
1868.795898	37913.007813
1867.803711	37967.542969
1866.810547	38244.781250
1865.817383	37846.527344
1864.824219	38079.648438
1863.831055	38126.773438
1862.837891	37939.082031
1861.843750	37983.765625
1860.849609	37950.195313
1859.855469	38141.527344
1858.861328	38186.144531
1857.867188	38460.449219
1856.872070	37862.429688
1855.877930	38126.921875
1854.882813	38315.605469
1853.887695	38272.238281
1852.892578	38477.917969
1851.896484	38356.417969
1850.901367	38252.046875
1849.905273	38147.710938
1848.909180	38311.785156
1847.913086	38385.542969
1846.916992	37912.957031
1845.919922	38240.359375
1844.923828	38587.152344
1843.926758	38558.421875
1842.929688	38373.722656
1841.932617	38929.863281
1840.935547	38296.875000
1839.937500	38394.878906
1838.939453	39089.542969
1837.942383	38914.640625
1836.943359	38885.882813
1835.945313	38883.906250
1834.947266	38409.777344
1833.948242	39013.785156
1832.949219	38739.292969
1831.951172	38725.175781
1830.951172	38820.503906
1829.952148	38757.742188
1828.953125	39434.085938
1827.953125	38712.492188
1826.953125	39349.718750
1825.953125	39029.328125
1824.953125	39331.000000
1823.952148	39180.757813
1822.952148	39142.285156
1821.951172	39132.960938
1820.950195	39155.203125
1819.949219	39175.003906
1818.948242	39248.191406
1817.946289	39634.367188
1816.945313	39251.343750
1815.943359	39200.765625
1814.941406	39623.121094
1813.939453	39407.609375
1812.936523	39398.238281
1811.934570	39464.015625
1810.931641	39236.519531
1809.928711	39597.910156
1808.925781	39372.894531
1807.921875	39792.265625
1806.918945	39388.074219
1805.915039	39843.613281
1804.912109	39371.765625
1803.908203	39488.273438
1802.903320	39544.230469
1801.899414	40011.511719
1800.894531	39922.203125
1799.890625	39898.230469
1798.885742	39518.765625
1797.880859	40138.042969
1796.875000	39966.574219
1795.870117	39674.304688
1794.864258	40307.726563
1793.858398	39928.511719
1792.852539	39911.804688
1791.846680	40020.703125
1790.840820	40081.261719
1789.833984	40006.582031
1788.828125	39564.984375
1787.821289	40185.562500
1786.814453	40388.425781
1785.806641	40292.023438
1784.799805	40325.921875
1783.791992	40591.359375
1782.784180	39966.835938
1781.776367	40427.539063
1780.768555	40524.066406
1779.760742	40403.628906
1778.751953	41006.191406
1777.743164	40755.597656
1776.735352	40644.812500
1775.725586	40806.238281
1774.716797	40449.851563
1773.708008	40777.382813
1772.698242	41357.566406
1771.688477	41015.703125
1770.678711	40775.035156
1769.668945	40618.656250
1768.659180	40871.289063
1767.648438	40866.476563
1766.637695	40972.281250
1765.626953	41320.882813
1764.616211	41467.433594
1763.605469	41241.390625
1762.593750	41279.761719
1761.583008	41582.406250
1760.571289	41575.058594
1759.559570	41538.890625
1758.547852	41454.707031
1757.535156	41845.933594
1756.523438	41939.359375
1755.510742	41737.542969
1754.498047	42358.875000
1753.485352	42123.460938
1752.472656	41864.136719
1751.458984	42070.195313
1750.445313	42086.734375
1749.432617	42561.199219
1748.417969	42488.953125
1747.404297	42423.917969
1746.390625	42739.914063
1745.375977	42392.144531
1744.361328	42691.261719
1743.346680	42671.738281
1742.332031	42712.082031
1741.317383	42929.578125
1740.302734	42859.746094
1739.287109	43596.484375
1738.271484	43103.015625
1737.255859	43765.277344
1736.240234	43575.738281
1735.223633	44495.976563
1734.208008	44514.406250
1733.191406	44391.773438
1732.174805	44307.425781
1731.158203	44861.214844
1730.140625	44967.972656
1729.124023	45490.386719
1728.106445	45126.425781
1727.088867	45911.332031
1726.071289	45726.507813
1725.053711	46429.851563
1724.035156	46039.718750
1723.017578	46673.546875
1721.999023	46457.691406
1720.980469	46943.304688
1719.961914	46748.937500
1718.942383	47179.472656
1717.923828	46665.621094
1716.904297	47270.042969
1715.884766	47526.250000
1714.865234	47181.804688
1713.844727	47302.117188
1712.825195	47381.882813
1711.804688	47273.449219
1710.784180	47062.648438
1709.763672	47492.425781
1708.743164	47222.140625
1707.722656	46754.394531
1706.701172	46988.847656
1705.679688	47249.390625
1704.658203	47055.457031
1703.636719	46657.042969
1702.615234	47093.476563
1701.592773	46333.785156
1700.571289	46401.644531
1699.548828	46265.070313
1698.526367	46228.351563
1697.502930	46719.113281
1696.480469	46406.757813
1695.457031	46474.535156
1694.433594	46354.683594
1693.410156	46230.121094
1692.386719	46179.195313
1691.363281	46118.789063
1690.338867	46388.253906
1689.314453	46557.976563
1688.290039	46400.269531
1687.265625	46297.167969
1686.241211	46473.921875
1685.215820	46330.531250
1684.191406	46556.996094
1683.166016	46821.296875
1682.140625	46739.531250
1681.115234	46837.851563
1680.088867	47248.828125
1679.062500	47808.863281
1678.037109	47222.585938
1677.010742	47311.277344
1675.983398	47324.183594
1674.957031	47266.085938
1673.930664	47404.406250
1672.903320	47351.039063
1671.875977	47046.949219
1670.848633	48150.171875
1669.820313	47671.062500
1668.792969	47698.062500
1667.764648	47739.234375
1666.736328	48165.617188
1665.708008	47899.503906
1664.679688	48030.386719
1663.651367	48310.035156
1662.622070	48399.632813
1661.592773	48489.234375
1660.563477	48578.832031
1659.534180	48668.433594
1658.504883	48758.031250
1657.474609	48699.816406
1656.444336	48323.132813
1655.415039	48642.414063
1654.383789	48537.082031
1653.353516	48849.132813
1652.323242	48807.449219
1651.291992	49029.769531
1650.260742	49513.601563
1649.229492	49271.531250
1648.198242	49463.019531
1647.166016	49510.757813
1646.134766	49664.453125
1645.102539	49954.656250
1644.070313	49936.359375
1643.038086	50450.007813
1642.004883	49984.496094
1640.972656	50323.839844
1639.939453	50470.152344
1638.906250	50381.210938
1637.873047	50553.328125
1636.839844	50859.402344
1635.805664	51134.804688
1634.772461	51229.125000
1633.738281	51182.414063
1632.704102	51022.937500
1631.668945	51955.867188
1630.634766	52385.835938
1629.599609	52021.921875
1628.565430	52346.066406
1627.530273	52611.406250
1626.494141	53282.687500
1625.458984	53521.949219
1624.422852	54138.863281
1623.387695	54394.304688
1622.351563	55006.148438
1621.315430	56173.527344
1620.278320	56723.875000
1619.242188	58162.449219
1618.205078	59783.316406
1617.167969	60991.187500
1616.130859	62772.625000
1615.093750	64696.320313
1614.055664	66488.171875
1613.018555	68199.765625
1611.980469	69070.257813
1610.942383	69259.265625
1609.904297	69242.250000
1608.865234	69468.593750
1607.827148	67832.578125
1606.788086	66309.429688
1605.749023	64440.683594
1604.709961	62663.796875
1603.669922	61752.554688
1602.630859	60780.855469
1601.590820	59236.929688
1600.550781	58380.519531
1599.510742	58255.640625
1598.470703	57077.367188
1597.429688	56359.578125
1596.389648	56106.699219
1595.348633	55977.636719
1594.307617	55059.683594
1593.265625	54725.484375
1592.224609	54498.734375
1591.182617	54169.414063
1590.140625	54103.777344
1589.098633	53942.550781
1588.056641	53872.312500
1587.014648	53219.289063
1585.971680	53198.148438
1584.928711	53314.500000
1583.886719	52936.859375
1582.842773	52834.238281
1581.799805	52610.531250
1580.755859	52715.257813
1579.712891	53097.011719
1578.668945	52081.890625
1577.625000	52540.421875
1576.580078	52379.789063
1575.536133	52147.085938
1574.491211	52468.109375
1573.446289	52842.507813
1572.401367	52179.640625
1571.356445	52391.203125
1570.311523	52442.292969
1569.265625	52174.953125
1568.219727	52418.925781
1567.173828	52435.128906
1566.127930	52158.632813
1565.082031	51577.988281
1564.035156	51540.917969
1562.988281	51118.460938
1561.941406	51561.976563
1560.894531	51311.406250
1559.847656	51705.996094
1558.799805	51699.082031
1557.751953	51648.097656
1556.704102	51824.410156
1555.656250	51924.136719
1554.608398	51894.000000
1553.560547	51734.062500
1552.511719	51773.492188
1551.462891	51942.660156
1550.414063	52026.050781
1549.365234	52468.429688
1548.315430	52364.105469
1547.265625	52185.722656
1546.216797	51984.250000
1545.166992	52289.750000
1544.116211	52706.218750
1543.066406	52217.843750
1542.015625	52287.167969
1540.965820	52222.312500
1539.915039	52268.480469
1538.863281	52155.089844
1537.812500	52256.730469
1536.760742	51535.500000
1535.709961	51785.109375
1534.658203	51708.847656
1533.605469	51803.554688
1532.553711	51311.574219
1531.501953	51427.097656
1530.449219	51085.425781
1529.396484	50686.167969
1528.343750	51314.113281
1527.290039	50668.039063
1526.237305	50273.675781
1525.183594	50391.554688
1524.129883	50716.964844
1523.076172	50278.984375
1522.022461	50797.957031
1520.968750	50443.101563
1519.914063	50533.175781
1518.859375	50266.054688
1517.804688	49671.871094
1516.750000	49978.558594
1515.694336	49409.968750
1514.639648	50006.722656
1513.583984	49944.824219
1512.528320	49965.804688
1511.472656	50265.253906
1510.416016	49929.511719
1509.360352	49899.867188
1508.303711	49999.042969
1507.247070	50095.878906
1506.190430	49978.839844
1505.132813	50312.433594
1504.076172	50422.949219
1503.018555	50053.113281
1501.960938	49823.570313
1500.903320	50145.457031
1499.844727	50203.085938
1498.787109	50138.976563
1497.728516	50281.539063
1496.669922	50169.226563
1495.611328	49742.503906
1494.552734	50080.113281
1493.493164	49747.625000
1492.434570	49674.480469
1491.375000	49530.257813
1490.315430	50147.421875
1489.254883	49468.941406
1488.195313	49952.937500
1487.134766	50005.867188
1486.074219	49515.679688
1485.013672	49866.511719
1483.953125	50036.250000
1482.892578	49944.828125
1481.831055	50041.207031
1480.769531	50219.976563
1479.708008	49950.015625
1478.646484	50131.019531
1477.583984	49630.054688
1476.522461	49493.035156
1475.459961	50069.742188
1474.397461	50111.078125
1473.334961	50541.121094
1472.271484	50095.390625
1471.208984	50582.421875
1470.145508	49951.722656
1469.082031	50232.953125
1468.018555	50870.472656
1466.954102	50797.390625
1465.890625	50272.148438
1464.826172	51041.746094
1463.761719	51080.527344
1462.697266	50868.218750
1461.631836	51546.003906
1460.567383	51269.792969
1459.501953	51283.402344
1458.436523	51436.140625
1457.371094	51360.773438
1456.305664	51830.367188
1455.239258	51299.023438
1454.172852	51704.632813
1453.107422	51743.207031
1452.040039	51720.246094
1450.973633	51972.929688
1449.907227	51993.207031
1448.839844	51612.683594
1447.772461	51828.816406
1446.705078	52386.328125
1445.637695	52445.195313
1444.569336	51725.800781
1443.500977	52226.144531
1442.432617	52394.191406
1441.364258	52691.812500
1440.295898	52741.468750
1439.227539	53248.082031
1438.158203	53713.593750
1437.088867	53469.851563
1436.019531	53837.445313
1434.950195	54286.691406
1433.879883	54529.066406
1432.810547	54639.632813
1431.740234	54452.699219
1430.669922	54908.312500
1429.598633	55059.601563
1428.528320	55496.781250
1427.457031	55305.281250
1426.386719	55771.750000
1425.314453	55936.375000
1424.243164	56153.093750
1423.171875	56086.312500
1422.099609	56475.214844
1421.027344	56537.589844
1419.955078	56176.164063
1418.882813	56322.398438
1417.810547	56323.593750
1416.737305	56580.726563
1415.664063	56593.191406
1414.590820	55983.015625
1413.517578	56083.863281
1412.444336	55892.707031
1411.370117	55156.257813
1410.295898	55200.628906
1409.221680	55369.402344
1408.147461	55377.531250
1407.073242	55008.019531
1405.998047	55242.292969
1404.922852	55458.398438
1403.847656	55328.632813
1402.772461	55293.816406
1401.697266	55887.082031
1400.621094	55418.472656
1399.544922	55801.464844
1398.468750	56211.410156
1397.392578	56266.757813
1396.316406	56626.808594
1395.239258	57144.707031
1394.162109	57576.667969
1393.084961	58044.570313
1392.007813	58582.222656
1390.930664	58828.761719
1389.852539	59307.453125
1388.774414	60162.449219
1387.696289	60428.847656
1386.618164	60285.000000
1385.540039	60702.234375
1384.460938	60085.308594
1383.382813	60678.109375
1382.303711	61345.007813
1381.223633	61228.128906
1380.144531	60640.804688
1379.064453	60692.894531
1377.985352	60807.972656
1376.905273	61103.000000
1375.825195	60846.789063
1374.744141	60484.960938
1373.664063	60615.722656
1372.583008	60980.257813
1371.501953	60324.121094
1370.420898	59922.179688
1369.338867	59799.019531
1368.257813	59338.902344
1367.175781	59532.613281
1366.093750	59688.066406
1365.011719	60018.609375
1363.929688	60434.339844
1362.846680	60010.425781
1361.763672	60080.390625
1360.680664	60578.902344
1359.597656	60684.628906
1358.514648	60644.519531
1357.430664	60606.667969
1356.346680	59927.550781
1355.262695	59867.414063
1354.178711	59708.679688
1353.094727	58613.261719
1352.009766	58537.703125
1350.925781	58045.496094
1349.840820	57743.847656
1348.755859	57368.402344
1347.669922	57131.910156
1346.584961	57229.046875
1345.499023	56867.320313
1344.413086	56866.003906
1343.327148	56721.492188
1342.240234	56512.160156
1341.154297	56841.910156
1340.067383	57202.843750
1338.980469	56425.652344
1337.893555	56674.757813
1336.805664	56997.527344
1335.718750	56475.523438
1334.630859	56829.480469
1333.542969	56810.281250
1332.455078	56880.414063
1331.367188	56872.371094
1330.278320	57190.273438
1329.189453	57499.128906
1328.100586	57477.578125
1327.011719	57864.363281
1325.922852	57891.828125
1324.833008	58398.839844
1323.743164	58789.699219
1322.653320	59630.812500
1321.563477	59887.546875
1320.473633	60560.988281
1319.382813	61862.613281
1318.291992	62842.921875
1317.201172	63622.382813
1316.110352	64488.421875
1315.019531	65325.195313
1313.927734	65847.734375
1312.835938	66029.492188
1311.744141	66745.335938
1310.652344	66074.585938
1309.560547	65849.046875
1308.467773	65341.082031
1307.375000	64221.683594
1306.282227	63442.906250
1305.189453	63355.835938
1304.095703	61903.968750
1303.002930	61670.523438
1301.909180	61603.812500
1300.815430	60481.843750
1299.721680	60697.460938
1298.626953	60557.667969
1297.533203	60697.695313
1296.438477	60631.207031
1295.343750	60618.011719
1294.248047	60744.628906
1293.153320	61139.675781
1292.057617	61035.429688
1290.961914	61050.996094
1289.866211	61377.015625
1288.770508	61425.765625
1287.674805	61820.320313
1286.578125	62006.382813
1285.481445	61478.820313
1284.384766	61766.792969
1283.288086	60966.988281
1282.190430	61677.972656
1281.092773	61604.792969
1279.996094	60991.421875
1278.897461	61144.179688
1277.799805	60440.367188
1276.702148	60254.601563
1275.603516	60015.804688
1274.504883	60024.835938
1273.406250	59487.597656
1272.307617	59432.589844
1271.208008	59439.503906
1270.108398	59408.835938
1269.008789	59020.156250
1267.909180	59013.875000
1266.809570	58519.363281
1265.708984	58700.917969
1264.609375	58555.562500
1263.508789	58350.640625
1262.407227	58242.925781
1261.306641	58033.714844
1260.206055	57851.058594
1259.104492	58142.839844
1258.002930	57580.796875
1256.901367	57310.089844
1255.798828	57065.945313
1254.697266	57240.792969
1253.594727	56743.238281
1252.492188	56944.527344
1251.389648	56881.308594
1250.286133	57126.554688
1249.183594	56464.164063
1248.080078	56372.425781
1246.976563	56434.859375
1245.872070	56710.824219
1244.768555	56462.800781
1243.664063	56582.398438
1242.560547	57071.617188
1241.455078	56975.457031
1240.350586	56980.507813
1239.246094	57150.496094
1238.140625	56992.800781
1237.035156	56839.554688
1235.929688	56980.894531
1234.824219	57308.976563
1233.717773	56925.042969
1232.612305	56622.531250
1231.505859	56559.531250
1230.399414	56547.062500
1229.291992	56528.007813
1228.185547	56785.550781
1227.078125	56531.613281
1225.970703	56258.011719
1224.863281	56096.402344
1223.755859	56092.789063
1222.647461	55812.832031
1221.539063	56201.781250
1220.430664	56049.058594
1219.322266	55876.660156
1218.213867	55636.386719
1217.104492	56110.531250
1215.995117	55557.007813
1214.885742	55822.898438
1213.776367	55733.910156
1212.666992	55837.636719
1211.556641	55788.078125
1210.446289	55749.476563
1209.335938	55868.457031
1208.225586	55906.433594
1207.115234	56115.027344
1206.003906	55969.214844
1204.892578	56265.191406
1203.781250	56845.292969
1202.669922	56452.394531
1201.557617	56621.347656
1200.446289	56718.125000
1199.333984	56974.355469
1198.221680	57195.542969
1197.108398	57065.011719
1195.996094	57255.523438
1194.882813	57371.730469
1193.769531	57603.585938
1192.656250	57492.710938
1191.542969	57689.539063
1190.428711	57223.070313
1189.314453	56990.164063
1188.200195	56776.964844
1187.085938	56858.207031
1185.971680	56366.058594
1184.856445	56652.230469
1183.741211	56596.148438
1182.625977	56594.558594
1181.510742	56706.246094
1180.395508	56654.535156
1179.279297	57014.425781
1178.163086	57014.925781
1177.046875	56571.335938
1175.930664	56182.316406
1174.813477	56650.828125
1173.697266	56316.324219
1172.580078	56591.031250
1171.462891	56482.847656
1170.344727	56372.523438
1169.227539	56566.621094
1168.109375	56336.765625
1166.991211	56087.429688
1165.873047	56224.964844
1164.754883	56123.468750
1163.635742	56013.320313
1162.516602	55979.218750
1161.397461	56207.863281
1160.278320	55795.988281
1159.159180	56328.457031
1158.039063	56081.636719
1156.918945	56279.707031
1155.798828	55750.960938
1154.678711	55430.628906
1153.558594	56366.023438
1152.437500	55566.519531
1151.316406	55222.542969
1150.195313	55871.359375
1149.074219	55698.640625
1147.952148	55870.476563
1146.831055	56280.527344
1145.708984	56482.511719
1144.586914	56985.410156
1143.463867	57065.941406
1142.341797	56908.332031
1141.218750	57371.914063
1140.095703	58006.269531
1138.972656	58082.222656
1137.849609	58441.503906
1136.725586	58843.902344
1135.601563	58413.679688
1134.477539	58171.695313
1133.353516	58712.250000
1132.229492	58035.917969
1131.104492	58027.480469
1129.979492	57939.113281
1128.854492	57878.851563
1127.729492	57658.812500
1126.603516	57795.097656
1125.478516	57903.273438
1124.352539	57430.812500
1123.226563	57208.843750
1122.099609	57461.613281
1120.973633	57254.816406
1119.846680	57160.242188
1118.719727	57289.957031
1117.592773	56522.750000
1116.465820	56387.398438
1115.337891	56157.265625
1114.209961	56386.179688
1113.082031	56117.347656
1111.954102	55827.074219
1110.826172	56086.066406
1109.697266	55920.785156
1108.568359	55988.062500
1107.439453	55878.812500
1106.310547	55528.578125
1105.180664	55931.535156
1104.051758	55908.402344
1102.921875	55913.234375
1101.791992	55969.671875
1100.661133	55733.679688
1099.531250	56138.371094
1098.400391	55990.546875
1097.269531	55866.414063
1096.138672	56156.980469
1095.006836	56028.562500
1093.875977	55938.847656
1092.744141	55484.121094
1091.612305	55609.222656
1090.480469	55837.308594
1089.347656	55376.406250
1088.215820	55355.542969
1087.083008	55317.523438
1085.950195	55483.281250
1084.816406	55213.636719
1083.683594	55130.625000
1082.549805	55135.539063
1081.416016	55129.730469
1080.282227	54956.773438
1079.148438	55212.390625
1078.013672	55215.132813
1076.878906	55065.804688
1075.744141	55038.589844
1074.609375	55246.894531
1073.474609	54999.164063
1072.338867	55145.328125
1071.203125	55120.246094
1070.067383	55409.671875
1068.931641	55292.566406
1067.794922	54754.187500
1066.659180	55233.820313
1065.522461	54811.085938
1064.385742	55230.679688
1063.248047	54906.402344
1062.111328	55306.589844
1060.973633	54988.824219
1059.835938	54974.472656
1058.698242	54680.371094
1057.559570	54651.128906
1056.421875	55358.386719
1055.283203	54771.960938
1054.144531	54992.386719
1053.005859	54931.097656
1051.866211	54498.656250
1050.726563	55145.562500
1049.587891	55007.503906
1048.447266	55157.316406
1047.307617	55113.093750
1046.167969	55399.226563
1045.027344	55244.167969
1043.886719	55525.906250
1042.746094	55620.093750
1041.604492	54962.468750
1040.463867	55318.621094
1039.322266	55608.644531
1038.180664	55251.492188
1037.038086	55320.093750
1035.896484	55195.046875
1034.753906	55459.339844
1033.611328	55342.816406
1032.468750	55296.503906
1031.326172	54659.140625
1030.182617	55433.511719
1029.040039	55321.316406
1027.896484	55319.660156
1026.751953	55041.804688
1025.608398	55123.039063
1024.463867	55000.351563
1023.319336	55096.425781
1022.174805	55003.507813
1021.030273	55481.613281
1019.885742	55182.796875
1018.740234	55115.367188
1017.594727	55219.804688
1016.449219	54910.585938
1015.303711	55411.585938
1014.157227	55083.359375
1013.010742	55090.199219
1011.864258	55171.214844
1010.717773	55277.628906
1009.571289	54693.289063
1008.423828	54704.421875
1007.276367	55092.542969
1006.128906	55167.121094
1004.981445	55375.050781
1003.833008	55292.898438
1002.684570	55530.355469
1001.536133	55655.570313
1000.387695	56108.660156
999.239258	56134.300781
998.089844	56071.109375
996.941406	56847.378906
995.791992	56145.621094
994.641602	56192.363281
993.492188	56015.078125
992.341797	56040.695313
991.191406	55149.464844
990.041016	55791.964844
988.890625	56223.054688
987.739258	55680.652344
986.588867	55811.839844
985.437500	55727.699219
984.285156	56158.476563
983.133789	56405.535156
981.981445	55956.398438
980.829102	55880.718750
979.676758	56074.968750
978.524414	55493.312500
977.372070	55896.238281
976.218750	55673.093750
975.065430	55669.164063
973.912109	55861.156250
972.757813	56305.832031
971.604492	56112.250000
970.450195	55729.238281
969.295898	56386.304688
968.141602	56083.359375
966.986328	56058.296875
965.832031	56159.484375
964.676758	56460.468750
963.521484	56250.261719
962.365234	56431.257813
961.209961	56706.789063
960.053711	56395.750000
958.897461	56585.015625
957.741211	56824.640625
956.584961	56839.378906
955.427734	56526.429688
954.270508	56602.117188
953.113281	56757.562500
951.956055	56419.601563
950.797852	56629.589844
949.639648	56946.527344
948.481445	56338.046875
947.323242	56170.328125
946.165039	56717.878906
945.005859	56518.687500
943.847656	56642.449219
942.687500	56279.835938
941.528320	56313.468750
940.369141	56141.730469
939.208984	56271.742188
938.048828	56640.503906
936.888672	56292.871094
935.728516	56517.003906
934.567383	56535.886719
933.406250	56295.207031
932.245117	56784.988281
931.083984	56648.968750
929.922852	56561.109375
928.760742	56621.785156
927.598633	56615.515625
926.436523	57476.945313
925.274414	57234.292969
924.111328	56878.867188
922.948242	56786.871094
921.785156	57104.402344
920.622070	57116.839844
919.458984	57789.238281
918.294922	57561.398438
917.130859	57600.875000
915.966797	57826.109375
914.802734	58387.257813
913.637695	57708.765625
912.472656	58173.761719
911.307617	58269.390625
910.142578	58723.675781
908.977539	58400.070313
907.811523	58704.066406
906.645508	59289.320313
905.479492	58976.199219
904.313477	58929.882813
903.146484	59014.816406
901.980469	58803.964844
900.813477	58807.671875
899.646484	58476.179688
898.478516	58409.167969
897.311523	58335.933594
896.143555	58420.867188
894.975586	58014.781250
893.806641	58020.695313
892.638672	58161.781250
891.469727	58123.996094
890.300781	58148.589844
889.131836	57898.804688
887.962891	58432.566406
886.792969	58500.710938
885.623047	58223.988281
884.453125	58250.601563
883.283203	58673.832031
882.112305	58550.859375
880.942383	58853.476563
879.771484	58821.832031
878.600586	59049.578125
877.428711	59459.804688
876.257813	59353.382813
875.085938	59875.390625
873.914063	59870.527344
872.741211	59865.664063
871.569336	60196.585938
870.396484	59891.164063
869.223633	60143.218750
868.050781	59810.984375
866.877930	60299.070313
865.704102	60548.828125
864.530273	60755.011719
863.356445	61085.320313
862.182617	61645.238281
861.007813	62360.140625
859.833984	62164.457031
858.659180	62239.820313
857.484375	62499.214844
856.308594	62063.746094
855.133789	61919.933594
853.958008	61679.023438
852.782227	61171.609375
851.605469	61257.386719
850.429688	61285.285156
849.252930	61063.250000
848.076172	61419.515625
846.899414	61672.410156
845.722656	61801.351563
844.544922	61808.472656
843.367188	61960.031250
842.189453	62258.019531
841.011719	62504.324219
839.833008	62684.535156
838.655273	63075.003906
837.476563	63663.242188
836.296875	63762.742188
835.118164	64433.066406
833.938477	64052.285156
832.758789	63871.476563
831.579102	63544.488281
830.399414	63122.890625
829.219727	62295.832031
828.039063	61755.222656
826.858398	61260.085938
825.677734	60359.742188
824.496094	60700.363281
823.315430	59837.480469
822.133789	59929.207031
820.952148	59480.093750
819.769531	58788.550781
818.587891	58430.253906
817.405273	58729.730469
816.222656	58466.093750
815.040039	58391.550781
813.856445	58403.304688
812.673828	58178.882813
811.490234	57927.851563
810.305664	57779.550781
809.122070	58128.000000
807.938477	58273.164063
806.753906	58198.734375
805.569336	58079.203125
804.383789	58833.417969
803.199219	58506.699219
802.013672	58247.757813
800.828125	58197.988281
799.642578	57334.613281
798.457031	57698.933594
797.270508	57378.863281
796.083984	56958.542969
794.897461	56915.191406
793.710938	56359.972656
792.523438	56496.886719
791.336914	55540.785156
790.149414	56230.316406
788.961914	56078.691406
787.773438	56326.011719
786.585938	56166.234375
785.397461	55789.761719
784.208984	55617.871094
783.019531	55396.984375
781.831055	55323.328125
780.641602	55237.433594
779.452148	55000.390625
778.262695	54624.539063
777.072266	55063.656250
775.882813	54800.226563
774.692383	55030.921875
773.501953	54830.863281
772.310547	55028.808594
771.120117	54887.988281
769.928711	54679.902344
768.737305	55016.445313
767.544922	54959.304688
766.353516	55205.957031
765.161133	55330.214844
763.968750	55707.136719
762.776367	55725.292969
761.583984	55782.144531
760.390625	55969.335938
759.197266	55946.695313
758.003906	56632.628906
756.810547	56436.828125
755.616211	56798.789063
754.421875	56995.777344
753.227539	56407.332031
752.033203	56718.230469
750.838867	56215.472656
749.643555	56087.058594
748.448242	56072.542969
747.252930	55450.250000
746.057617	55407.398438
744.861328	55334.082031
743.665039	55433.476563
742.468750	54978.312500
741.272461	54507.070313
740.075195	54435.996094
738.878906	54791.257813
737.681641	54293.921875
736.484375	54054.488281
735.286133	54358.890625
734.087891	54208.785156
732.890625	54141.886719
731.691406	53744.484375
730.493164	53657.417969
729.294922	53904.843750
728.095703	53325.300781
726.896484	53515.953125
725.696289	53455.324219
724.497070	53518.269531
723.296875	53656.121094
722.096680	53435.531250
720.896484	53698.855469
719.696289	53439.878906
718.495117	53492.640625
717.293945	53897.421875
716.092773	53517.175781
714.891602	53816.628906
713.689453	53859.160156
712.487305	53679.277344
711.285156	53347.859375
710.083008	53685.511719
708.880859	53905.835938
707.677734	54126.078125
706.474609	53790.773438
705.271484	54101.824219
704.068359	53918.078125
702.864258	53692.003906
701.660156	53744.542969
700.456055	54010.964844
699.251953	53845.519531
698.046875	53924.218750
696.841797	53530.945313
695.636719	53922.218750
694.431641	53912.144531
693.226563	53887.957031
692.020508	53547.375000
690.814453	53579.679688
689.608398	53908.113281
688.402344	53525.410156
687.195313	53362.355469
685.988281	53638.289063
684.781250	53340.390625
683.574219	53755.097656
682.366211	53388.867188
681.158203	53197.808594
679.950195	53207.976563
678.742188	53696.800781
677.534180	53797.355469
676.325195	53542.019531
675.116211	53431.500000
673.907227	53497.875000
672.697266	53634.546875
671.488281	53947.949219
670.278320	53158.535156
669.068359	53775.140625
667.858398	53275.175781
666.647461	53138.738281
665.436523	53634.570313
664.225586	53349.617188
663.014648	53451.984375
661.802734	53421.921875
660.591797	53183.289063
659.379883	52888.597656
658.167969	52948.863281
656.955078	52824.695313
655.743164	53229.644531
654.530273	53037.343750
653.317383	53596.347656
652.103516	53285.871094
650.890625	53388.035156
649.676758	53518.187500
648.462891	53644.285156
647.249023	53456.109375
646.034180	54480.640625
644.819336	54634.488281
643.604492	54354.210938
642.389648	54932.007813
641.174805	55497.585938
639.958984	55359.238281
638.743164	55073.027344
637.527344	54415.214844
636.311523	54428.992188
635.094727	54123.132813
633.877930	53889.289063
632.661133	53687.480469
631.444336	53577.589844
630.226563	53851.000000
629.008789	53327.980469
627.791016	53020.660156
626.573242	53044.636719
625.355469	52799.312500
624.136719	52849.242188
622.917969	52731.656250
621.699219	52949.031250
620.480469	52855.382813
619.260742	52841.484375
618.041016	53050.738281
616.821289	52722.054688
615.601563	52795.812500
614.380859	53247.890625
613.160156	52634.640625
611.939453	52642.679688
610.718750	52497.464844
609.497070	52754.250000
608.276367	53024.859375
607.054688	53014.906250
605.832031	52589.312500
604.610352	52686.808594
603.387695	52418.480469
602.165039	52641.187500
600.942383	52641.238281
599.719727	52994.945313
598.496094	52283.769531
597.272461	52528.167969
596.048828	52828.074219
594.825195	52411.156250
593.600586	52542.242188
592.375977	52568.093750
591.151367	52970.937500
589.926758	52597.941406
588.701172	52294.500000
587.476563	52502.816406
586.250977	52467.171875
585.024414	52431.542969
583.798828	52526.734375
582.572266	52661.519531
581.345703	52845.781250
580.119141	52623.894531
578.892578	52499.132813
577.665039	52879.347656
576.437500	52764.476563
575.209961	52788.203125
573.982422	52756.507813
572.753906	52853.433594
571.525391	52906.796875
570.296875	52714.878906
569.068359	53136.066406
567.838867	52938.242188
566.610352	53412.593750
565.380859	53252.488281
564.150391	53092.257813
562.920898	52932.152344
561.690430	52771.917969
560.459961	52846.906250
559.229492	53176.582031
557.999023	52730.281250
556.767578	53038.140625
555.536133	52657.152344
554.304688	52751.812500
553.073242	52893.777344
551.840820	52862.125000
550.608398	52666.808594
549.375977	52970.371094
548.143555	52822.414063
546.910156	52680.417969
545.676758	52962.125000
544.443359	52936.390625
543.209961	53046.574219
541.975586	52857.371094
540.742188	52993.117188
539.507813	52788.242188
538.272461	52782.234375
537.038086	53150.117188
535.802734	53071.242188
534.567383	52998.292969
533.332031	53426.890625
532.096680	53363.730469
530.860352	53467.699219
529.624023	53909.718750
528.387695	53862.218750
527.151367	53871.710938
525.914063	53936.207031
524.676758	53904.433594
523.439453	54127.960938
522.202148	53797.718750
520.963867	53703.160156
519.725586	53357.414063
518.487305	53488.636719
517.249023	53623.734375
516.009766	53619.503906
514.771484	53372.082031
513.532227	52812.980469
512.291992	53257.843750
511.052734	53733.898438
509.812500	53122.125000
508.572266	53466.746094
507.332031	52988.457031
506.090820	53356.468750
504.850586	53487.394531
503.609375	53487.085938
502.368164	53884.152344
501.125977	53504.082031
499.884766	53495.937500
498.642578	53626.699219
497.400391	53792.613281
496.157227	53506.710938
494.915039	54122.296875
493.671875	53738.687500
492.428711	53806.718750
491.184570	54005.656250
489.941406	54284.617188
488.697266	54245.062500
487.453125	54176.222656
486.208984	54308.535156
484.963867	54425.175781
483.718750	53889.812500
482.473633	54392.898438
481.228516	54665.550781
479.982422	54741.054688
478.737305	54541.511719
477.491211	55092.839844
476.244141	54873.800781
474.998047	55399.507813
473.750977	55065.500000
472.503906	55349.335938
471.256836	55759.695313
470.009766	55435.539063
468.761719	55255.621094
467.513672	55484.675781
466.265625	55746.734375
465.017578	56199.441406
463.768555	56315.308594
462.519531	56240.445313
461.270508	56373.761719
460.021484	56582.878906
458.771484	56823.023438
457.521484	57269.167969
456.271484	57336.085938
455.021484	57282.480469
453.770508	57304.671875
452.519531	57851.398438
451.268555	57956.992188
450.017578	58031.468750
448.765625	58280.664063
447.514648	59145.152344
446.262695	59485.261719
445.009766	59893.156250
443.757813	60516.257813
442.504883	60731.757813
441.251953	60553.464844
439.999023	59595.722656
438.745117	59603.824219
437.492188	58801.687500
436.238281	58156.832031
434.983398	57806.734375
433.729492	57999.191406
432.474609	56800.898438
431.219727	56435.753906
429.964844	56597.375000
428.709961	56362.101563
427.454102	55993.371094
426.198242	56073.703125
424.942383	55635.511719
423.685547	55417.996094
422.429688	55945.128906
421.172852	55801.105469
419.916016	55906.519531
418.658203	55808.941406
417.401367	55827.347656
416.143555	55629.347656
414.885742	55620.730469
413.626953	55277.984375
412.369141	55607.359375
411.110352	55660.523438
409.851563	55512.914063
408.591797	55645.195313
407.333008	55501.500000
406.073242	55751.410156
404.813477	55362.785156
403.553711	55610.691406
402.292969	55665.695313
401.032227	55728.382813
