EXPLAIN
TAG	CHRONOA
TITLE	LABEL	Chronoamperometry Scan	Test Identifier
DATE	LABEL	23/6/2022	Date
TIME	LABEL	12:49:47	Time
NOTES	NOTES	1	Notes...
	
PSTAT	PSTAT	IFC1010-21051	Potentiostat
VPRESTEP	POTEN	2.50000E-001	F	Pre-step Voltage (V)
TPRESTEP	QUANT	5.00000E-001	Pre-step Delay Time (s)
VSTEP1	POTEN	3.00000E-001	F	Step 1 Voltage (V)
TSTEP1	QUANT	3.00000E+002	Step 1 Time (s)
VSTEP2	POTEN	3.50000E-001	F	Step 2 Voltage (V)
TSTEP2	QUANT	1.00000E+000	Step 2 Time (s)
SAMPLETIME	QUANT	1.00000E-002	Sample Period (s)
DECIMATE	TOGGLE	T	Decimate
ILIMIT	QUANT	1.00000E+000	Limit I (mA/cm^2)
IMODE	SELECTOR	1	I/E Range Mode
IRANGE	QUANT	3.00000E-001	Max Current (mA)
EQDELAY	QUANT	5.00000E+000	Equil. Time (s)
SAMPLINGMODE	SELECTOR	1	Sampling Mode
AREA	QUANT	1.00000E+000	Sample Area (cm^2)
IRCOMP	SELECTOR	0	IRComp
PFCOR	QUANT	5.00000E+001	PF Corr. (ohm)
SEQUENCER	TOGGLE	TRUE	Run as Sequence
PSTATMODEL	IQUANT	64	Pstat Model
PSTATSECTION	LABEL	IFC1010-21051	Pstat Section
PSTATSERIALNO	LABEL	21051	Pstat Serial Number
CTRLMODE	IQUANT	1	Control Mode
ELECTROMETER	IQUANT	0	RE=0 or CS=1
IESTAB	IQUANT	0	I/E Stability
CASPEED	IQUANT	4	Control Amp Speed
CONVENTION	IQUANT	1	Current Convention
ICHRANGE	IQUANT	2	Ich Range
ICHRANGEMODE	TOGGLE	T	Ich Auto Range
ICHOFFSETENABLE	TOGGLE	F	Ich Offset Enable
ICHOFFSET	QUANT	0	Ich Offset (V)
ICHFILTER	IQUANT	3	Ich Filter
VCHRANGE	IQUANT	3	Vch Range
VCHRANGEMODE	TOGGLE	T	Vch Auto Range
VCHOFFSETENABLE	TOGGLE	F	Vch Offset Enable
VCHOFFSET	QUANT	0	Vch Offset (V)
VCHFILTER	IQUANT	3	Vch Filter
IERANGELOWERLIMIT	IQUANT	4	I/E Range Lower Limit
IERANGEMODE	TOGGLE	F	I/E AutoRange
IERANGE	IQUANT	9	I/E Range
ACHSELECT	IQUANT	0	Ach Select
ACHRANGE	IQUANT	2	Ach Range
ACHOFFSETENABLE	TOGGLE	F	Ach Offset Enable
ACHOFFSET	QUANT	0	Ach Offset (V)
ACHFILTER	IQUANT	1	Ach Filter
SENSECABLEID	IQUANT	14	Sense Cable ID
PWRCABLEID	IQUANT	14	Power Cable ID
DCCALDATE	LABEL	5/16/2022	DC Calibration Date
ACCALDATE	LABEL	4/2/2018	AC Calibration Date
FRAMEWORKVERSION	QUANT	7.06	Framework Version
INSTRUMENTVERSION	LABEL	4.30	Instrument Version
CURVE	TABLE	40
	Pt	T	Vf	Im	Vu	Sig	Ach	IERange	Over	Temp
	#	s	V vs. Ref.	A	V	V	V	#	bits	deg C
	0	-0.49	2.50182E-001	2.72266E-005	0.00000E+000	2.49884E-001	0.00000E+000	9	...........	1425.34
	1	-0.48	2.50317E-001	2.42877E-005	0.00000E+000	2.49884E-001	0.00000E+000	9	...........	1425.34
	2	-0.47	2.50308E-001	2.07276E-005	0.00000E+000	2.49884E-001	0.00000E+000	9	...........	1425.34
	3	-0.46	2.50319E-001	2.27200E-005	0.00000E+000	2.49884E-001	0.00000E+000	9	...........	1425.34
	4	-0.45	2.50305E-001	2.18672E-005	0.00000E+000	2.49884E-001	0.00000E+000	9	...........	1425.34
	5	-0.44	2.50307E-001	1.82796E-005	0.00000E+000	2.49884E-001	0.00000E+000	9	...........	1425.34
	6	-0.43	2.50316E-001	1.60284E-005	0.00000E+000	2.49884E-001	0.00000E+000	9	...........	1425.34
	7	-0.42	2.50307E-001	1.78049E-005	0.00000E+000	2.49884E-001	0.00000E+000	9	...........	1425.34
	8	-0.41	2.50301E-001	1.81080E-005	0.00000E+000	2.49884E-001	0.00000E+000	9	...........	1425.34
	9	-0.4	2.50306E-001	2.20874E-005	0.00000E+000	2.49884E-001	0.00000E+000	9	...........	1425.34
	10	-0.39	2.50314E-001	2.62305E-005	0.00000E+000	2.49884E-001	0.00000E+000	9	...........	1425.34
	11	-0.38	2.50317E-001	2.61382E-005	0.00000E+000	2.49884E-001	0.00000E+000	9	...........	1425.34
	12	-0.37	2.50304E-001	2.70133E-005	0.00000E+000	2.49884E-001	0.00000E+000	9	...........	1425.34
	13	-0.36	2.50310E-001	2.61788E-005	0.00000E+000	2.49884E-001	0.00000E+000	9	...........	1425.34
	14	-0.35	2.50320E-001	2.56099E-005	0.00000E+000	2.49884E-001	0.00000E+000	9	...........	1425.34
	15	-0.34	2.50312E-001	2.53357E-005	0.00000E+000	2.49884E-001	0.00000E+000	9	...........	1425.34
	16	-0.33	2.50305E-001	2.45380E-005	0.00000E+000	2.49884E-001	0.00000E+000	9	...........	1425.34
	17	-0.32	2.50320E-001	2.37338E-005	0.00000E+000	2.49884E-001	0.00000E+000	9	...........	1425.34
	18	-0.31	2.50310E-001	2.24063E-005	0.00000E+000	2.49884E-001	0.00000E+000	9	...........	1425.34
	19	-0.3	2.50329E-001	2.18032E-005	0.00000E+000	2.49884E-001	0.00000E+000	9	...........	1425.34
	20	-0.29	2.50310E-001	2.22837E-005	0.00000E+000	2.49884E-001	0.00000E+000	9	...........	1425.34
	21	-0.28	2.50329E-001	2.19876E-005	0.00000E+000	2.49884E-001	0.00000E+000	9	...........	1425.44
	22	-0.27	2.50338E-001	2.15009E-005	0.00000E+000	2.49884E-001	0.00000E+000	9	...........	1425.60
	23	-0.26	2.50334E-001	2.14984E-005	0.00000E+000	2.49884E-001	0.00000E+000	9	...........	1425.60
	24	-0.25	2.50322E-001	2.06865E-005	0.00000E+000	2.49884E-001	0.00000E+000	9	...........	1425.60
	25	-0.24	2.50302E-001	2.06776E-005	0.00000E+000	2.49884E-001	0.00000E+000	9	...........	1425.60
	26	-0.23	2.50309E-001	2.15193E-005	0.00000E+000	2.49884E-001	0.00000E+000	9	...........	1425.60
	27	-0.22	2.50319E-001	2.10941E-005	0.00000E+000	2.49884E-001	0.00000E+000	9	...........	1425.60
	28	-0.21	2.50314E-001	2.15788E-005	0.00000E+000	2.49884E-001	0.00000E+000	9	...........	1425.60
	29	-0.2	2.50310E-001	2.10093E-005	0.00000E+000	2.49884E-001	0.00000E+000	9	...........	1425.60
	30	-0.19	2.50304E-001	2.12615E-005	0.00000E+000	2.49884E-001	0.00000E+000	9	...........	1425.60
	31	-0.18	2.50299E-001	2.10713E-005	0.00000E+000	2.49884E-001	0.00000E+000	9	...........	1425.60
	32	-0.17	2.50284E-001	2.19764E-005	0.00000E+000	2.49884E-001	0.00000E+000	9	...........	1425.60
	33	-0.16	2.50309E-001	2.21494E-005	0.00000E+000	2.49884E-001	0.00000E+000	9	...........	1425.60
	34	-0.15	2.50300E-001	2.29207E-005	0.00000E+000	2.49884E-001	0.00000E+000	9	...........	1425.60
	35	-0.14	2.50319E-001	2.33120E-005	0.00000E+000	2.49884E-001	0.00000E+000	9	...........	1425.60
	36	-0.13	2.50320E-001	2.25623E-005	0.00000E+000	2.49884E-001	0.00000E+000	9	...........	1425.60
	37	-0.12	2.50315E-001	2.33784E-005	0.00000E+000	2.49884E-001	0.00000E+000	9	...........	1425.60
	38	-0.11	2.50315E-001	2.14737E-005	0.00000E+000	2.49884E-001	0.00000E+000	9	...........	1425.60
	39	-0.1	2.50319E-001	2.02936E-005	0.00000E+000	2.49884E-001	0.00000E+000	9	...........	1425.60
