EXPLAIN
TAG	CHRONOA
TITLE	LABEL	Chronoamperometry Scan	Test Identifier
DATE	LABEL	23/6/2022	Date
TIME	LABEL	12:24:00	Time
NOTES	NOTES	1	Notes...
	
PSTAT	PSTAT	IFC1010-21051	Potentiostat
VPRESTEP	POTEN	-2.50000E-001	F	Pre-step Voltage (V)
TPRESTEP	QUANT	5.00000E-001	Pre-step Delay Time (s)
VSTEP1	POTEN	-3.00000E-001	F	Step 1 Voltage (V)
TSTEP1	QUANT	3.00000E+002	Step 1 Time (s)
VSTEP2	POTEN	-3.50000E-001	F	Step 2 Voltage (V)
TSTEP2	QUANT	1.00000E+000	Step 2 Time (s)
SAMPLETIME	QUANT	1.00000E-002	Sample Period (s)
DECIMATE	TOGGLE	T	Decimate
ILIMIT	QUANT	1.00000E+000	Limit I (mA/cm^2)
IMODE	SELECTOR	1	I/E Range Mode
IRANGE	QUANT	3.00000E-001	Max Current (mA)
EQDELAY	QUANT	5.00000E+000	Equil. Time (s)
SAMPLINGMODE	SELECTOR	1	Sampling Mode
AREA	QUANT	1.00000E+000	Sample Area (cm^2)
IRCOMP	SELECTOR	0	IRComp
PFCOR	QUANT	5.00000E+001	PF Corr. (ohm)
SEQUENCER	TOGGLE	TRUE	Run as Sequence
PSTATMODEL	IQUANT	64	Pstat Model
PSTATSECTION	LABEL	IFC1010-21051	Pstat Section
PSTATSERIALNO	LABEL	21051	Pstat Serial Number
CTRLMODE	IQUANT	1	Control Mode
ELECTROMETER	IQUANT	0	RE=0 or CS=1
IESTAB	IQUANT	0	I/E Stability
CASPEED	IQUANT	4	Control Amp Speed
CONVENTION	IQUANT	1	Current Convention
ICHRANGE	IQUANT	2	Ich Range
ICHRANGEMODE	TOGGLE	T	Ich Auto Range
ICHOFFSETENABLE	TOGGLE	F	Ich Offset Enable
ICHOFFSET	QUANT	0	Ich Offset (V)
ICHFILTER	IQUANT	3	Ich Filter
VCHRANGE	IQUANT	3	Vch Range
VCHRANGEMODE	TOGGLE	T	Vch Auto Range
VCHOFFSETENABLE	TOGGLE	F	Vch Offset Enable
VCHOFFSET	QUANT	0	Vch Offset (V)
VCHFILTER	IQUANT	3	Vch Filter
IERANGELOWERLIMIT	IQUANT	4	I/E Range Lower Limit
IERANGEMODE	TOGGLE	F	I/E AutoRange
IERANGE	IQUANT	9	I/E Range
ACHSELECT	IQUANT	0	Ach Select
ACHRANGE	IQUANT	2	Ach Range
ACHOFFSETENABLE	TOGGLE	F	Ach Offset Enable
ACHOFFSET	QUANT	0	Ach Offset (V)
ACHFILTER	IQUANT	1	Ach Filter
SENSECABLEID	IQUANT	14	Sense Cable ID
PWRCABLEID	IQUANT	14	Power Cable ID
DCCALDATE	LABEL	5/16/2022	DC Calibration Date
ACCALDATE	LABEL	4/2/2018	AC Calibration Date
FRAMEWORKVERSION	QUANT	7.06	Framework Version
INSTRUMENTVERSION	LABEL	4.30	Instrument Version
CURVE	TABLE	208
	Pt	T	Vf	Im	Vu	Sig	Ach	IERange	Over	Temp
	#	s	V vs. Ref.	A	V	V	V	#	bits	deg C
	0	-0.49	-2.50128E-001	-2.32258E-005	0.00000E+000	-2.49884E-001	0.00000E+000	9	...........	1424.98
	1	-0.48	-2.50205E-001	-2.29052E-005	0.00000E+000	-2.49884E-001	0.00000E+000	9	...........	1424.98
	2	-0.47	-2.50204E-001	-2.32472E-005	0.00000E+000	-2.49884E-001	0.00000E+000	9	...........	1424.98
	3	-0.46	-2.50198E-001	-2.28737E-005	0.00000E+000	-2.49884E-001	0.00000E+000	9	...........	1424.98
	4	-0.45	-2.50203E-001	-2.32305E-005	0.00000E+000	-2.49884E-001	0.00000E+000	9	...........	1424.98
	5	-0.44	-2.50198E-001	-2.28468E-005	0.00000E+000	-2.49884E-001	0.00000E+000	9	...........	1424.98
	6	-0.43	-2.50187E-001	-2.32449E-005	0.00000E+000	-2.49884E-001	0.00000E+000	9	...........	1424.98
	7	-0.42	-2.50185E-001	-2.28084E-005	0.00000E+000	-2.49884E-001	0.00000E+000	9	...........	1424.98
	8	-0.41	-2.50185E-001	-2.32063E-005	0.00000E+000	-2.49884E-001	0.00000E+000	9	...........	1424.98
	9	-0.4	-2.50202E-001	-2.27995E-005	0.00000E+000	-2.49884E-001	0.00000E+000	9	...........	1424.98
	10	-0.39	-2.50197E-001	-2.32113E-005	0.00000E+000	-2.49884E-001	0.00000E+000	9	...........	1424.98
	11	-0.38	-2.50208E-001	-2.27786E-005	0.00000E+000	-2.49884E-001	0.00000E+000	9	...........	1424.98
	12	-0.37	-2.50201E-001	-2.32330E-005	0.00000E+000	-2.49884E-001	0.00000E+000	9	...........	1424.98
	13	-0.36	-2.50210E-001	-2.27697E-005	0.00000E+000	-2.49884E-001	0.00000E+000	9	...........	1424.98
	14	-0.35	-2.50212E-001	-2.32711E-005	0.00000E+000	-2.49884E-001	0.00000E+000	9	...........	1424.98
	15	-0.34	-2.50218E-001	-2.27519E-005	0.00000E+000	-2.49884E-001	0.00000E+000	9	...........	1424.98
	16	-0.33	-2.50204E-001	-2.32447E-005	0.00000E+000	-2.49884E-001	0.00000E+000	9	...........	1424.98
	17	-0.32	-2.50205E-001	-2.27127E-005	0.00000E+000	-2.49884E-001	0.00000E+000	9	...........	1424.98
	18	-0.31	-2.50209E-001	-2.32597E-005	0.00000E+000	-2.49884E-001	0.00000E+000	9	...........	1424.98
	19	-0.3	-2.50200E-001	-2.27041E-005	0.00000E+000	-2.49884E-001	0.00000E+000	9	...........	1424.98
	20	-0.29	-2.50191E-001	-2.32299E-005	0.00000E+000	-2.49884E-001	0.00000E+000	9	...........	1424.98
	21	-0.28	-2.50188E-001	-2.26716E-005	0.00000E+000	-2.49884E-001	0.00000E+000	9	...........	1424.98
	22	-0.27	-2.50203E-001	-2.32358E-005	0.00000E+000	-2.49884E-001	0.00000E+000	9	...........	1424.98
	23	-0.26	-2.50200E-001	-2.26493E-005	0.00000E+000	-2.49884E-001	0.00000E+000	9	...........	1424.98
	24	-0.25	-2.50195E-001	-2.32463E-005	0.00000E+000	-2.49884E-001	0.00000E+000	9	...........	1424.98
	25	-0.24	-2.50193E-001	-2.26596E-005	0.00000E+000	-2.49884E-001	0.00000E+000	9	...........	1424.98
	26	-0.23	-2.50198E-001	-2.32636E-005	0.00000E+000	-2.49884E-001	0.00000E+000	9	...........	1424.98
	27	-0.22	-2.50184E-001	-2.26157E-005	0.00000E+000	-2.49884E-001	0.00000E+000	9	...........	1424.98
	28	-0.21	-2.50185E-001	-2.32455E-005	0.00000E+000	-2.49884E-001	0.00000E+000	9	...........	1424.98
	29	-0.2	-2.50177E-001	-2.25687E-005	0.00000E+000	-2.49884E-001	0.00000E+000	9	...........	1424.98
	30	-0.19	-2.50182E-001	-2.32227E-005	0.00000E+000	-2.49884E-001	0.00000E+000	9	...........	1424.89
	31	-0.18	-2.50188E-001	-2.25651E-005	0.00000E+000	-2.49884E-001	0.00000E+000	9	...........	1424.89
	32	-0.17	-2.50193E-001	-2.32472E-005	0.00000E+000	-2.49884E-001	0.00000E+000	9	...........	1424.89
	33	-0.16	-2.50177E-001	-2.25072E-005	0.00000E+000	-2.49884E-001	0.00000E+000	9	...........	1424.89
	34	-0.15	-2.50183E-001	-2.32377E-005	0.00000E+000	-2.49884E-001	0.00000E+000	9	...........	1424.89
	35	-0.14	-2.50185E-001	-2.24894E-005	0.00000E+000	-2.49884E-001	0.00000E+000	9	...........	1424.89
	36	-0.13	-2.50191E-001	-2.32488E-005	0.00000E+000	-2.49884E-001	0.00000E+000	9	...........	1424.89
	37	-0.12	-2.50195E-001	-2.24800E-005	0.00000E+000	-2.49884E-001	0.00000E+000	9	...........	1424.89
	38	-0.11	-2.50203E-001	-2.32575E-005	0.00000E+000	-2.49884E-001	0.00000E+000	9	...........	1424.89
	39	-0.1	-2.50194E-001	-2.24881E-005	0.00000E+000	-2.49884E-001	0.00000E+000	9	...........	1424.89
	40	-0.09	-2.50195E-001	-2.32853E-005	0.00000E+000	-2.49884E-001	0.00000E+000	9	...........	1424.89
	41	-0.08	-2.50193E-001	-2.24539E-005	0.00000E+000	-2.49884E-001	0.00000E+000	9	...........	1424.89
	42	-0.07	-2.50184E-001	-2.32900E-005	0.00000E+000	-2.49884E-001	0.00000E+000	9	...........	1424.89
	43	-0.06	-2.50188E-001	-2.24255E-005	0.00000E+000	-2.49884E-001	0.00000E+000	9	...........	1424.89
	44	-0.05	-2.50192E-001	-2.32903E-005	0.00000E+000	-2.49884E-001	0.00000E+000	9	...........	1424.89
	45	-0.04	-2.50188E-001	-2.24116E-005	0.00000E+000	-2.49884E-001	0.00000E+000	9	...........	1424.89
	46	-0.03	-2.50193E-001	-2.32942E-005	0.00000E+000	-2.49884E-001	0.00000E+000	9	...........	1424.89
	47	-0.02	-2.50177E-001	-2.23752E-005	0.00000E+000	-2.49884E-001	0.00000E+000	9	...........	1424.89
	48	-0.01	-2.50194E-001	-2.33178E-005	0.00000E+000	-2.49884E-001	0.00000E+000	9	...........	1424.89
	49	0	-2.50188E-001	-2.23640E-005	0.00000E+000	-2.49884E-001	0.00000E+000	9	...........	1424.89
	50	0.01	-3.00189E-001	-2.64960E-004	0.00000E+000	-2.99883E-001	0.00000E+000	9	...........	1424.89
	51	0.02	-3.00194E-001	-2.49210E-004	0.00000E+000	-2.99883E-001	0.00000E+000	9	...........	1424.89
	52	0.03	-3.00185E-001	-2.42078E-004	0.00000E+000	-2.99883E-001	0.00000E+000	9	...........	1424.89
	53	0.04	-3.00189E-001	-2.34324E-004	0.00000E+000	-2.99883E-001	0.00000E+000	9	...........	1424.89
	54	0.05	-3.00186E-001	-2.29407E-004	0.00000E+000	-2.99883E-001	0.00000E+000	9	...........	1424.89
	55	0.06	-3.00193E-001	-2.22820E-004	0.00000E+000	-2.99883E-001	0.00000E+000	9	...........	1424.89
	56	0.07	-3.00195E-001	-2.18738E-004	0.00000E+000	-2.99883E-001	0.00000E+000	9	...........	1424.89
	57	0.08	-3.00199E-001	-2.12756E-004	0.00000E+000	-2.99883E-001	0.00000E+000	9	...........	1424.89
	58	0.09	-3.00183E-001	-2.09238E-004	0.00000E+000	-2.99883E-001	0.00000E+000	9	...........	1424.89
	59	0.1	-3.00199E-001	-2.03669E-004	0.00000E+000	-2.99883E-001	0.00000E+000	9	...........	1424.89
	60	0.11	-3.00192E-001	-2.00542E-004	0.00000E+000	-2.99883E-001	0.00000E+000	9	...........	1424.89
	61	0.12	-3.00189E-001	-1.95314E-004	0.00000E+000	-2.99883E-001	0.00000E+000	9	...........	1424.89
	62	0.13	-3.00193E-001	-1.92574E-004	0.00000E+000	-2.99883E-001	0.00000E+000	9	...........	1424.89
	63	0.14	-3.00202E-001	-1.87590E-004	0.00000E+000	-2.99883E-001	0.00000E+000	9	...........	1424.89
	64	0.15	-3.00191E-001	-1.85176E-004	0.00000E+000	-2.99883E-001	0.00000E+000	9	...........	1424.89
	65	0.16	-3.00195E-001	-1.80443E-004	0.00000E+000	-2.99883E-001	0.00000E+000	9	...........	1424.89
	66	0.17	-3.00196E-001	-1.78260E-004	0.00000E+000	-2.99883E-001	0.00000E+000	9	...........	1424.89
	67	0.18	-3.00191E-001	-1.73710E-004	0.00000E+000	-2.99883E-001	0.00000E+000	9	...........	1424.89
	68	0.19	-3.00189E-001	-1.71814E-004	0.00000E+000	-2.99883E-001	0.00000E+000	9	...........	1424.89
	69	0.2	-3.00176E-001	-1.67430E-004	0.00000E+000	-2.99883E-001	0.00000E+000	9	...........	1424.89
	70	0.21	-3.00182E-001	-1.65713E-004	0.00000E+000	-2.99883E-001	0.00000E+000	9	...........	1424.89
	71	0.22	-3.00197E-001	-1.61517E-004	0.00000E+000	-2.99883E-001	0.00000E+000	9	...........	1424.89
	72	0.23	-3.00197E-001	-1.60026E-004	0.00000E+000	-2.99883E-001	0.00000E+000	9	...........	1424.89
	73	0.24	-3.00196E-001	-1.55989E-004	0.00000E+000	-2.99883E-001	0.00000E+000	9	...........	1424.89
	74	0.25	-3.00187E-001	-1.54667E-004	0.00000E+000	-2.99883E-001	0.00000E+000	9	...........	1424.89
	75	0.26	-3.00183E-001	-1.50729E-004	0.00000E+000	-2.99883E-001	0.00000E+000	9	...........	1424.89
	76	0.27	-3.00184E-001	-1.49604E-004	0.00000E+000	-2.99883E-001	0.00000E+000	9	...........	1424.89
	77	0.28	-3.00181E-001	-1.45808E-004	0.00000E+000	-2.99883E-001	0.00000E+000	9	...........	1424.89
	78	0.29	-3.00192E-001	-1.44795E-004	0.00000E+000	-2.99883E-001	0.00000E+000	9	...........	1424.89
	79	0.3	-3.00186E-001	-1.41139E-004	0.00000E+000	-2.99883E-001	0.00000E+000	9	...........	1424.89
	80	0.31	-3.00186E-001	-1.40266E-004	0.00000E+000	-2.99883E-001	0.00000E+000	9	...........	1424.89
	81	0.32	-3.00186E-001	-1.36715E-004	0.00000E+000	-2.99883E-001	0.00000E+000	9	...........	1424.89
	82	0.33	-3.00181E-001	-1.36001E-004	0.00000E+000	-2.99883E-001	0.00000E+000	9	...........	1424.89
	83	0.34	-3.00190E-001	-1.32537E-004	0.00000E+000	-2.99883E-001	0.00000E+000	9	...........	1424.89
	84	0.35	-3.00194E-001	-1.31933E-004	0.00000E+000	-2.99883E-001	0.00000E+000	9	...........	1424.89
	85	0.36	-3.00193E-001	-1.28577E-004	0.00000E+000	-2.99883E-001	0.00000E+000	9	...........	1424.89
	86	0.37	-3.00208E-001	-1.28091E-004	0.00000E+000	-2.99883E-001	0.00000E+000	9	...........	1424.89
	87	0.38	-3.00188E-001	-1.24837E-004	0.00000E+000	-2.99883E-001	0.00000E+000	9	...........	1424.89
	88	0.39	-3.00196E-001	-1.24432E-004	0.00000E+000	-2.99883E-001	0.00000E+000	9	...........	1424.89
	89	0.4	-3.00184E-001	-1.21276E-004	0.00000E+000	-2.99883E-001	0.00000E+000	9	...........	1424.89
	90	0.41	-3.00198E-001	-1.20968E-004	0.00000E+000	-2.99883E-001	0.00000E+000	9	...........	1424.89
	91	0.42	-3.00200E-001	-1.17897E-004	0.00000E+000	-2.99883E-001	0.00000E+000	9	...........	1424.89
	92	0.43	-3.00189E-001	-1.17672E-004	0.00000E+000	-2.99883E-001	0.00000E+000	9	...........	1424.89
	93	0.44	-3.00194E-001	-1.14665E-004	0.00000E+000	-2.99883E-001	0.00000E+000	9	...........	1424.89
	94	0.45	-3.00201E-001	-1.14538E-004	0.00000E+000	-2.99883E-001	0.00000E+000	9	...........	1424.89
	95	0.46	-3.00195E-001	-1.11583E-004	0.00000E+000	-2.99883E-001	0.00000E+000	9	...........	1424.89
	96	0.47	-3.00195E-001	-1.11504E-004	0.00000E+000	-2.99883E-001	0.00000E+000	9	...........	1424.89
	97	0.48	-3.00191E-001	-1.08671E-004	0.00000E+000	-2.99883E-001	0.00000E+000	9	...........	1424.89
	98	0.49	-3.00191E-001	-1.08654E-004	0.00000E+000	-2.99883E-001	0.00000E+000	9	...........	1424.89
	99	0.5	-3.00194E-001	-1.05901E-004	0.00000E+000	-2.99883E-001	0.00000E+000	9	...........	1424.89
	100	0.51	-3.00196E-001	-1.05960E-004	0.00000E+000	-2.99883E-001	0.00000E+000	9	...........	1424.89
	101	0.52	-3.00201E-001	-1.03258E-004	0.00000E+000	-2.99883E-001	0.00000E+000	9	...........	1424.89
	102	0.53	-3.00199E-001	-1.03379E-004	0.00000E+000	-2.99883E-001	0.00000E+000	9	...........	1424.89
	103	0.54	-3.00197E-001	-1.00727E-004	0.00000E+000	-2.99883E-001	0.00000E+000	9	...........	1424.89
	104	0.55	-3.00201E-001	-1.00907E-004	0.00000E+000	-2.99883E-001	0.00000E+000	9	...........	1424.89
	105	0.56	-3.00210E-001	-9.83352E-005	0.00000E+000	-2.99883E-001	0.00000E+000	9	...........	1424.89
	106	0.57	-3.00201E-001	-9.85476E-005	0.00000E+000	-2.99883E-001	0.00000E+000	9	...........	1424.89
	107	0.58	-3.00199E-001	-9.60398E-005	0.00000E+000	-2.99883E-001	0.00000E+000	9	...........	1424.89
	108	0.59	-3.00192E-001	-9.63153E-005	0.00000E+000	-2.99883E-001	0.00000E+000	9	...........	1424.89
	109	0.6	-3.00202E-001	-9.38470E-005	0.00000E+000	-2.99883E-001	0.00000E+000	9	...........	1424.89
	110	0.61	-3.00193E-001	-9.41859E-005	0.00000E+000	-2.99883E-001	0.00000E+000	9	...........	1424.89
	111	0.71	-3.00199E-001	-8.47381E-005	0.00000E+000	-2.99883E-001	0.00000E+000	9	...........	1424.89
	112	0.81	-3.00212E-001	-7.71990E-005	0.00000E+000	-2.99883E-001	0.00000E+000	9	...........	1424.45
	113	0.91	-3.00192E-001	-7.10685E-005	0.00000E+000	-2.99883E-001	0.00000E+000	9	...........	1424.45
	114	1.01	-3.00187E-001	-6.60583E-005	0.00000E+000	-2.99883E-001	0.00000E+000	9	...........	1424.45
	115	1.11	-3.00183E-001	-6.19354E-005	0.00000E+000	-2.99883E-001	0.00000E+000	9	...........	1424.45
	116	1.21	-3.00194E-001	-5.85091E-005	0.00000E+000	-2.99883E-001	0.00000E+000	9	...........	1424.45
	117	1.31	-3.00211E-001	-5.57107E-005	0.00000E+000	-2.99883E-001	0.00000E+000	9	...........	1424.45
	118	1.41	-3.00211E-001	-5.33271E-005	0.00000E+000	-2.99883E-001	0.00000E+000	9	...........	1424.45
	119	1.51	-3.00208E-001	-5.12989E-005	0.00000E+000	-2.99883E-001	0.00000E+000	9	...........	1424.45
	120	1.61	-3.00209E-001	-4.95543E-005	0.00000E+000	-2.99883E-001	0.00000E+000	9	...........	1424.45
	121	2.61	-3.00209E-001	-4.05453E-005	0.00000E+000	-2.99883E-001	0.00000E+000	9	...........	1424.54
	122	3.61	-3.00196E-001	-3.64881E-005	0.00000E+000	-2.99883E-001	0.00000E+000	9	...........	1424.89
	123	4.61	-3.00199E-001	-3.39021E-005	0.00000E+000	-2.99883E-001	0.00000E+000	9	...........	1424.89
	124	5.61	-3.00192E-001	-3.23204E-005	0.00000E+000	-2.99883E-001	0.00000E+000	9	...........	1424.89
	125	6.61	-3.00201E-001	-3.15410E-005	0.00000E+000	-2.99883E-001	0.00000E+000	9	...........	1424.89
	126	7.61	-3.00202E-001	-3.05847E-005	0.00000E+000	-2.99883E-001	0.00000E+000	9	...........	1424.98
	127	8.61	-3.00199E-001	-2.95084E-005	0.00000E+000	-2.99883E-001	0.00000E+000	9	...........	1424.89
	128	9.61	-3.00194E-001	-2.83299E-005	0.00000E+000	-2.99883E-001	0.00000E+000	9	...........	1424.89
	129	10.61	-3.00222E-001	-2.73192E-005	0.00000E+000	-2.99883E-001	0.00000E+000	9	...........	1424.89
	130	11.61	-3.00195E-001	-2.69098E-005	0.00000E+000	-2.99883E-001	0.00000E+000	9	...........	1424.89
	131	21.61	-3.00191E-001	-2.56544E-005	0.00000E+000	-2.99883E-001	0.00000E+000	9	...........	1424.89
	132	31.61	-3.00204E-001	-2.33498E-005	0.00000E+000	-2.99883E-001	0.00000E+000	9	...........	1424.98
	133	41.61	-3.00200E-001	-2.28762E-005	0.00000E+000	-2.99883E-001	0.00000E+000	9	...........	1424.98
	134	51.61	-3.00211E-001	-2.27033E-005	0.00000E+000	-2.99883E-001	0.00000E+000	9	...........	1424.98
	135	61.61	-3.00191E-001	-2.12874E-005	0.00000E+000	-2.99883E-001	0.00000E+000	9	...........	1424.98
	136	71.61	-3.00191E-001	-2.23482E-005	0.00000E+000	-2.99883E-001	0.00000E+000	9	...........	1424.98
	137	81.61	-3.00196E-001	-2.18040E-005	0.00000E+000	-2.99883E-001	0.00000E+000	9	...........	1424.89
	138	91.61	-3.00190E-001	-1.97730E-005	0.00000E+000	-2.99883E-001	0.00000E+000	9	...........	1424.98
	139	101.61	-3.00191E-001	-2.16711E-005	0.00000E+000	-2.99883E-001	0.00000E+000	9	...........	1424.98
	140	111.61	-3.00206E-001	-1.94975E-005	0.00000E+000	-2.99883E-001	0.00000E+000	9	...........	1425.07
	141	211.61	-3.00205E-001	-1.96562E-005	0.00000E+000	-2.99883E-001	0.00000E+000	9	...........	1425.07
	142	300	-3.00187E-001	-1.81433E-005	0.00000E+000	-2.99883E-001	0.00000E+000	9	...........	1425.07
	143	300.01	-3.50185E-001	-2.57287E-004	0.00000E+000	-3.49883E-001	0.00000E+000	9	...........	1425.07
	144	300.02	-3.50213E-001	-2.42651E-004	0.00000E+000	-3.49883E-001	0.00000E+000	9	...........	1425.07
	145	300.03	-3.50221E-001	-2.35838E-004	0.00000E+000	-3.49883E-001	0.00000E+000	9	...........	1425.07
	146	300.04	-3.50220E-001	-2.27265E-004	0.00000E+000	-3.49883E-001	0.00000E+000	9	...........	1425.07
	147	300.05	-3.50218E-001	-2.22387E-004	0.00000E+000	-3.49883E-001	0.00000E+000	9	...........	1425.07
	148	300.06	-3.50199E-001	-2.14875E-004	0.00000E+000	-3.49883E-001	0.00000E+000	9	...........	1425.07
	149	300.07	-3.50214E-001	-2.10804E-004	0.00000E+000	-3.49883E-001	0.00000E+000	9	...........	1425.07
	150	300.08	-3.50208E-001	-2.03941E-004	0.00000E+000	-3.49883E-001	0.00000E+000	9	...........	1425.07
	151	300.09	-3.50232E-001	-2.00454E-004	0.00000E+000	-3.49883E-001	0.00000E+000	9	...........	1425.07
	152	300.1	-3.50221E-001	-1.94039E-004	0.00000E+000	-3.49883E-001	0.00000E+000	9	...........	1425.07
	153	300.11	-3.50227E-001	-1.90962E-004	0.00000E+000	-3.49883E-001	0.00000E+000	9	...........	1425.07
	154	300.12	-3.50227E-001	-1.84897E-004	0.00000E+000	-3.49883E-001	0.00000E+000	9	...........	1425.07
	155	300.13	-3.50226E-001	-1.82194E-004	0.00000E+000	-3.49883E-001	0.00000E+000	9	...........	1425.07
	156	300.14	-3.50224E-001	-1.76447E-004	0.00000E+000	-3.49883E-001	0.00000E+000	9	...........	1425.07
	157	300.15	-3.50218E-001	-1.74062E-004	0.00000E+000	-3.49883E-001	0.00000E+000	9	...........	1425.07
	158	300.16	-3.50221E-001	-1.68581E-004	0.00000E+000	-3.49883E-001	0.00000E+000	9	...........	1425.07
	159	300.17	-3.50216E-001	-1.66486E-004	0.00000E+000	-3.49883E-001	0.00000E+000	9	...........	1425.07
	160	300.18	-3.50214E-001	-1.61265E-004	0.00000E+000	-3.49883E-001	0.00000E+000	9	...........	1425.07
	161	300.19	-3.50213E-001	-1.59409E-004	0.00000E+000	-3.49883E-001	0.00000E+000	9	...........	1425.07
	162	300.2	-3.50220E-001	-1.54405E-004	0.00000E+000	-3.49883E-001	0.00000E+000	9	...........	1425.07
	163	300.21	-3.50235E-001	-1.52814E-004	0.00000E+000	-3.49883E-001	0.00000E+000	9	...........	1425.07
	164	300.22	-3.50224E-001	-1.47996E-004	0.00000E+000	-3.49883E-001	0.00000E+000	9	...........	1425.07
	165	300.23	-3.50219E-001	-1.46604E-004	0.00000E+000	-3.49883E-001	0.00000E+000	9	...........	1425.07
	166	300.24	-3.50204E-001	-1.41957E-004	0.00000E+000	-3.49883E-001	0.00000E+000	9	...........	1425.07
	167	300.25	-3.50227E-001	-1.40754E-004	0.00000E+000	-3.49883E-001	0.00000E+000	9	...........	1425.07
	168	300.26	-3.50219E-001	-1.36280E-004	0.00000E+000	-3.49883E-001	0.00000E+000	9	...........	1425.07
	169	300.27	-3.50219E-001	-1.35304E-004	0.00000E+000	-3.49883E-001	0.00000E+000	9	...........	1425.07
	170	300.28	-3.50205E-001	-1.30989E-004	0.00000E+000	-3.49883E-001	0.00000E+000	9	...........	1425.07
	171	300.29	-3.50219E-001	-1.30154E-004	0.00000E+000	-3.49883E-001	0.00000E+000	9	...........	1425.07
	172	300.3	-3.50224E-001	-1.26001E-004	0.00000E+000	-3.49883E-001	0.00000E+000	9	...........	1425.07
	173	300.31	-3.50224E-001	-1.25316E-004	0.00000E+000	-3.49883E-001	0.00000E+000	9	...........	1425.07
	174	300.32	-3.50219E-001	-1.21266E-004	0.00000E+000	-3.49883E-001	0.00000E+000	9	...........	1425.07
	175	300.33	-3.50209E-001	-1.20740E-004	0.00000E+000	-3.49883E-001	0.00000E+000	9	...........	1425.07
	176	300.34	-3.50212E-001	-1.16807E-004	0.00000E+000	-3.49883E-001	0.00000E+000	9	...........	1425.07
	177	300.35	-3.50209E-001	-1.16444E-004	0.00000E+000	-3.49883E-001	0.00000E+000	9	...........	1425.07
	178	300.36	-3.50204E-001	-1.12619E-004	0.00000E+000	-3.49883E-001	0.00000E+000	9	...........	1425.07
	179	300.37	-3.50209E-001	-1.12376E-004	0.00000E+000	-3.49883E-001	0.00000E+000	9	...........	1425.07
	180	300.38	-3.50214E-001	-1.08674E-004	0.00000E+000	-3.49883E-001	0.00000E+000	9	...........	1425.07
	181	300.39	-3.50223E-001	-1.08574E-004	0.00000E+000	-3.49883E-001	0.00000E+000	9	...........	1425.07
	182	300.4	-3.50205E-001	-1.04941E-004	0.00000E+000	-3.49883E-001	0.00000E+000	9	...........	1425.07
	183	300.41	-3.50213E-001	-1.04939E-004	0.00000E+000	-3.49883E-001	0.00000E+000	9	...........	1425.07
	184	300.42	-3.50206E-001	-1.01411E-004	0.00000E+000	-3.49883E-001	0.00000E+000	9	...........	1425.07
	185	300.43	-3.50203E-001	-1.01519E-004	0.00000E+000	-3.49883E-001	0.00000E+000	9	...........	1425.07
	186	300.44	-3.50202E-001	-9.80652E-005	0.00000E+000	-3.49883E-001	0.00000E+000	9	...........	1425.07
	187	300.45	-3.50202E-001	-9.82807E-005	0.00000E+000	-3.49883E-001	0.00000E+000	9	...........	1425.07
	188	300.46	-3.50197E-001	-9.49192E-005	0.00000E+000	-3.49883E-001	0.00000E+000	9	...........	1425.07
	189	300.47	-3.50209E-001	-9.52223E-005	0.00000E+000	-3.49883E-001	0.00000E+000	9	...........	1425.07
	190	300.48	-3.50201E-001	-9.19458E-005	0.00000E+000	-3.49883E-001	0.00000E+000	9	...........	1425.07
	191	300.49	-3.50205E-001	-9.23309E-005	0.00000E+000	-3.49883E-001	0.00000E+000	9	...........	1425.07
	192	300.5	-3.50219E-001	-8.91441E-005	0.00000E+000	-3.49883E-001	0.00000E+000	9	...........	1425.07
	193	300.51	-3.50214E-001	-8.96176E-005	0.00000E+000	-3.49883E-001	0.00000E+000	9	...........	1425.07
	194	300.52	-3.50211E-001	-8.64693E-005	0.00000E+000	-3.49883E-001	0.00000E+000	9	...........	1425.07
	195	300.53	-3.50199E-001	-8.70302E-005	0.00000E+000	-3.49883E-001	0.00000E+000	9	...........	1425.07
	196	300.54	-3.50216E-001	-8.39256E-005	0.00000E+000	-3.49883E-001	0.00000E+000	9	...........	1425.07
	197	300.55	-3.50220E-001	-8.46202E-005	0.00000E+000	-3.49883E-001	0.00000E+000	9	...........	1425.07
	198	300.56	-3.50212E-001	-8.15643E-005	0.00000E+000	-3.49883E-001	0.00000E+000	9	...........	1425.07
	199	300.57	-3.50215E-001	-8.23048E-005	0.00000E+000	-3.49883E-001	0.00000E+000	9	...........	1425.07
	200	300.58	-3.50212E-001	-7.93192E-005	0.00000E+000	-3.49883E-001	0.00000E+000	9	...........	1425.07
	201	300.59	-3.50214E-001	-8.00950E-005	0.00000E+000	-3.49883E-001	0.00000E+000	9	...........	1425.07
	202	300.6	-3.50196E-001	-7.71442E-005	0.00000E+000	-3.49883E-001	0.00000E+000	9	...........	1425.07
	203	300.61	-3.50214E-001	-7.80320E-005	0.00000E+000	-3.49883E-001	0.00000E+000	9	...........	1425.07
	204	300.71	-3.50225E-001	-6.91776E-005	0.00000E+000	-3.49883E-001	0.00000E+000	9	...........	1425.07
	205	300.81	-3.50229E-001	-6.23534E-005	0.00000E+000	-3.49883E-001	0.00000E+000	9	...........	1425.07
	206	300.91	-3.50238E-001	-5.70095E-005	0.00000E+000	-3.49883E-001	0.00000E+000	9	...........	1425.07
	207	301	-3.50219E-001	-5.11251E-005	0.00000E+000	-3.49883E-001	0.00000E+000	9	...........	1425.07
