EXPLAIN
TAG	CHRONOA
TITLE	LABEL	Chronoamperometry Scan	Test Identifier
DATE	LABEL	17/2/2022	Date
TIME	LABEL	13:58:07	Time
NOTES	NOTES	1	Notes...
	
PSTAT	PSTAT	IFC1010-21051	Potentiostat
VPRESTEP	POTEN	-5.00000E-001	F	Pre-step Voltage (V)
TPRESTEP	QUANT	5.00000E-001	Pre-step Delay Time (s)
VSTEP1	POTEN	-6.00000E-001	F	Step 1 Voltage (V)
TSTEP1	QUANT	3.00000E+002	Step 1 Time (s)
VSTEP2	POTEN	-7.00000E-001	F	Step 2 Voltage (V)
TSTEP2	QUANT	1.00000E+000	Step 2 Time (s)
SAMPLETIME	QUANT	1.00000E-001	Sample Period (s)
DECIMATE	TOGGLE	T	Decimate
ILIMIT	QUANT	1.00000E+000	Limit I (mA/cm^2)
IMODE	SELECTOR	1	I/E Range Mode
IRANGE	QUANT	3.00000E-001	Max Current (mA)
EQDELAY	QUANT	5.00000E+000	Equil. Time (s)
SAMPLINGMODE	SELECTOR	1	Sampling Mode
AREA	QUANT	1.00000E+000	Sample Area (cm^2)
IRCOMP	SELECTOR	0	IRComp
PFCOR	QUANT	5.00000E+001	PF Corr. (ohm)
SEQUENCER	TOGGLE	TRUE	Run as Sequence
PSTATMODEL	IQUANT	64	Pstat Model
PSTATSECTION	LABEL	IFC1010-21051	Pstat Section
PSTATSERIALNO	LABEL	21051	Pstat Serial Number
CTRLMODE	IQUANT	1	Control Mode
ELECTROMETER	IQUANT	0	RE=0 or CS=1
IESTAB	IQUANT	0	I/E Stability
CASPEED	IQUANT	4	Control Amp Speed
CONVENTION	IQUANT	1	Current Convention
ICHRANGE	IQUANT	2	Ich Range
ICHRANGEMODE	TOGGLE	T	Ich Auto Range
ICHOFFSETENABLE	TOGGLE	F	Ich Offset Enable
ICHOFFSET	QUANT	0	Ich Offset (V)
ICHFILTER	IQUANT	3	Ich Filter
VCHRANGE	IQUANT	3	Vch Range
VCHRANGEMODE	TOGGLE	T	Vch Auto Range
VCHOFFSETENABLE	TOGGLE	F	Vch Offset Enable
VCHOFFSET	QUANT	0	Vch Offset (V)
VCHFILTER	IQUANT	3	Vch Filter
IERANGELOWERLIMIT	IQUANT	4	I/E Range Lower Limit
IERANGEMODE	TOGGLE	F	I/E AutoRange
IERANGE	IQUANT	9	I/E Range
ACHSELECT	IQUANT	0	Ach Select
ACHRANGE	IQUANT	2	Ach Range
ACHOFFSETENABLE	TOGGLE	F	Ach Offset Enable
ACHOFFSET	QUANT	0	Ach Offset (V)
ACHFILTER	IQUANT	1	Ach Filter
SENSECABLEID	IQUANT	14	Sense Cable ID
PWRCABLEID	IQUANT	14	Power Cable ID
DCCALDATE	LABEL	1/24/2022	DC Calibration Date
ACCALDATE	LABEL	4/2/2018	AC Calibration Date
FRAMEWORKVERSION	QUANT	7.06	Framework Version
INSTRUMENTVERSION	LABEL	4.30	Instrument Version
CURVE	TABLE	98
	Pt	T	Vf	Im	Vu	Sig	Ach	IERange	Over	Temp
	#	s	V vs. Ref.	A	V	V	V	#	bits	deg C
	0	-0.4	-5.01516E-001	-1.38219E-004	0.00000E+000	-5.00017E-001	0.00000E+000	9	...........	1426.13
	1	-0.3	-5.00987E-001	-1.37936E-004	0.00000E+000	-5.00017E-001	0.00000E+000	9	...........	1426.13
	2	-0.2	-5.00981E-001	-1.37551E-004	0.00000E+000	-5.00017E-001	0.00000E+000	9	...........	1426.13
	3	-0.1	-5.00970E-001	-1.37175E-004	0.00000E+000	-5.00017E-001	0.00000E+000	9	...........	1426.13
	4	0	-5.00977E-001	-1.36830E-004	0.00000E+000	-5.00017E-001	0.00000E+000	9	...........	1426.13
	5	0.1	-6.00988E-001	-5.29345E-004	0.00000E+000	-6.00016E-001	0.00000E+000	9	...........	1426.13
	6	0.2	-6.00991E-001	-4.49419E-004	0.00000E+000	-6.00016E-001	0.00000E+000	9	...........	1426.13
	7	0.3	-6.00982E-001	-4.04410E-004	0.00000E+000	-6.00016E-001	0.00000E+000	9	...........	1426.13
	8	0.4	-6.00985E-001	-3.74673E-004	0.00000E+000	-6.00016E-001	0.00000E+000	9	...........	1426.13
	9	0.5	-6.00997E-001	-3.53139E-004	0.00000E+000	-6.00016E-001	0.00000E+000	9	...........	1426.13
	10	0.6	-6.00985E-001	-3.36647E-004	0.00000E+000	-6.00016E-001	0.00000E+000	9	...........	1426.13
	11	0.7	-6.00985E-001	-3.23529E-004	0.00000E+000	-6.00016E-001	0.00000E+000	9	...........	1426.13
	12	0.8	-6.00999E-001	-3.12668E-004	0.00000E+000	-6.00016E-001	0.00000E+000	9	...........	1426.13
	13	0.9	-6.00998E-001	-3.03358E-004	0.00000E+000	-6.00016E-001	0.00000E+000	9	...........	1426.13
	14	1	-6.00992E-001	-2.95406E-004	0.00000E+000	-6.00016E-001	0.00000E+000	9	...........	1426.13
	15	1.1	-6.00984E-001	-2.88360E-004	0.00000E+000	-6.00016E-001	0.00000E+000	9	...........	1426.13
	16	1.2	-6.00974E-001	-2.82020E-004	0.00000E+000	-6.00016E-001	0.00000E+000	9	...........	1426.13
	17	1.3	-6.00981E-001	-2.76365E-004	0.00000E+000	-6.00016E-001	0.00000E+000	9	...........	1426.13
	18	1.4	-6.00991E-001	-2.71218E-004	0.00000E+000	-6.00016E-001	0.00000E+000	9	...........	1426.13
	19	1.5	-6.00988E-001	-2.66468E-004	0.00000E+000	-6.00016E-001	0.00000E+000	9	...........	1426.13
	20	1.6	-6.00990E-001	-2.62138E-004	0.00000E+000	-6.00016E-001	0.00000E+000	9	...........	1426.13
	21	1.7	-6.00981E-001	-2.58023E-004	0.00000E+000	-6.00016E-001	0.00000E+000	9	...........	1426.13
	22	1.8	-6.00986E-001	-2.54357E-004	0.00000E+000	-6.00016E-001	0.00000E+000	9	...........	1426.13
	23	1.9	-6.00982E-001	-2.50829E-004	0.00000E+000	-6.00016E-001	0.00000E+000	9	...........	1426.13
	24	2	-6.00983E-001	-2.47511E-004	0.00000E+000	-6.00016E-001	0.00000E+000	9	...........	1426.13
	25	2.1	-6.00988E-001	-2.44469E-004	0.00000E+000	-6.00016E-001	0.00000E+000	9	...........	1426.13
	26	2.2	-6.00991E-001	-2.41558E-004	0.00000E+000	-6.00016E-001	0.00000E+000	9	...........	1426.13
	27	2.3	-6.00991E-001	-2.38768E-004	0.00000E+000	-6.00016E-001	0.00000E+000	9	...........	1426.13
	28	2.4	-6.00986E-001	-2.36052E-004	0.00000E+000	-6.00016E-001	0.00000E+000	9	...........	1426.13
	29	2.5	-6.00998E-001	-2.33655E-004	0.00000E+000	-6.00016E-001	0.00000E+000	9	...........	1426.13
	30	2.6	-6.00993E-001	-2.31265E-004	0.00000E+000	-6.00016E-001	0.00000E+000	9	...........	1426.13
	31	2.7	-6.00996E-001	-2.28991E-004	0.00000E+000	-6.00016E-001	0.00000E+000	9	...........	1426.13
	32	2.8	-6.00997E-001	-2.26838E-004	0.00000E+000	-6.00016E-001	0.00000E+000	9	...........	1426.13
	33	2.9	-6.00980E-001	-2.24745E-004	0.00000E+000	-6.00016E-001	0.00000E+000	9	...........	1426.13
	34	3	-6.00988E-001	-2.22688E-004	0.00000E+000	-6.00016E-001	0.00000E+000	9	...........	1426.13
	35	3.1	-6.00987E-001	-2.20838E-004	0.00000E+000	-6.00016E-001	0.00000E+000	9	...........	1426.13
	36	3.2	-6.00990E-001	-2.19037E-004	0.00000E+000	-6.00016E-001	0.00000E+000	9	...........	1426.13
	37	3.3	-6.00991E-001	-2.17261E-004	0.00000E+000	-6.00016E-001	0.00000E+000	9	...........	1426.13
	38	3.4	-6.00997E-001	-2.15589E-004	0.00000E+000	-6.00016E-001	0.00000E+000	9	...........	1426.13
	39	3.5	-6.00992E-001	-2.13863E-004	0.00000E+000	-6.00016E-001	0.00000E+000	9	...........	1426.13
	40	3.6	-6.01005E-001	-2.12328E-004	0.00000E+000	-6.00016E-001	0.00000E+000	9	...........	1426.13
	41	3.7	-6.01004E-001	-2.10894E-004	0.00000E+000	-6.00016E-001	0.00000E+000	9	...........	1426.13
	42	3.8	-6.00992E-001	-2.09336E-004	0.00000E+000	-6.00016E-001	0.00000E+000	9	...........	1425.95
	43	3.9	-6.00995E-001	-2.07945E-004	0.00000E+000	-6.00016E-001	0.00000E+000	9	...........	1425.95
	44	4	-6.00990E-001	-2.06521E-004	0.00000E+000	-6.00016E-001	0.00000E+000	9	...........	1425.95
	45	4.1	-6.00989E-001	-2.05155E-004	0.00000E+000	-6.00016E-001	0.00000E+000	9	...........	1425.95
	46	4.2	-6.00994E-001	-2.03825E-004	0.00000E+000	-6.00016E-001	0.00000E+000	9	...........	1425.95
	47	4.3	-6.00999E-001	-2.02600E-004	0.00000E+000	-6.00016E-001	0.00000E+000	9	...........	1425.95
	48	4.4	-6.00985E-001	-2.01300E-004	0.00000E+000	-6.00016E-001	0.00000E+000	9	...........	1425.95
	49	4.5	-6.01000E-001	-2.00157E-004	0.00000E+000	-6.00016E-001	0.00000E+000	9	...........	1425.95
	50	4.6	-6.00989E-001	-1.99004E-004	0.00000E+000	-6.00016E-001	0.00000E+000	9	...........	1425.95
	51	4.7	-6.00993E-001	-1.97892E-004	0.00000E+000	-6.00016E-001	0.00000E+000	9	...........	1425.95
	52	4.8	-6.00991E-001	-1.96765E-004	0.00000E+000	-6.00016E-001	0.00000E+000	9	...........	1426.04
	53	4.9	-6.00995E-001	-1.95717E-004	0.00000E+000	-6.00016E-001	0.00000E+000	9	...........	1426.04
	54	5	-6.01000E-001	-1.94635E-004	0.00000E+000	-6.00016E-001	0.00000E+000	9	...........	1426.04
	55	5.1	-6.00993E-001	-1.93617E-004	0.00000E+000	-6.00016E-001	0.00000E+000	9	...........	1426.04
	56	5.2	-6.00984E-001	-1.92625E-004	0.00000E+000	-6.00016E-001	0.00000E+000	9	...........	1426.04
	57	5.3	-6.01008E-001	-1.91623E-004	0.00000E+000	-6.00016E-001	0.00000E+000	9	...........	1426.04
	58	5.4	-6.01001E-001	-1.90738E-004	0.00000E+000	-6.00016E-001	0.00000E+000	9	...........	1426.04
	59	5.5	-6.00990E-001	-1.89775E-004	0.00000E+000	-6.00016E-001	0.00000E+000	9	...........	1426.04
	60	5.6	-6.00990E-001	-1.88895E-004	0.00000E+000	-6.00016E-001	0.00000E+000	9	...........	1426.04
	61	5.7	-6.00997E-001	-1.87992E-004	0.00000E+000	-6.00016E-001	0.00000E+000	9	...........	1426.04
	62	5.8	-6.00977E-001	-1.87108E-004	0.00000E+000	-6.00016E-001	0.00000E+000	9	...........	1425.78
	63	5.9	-6.00988E-001	-1.86292E-004	0.00000E+000	-6.00016E-001	0.00000E+000	9	...........	1425.78
	64	6	-6.00989E-001	-1.85524E-004	0.00000E+000	-6.00016E-001	0.00000E+000	9	...........	1425.78
	65	6.1	-6.00989E-001	-1.84717E-004	0.00000E+000	-6.00016E-001	0.00000E+000	9	...........	1425.78
	66	7.1	-6.00980E-001	-1.77615E-004	0.00000E+000	-6.00016E-001	0.00000E+000	9	...........	1426.04
	67	8.1	-6.00985E-001	-1.71665E-004	0.00000E+000	-6.00016E-001	0.00000E+000	9	...........	1426.13
	68	9.1	-6.01001E-001	-1.66564E-004	0.00000E+000	-6.00016E-001	0.00000E+000	9	...........	1426.13
	69	10.1	-6.00990E-001	-1.62283E-004	0.00000E+000	-6.00016E-001	0.00000E+000	9	...........	1426.04
	70	11.1	-6.00998E-001	-1.58706E-004	0.00000E+000	-6.00016E-001	0.00000E+000	9	...........	1426.13
	71	12.1	-6.00988E-001	-1.55554E-004	0.00000E+000	-6.00016E-001	0.00000E+000	9	...........	1426.13
	72	13.1	-6.00987E-001	-1.52722E-004	0.00000E+000	-6.00016E-001	0.00000E+000	9	...........	1426.13
	73	14.1	-6.00981E-001	-1.50218E-004	0.00000E+000	-6.00016E-001	0.00000E+000	9	...........	1426.13
	74	15.1	-6.00995E-001	-1.47987E-004	0.00000E+000	-6.00016E-001	0.00000E+000	9	...........	1426.13
	75	16.1	-6.00985E-001	-1.46049E-004	0.00000E+000	-6.00016E-001	0.00000E+000	9	...........	1426.13
	76	26.1	-6.00991E-001	-1.32400E-004	0.00000E+000	-6.00016E-001	0.00000E+000	9	...........	1426.13
	77	36.1	-6.00978E-001	-1.25053E-004	0.00000E+000	-6.00016E-001	0.00000E+000	9	...........	1426.13
	78	46.1	-6.00987E-001	-1.20496E-004	0.00000E+000	-6.00016E-001	0.00000E+000	9	...........	1426.04
	79	56.1	-6.00994E-001	-1.16830E-004	0.00000E+000	-6.00016E-001	0.00000E+000	9	...........	1426.13
	80	66.1	-6.00988E-001	-1.14744E-004	0.00000E+000	-6.00016E-001	0.00000E+000	9	...........	1426.13
	81	76.1	-6.00993E-001	-1.12574E-004	0.00000E+000	-6.00016E-001	0.00000E+000	9	...........	1426.13
	82	86.1	-6.00986E-001	-1.11108E-004	0.00000E+000	-6.00016E-001	0.00000E+000	9	...........	1426.13
	83	96.1	-6.00994E-001	-1.10228E-004	0.00000E+000	-6.00016E-001	0.00000E+000	9	...........	1426.13
	84	106.1	-6.00979E-001	-1.09259E-004	0.00000E+000	-6.00016E-001	0.00000E+000	9	...........	1426.13
	85	116.1	-6.00997E-001	-1.08437E-004	0.00000E+000	-6.00016E-001	0.00000E+000	9	...........	1426.13
	86	216.1	-6.00998E-001	-1.03569E-004	0.00000E+000	-6.00016E-001	0.00000E+000	9	...........	1426.13
	87	300	-6.01003E-001	-1.01235E-004	0.00000E+000	-6.00016E-001	0.00000E+000	9	...........	1426.04
	88	300.1	-7.00996E-001	-4.72760E-004	0.00000E+000	-7.00016E-001	0.00000E+000	9	...........	1426.04
	89	300.2	-7.00993E-001	-3.68903E-004	0.00000E+000	-7.00016E-001	0.00000E+000	9	...........	1426.04
	90	300.3	-7.00987E-001	-3.12825E-004	0.00000E+000	-7.00016E-001	0.00000E+000	9	...........	1426.04
	91	300.4	-7.00991E-001	-2.77130E-004	0.00000E+000	-7.00016E-001	0.00000E+000	9	...........	1426.04
	92	300.5	-7.00981E-001	-2.52182E-004	0.00000E+000	-7.00016E-001	0.00000E+000	9	...........	1426.04
	93	300.6	-7.00997E-001	-2.33836E-004	0.00000E+000	-7.00016E-001	0.00000E+000	9	...........	1426.04
	94	300.7	-7.00994E-001	-2.19706E-004	0.00000E+000	-7.00016E-001	0.00000E+000	9	...........	1426.04
	95	300.8	-7.01005E-001	-2.08599E-004	0.00000E+000	-7.00016E-001	0.00000E+000	9	...........	1426.04
	96	300.9	-7.00998E-001	-1.99649E-004	0.00000E+000	-7.00016E-001	0.00000E+000	9	...........	1426.04
	97	301	-7.00991E-001	-1.92298E-004	0.00000E+000	-7.00016E-001	0.00000E+000	9	...........	1426.04
