EXPLAIN
TAG	CHRONOA
TITLE	LABEL	Chronoamperometry Scan	Test Identifier
DATE	LABEL	17/2/2022	Date
TIME	LABEL	13:07:33	Time
NOTES	NOTES	1	Notes...
	
PSTAT	PSTAT	IFC1010-21051	Potentiostat
VPRESTEP	POTEN	-5.00000E-001	F	Pre-step Voltage (V)
TPRESTEP	QUANT	5.00000E-001	Pre-step Delay Time (s)
VSTEP1	POTEN	-6.00000E-001	F	Step 1 Voltage (V)
TSTEP1	QUANT	3.00000E+002	Step 1 Time (s)
VSTEP2	POTEN	-7.00000E-001	F	Step 2 Voltage (V)
TSTEP2	QUANT	1.00000E+000	Step 2 Time (s)
SAMPLETIME	QUANT	1.00000E-001	Sample Period (s)
DECIMATE	TOGGLE	T	Decimate
ILIMIT	QUANT	1.00000E+000	Limit I (mA/cm^2)
IMODE	SELECTOR	1	I/E Range Mode
IRANGE	QUANT	3.00000E-001	Max Current (mA)
EQDELAY	QUANT	5.00000E+000	Equil. Time (s)
SAMPLINGMODE	SELECTOR	1	Sampling Mode
AREA	QUANT	1.00000E+000	Sample Area (cm^2)
IRCOMP	SELECTOR	0	IRComp
PFCOR	QUANT	5.00000E+001	PF Corr. (ohm)
SEQUENCER	TOGGLE	TRUE	Run as Sequence
PSTATMODEL	IQUANT	64	Pstat Model
PSTATSECTION	LABEL	IFC1010-21051	Pstat Section
PSTATSERIALNO	LABEL	21051	Pstat Serial Number
CTRLMODE	IQUANT	1	Control Mode
ELECTROMETER	IQUANT	0	RE=0 or CS=1
IESTAB	IQUANT	0	I/E Stability
CASPEED	IQUANT	4	Control Amp Speed
CONVENTION	IQUANT	1	Current Convention
ICHRANGE	IQUANT	2	Ich Range
ICHRANGEMODE	TOGGLE	T	Ich Auto Range
ICHOFFSETENABLE	TOGGLE	F	Ich Offset Enable
ICHOFFSET	QUANT	0	Ich Offset (V)
ICHFILTER	IQUANT	3	Ich Filter
VCHRANGE	IQUANT	3	Vch Range
VCHRANGEMODE	TOGGLE	T	Vch Auto Range
VCHOFFSETENABLE	TOGGLE	F	Vch Offset Enable
VCHOFFSET	QUANT	0	Vch Offset (V)
VCHFILTER	IQUANT	3	Vch Filter
IERANGELOWERLIMIT	IQUANT	4	I/E Range Lower Limit
IERANGEMODE	TOGGLE	F	I/E AutoRange
IERANGE	IQUANT	9	I/E Range
ACHSELECT	IQUANT	0	Ach Select
ACHRANGE	IQUANT	2	Ach Range
ACHOFFSETENABLE	TOGGLE	F	Ach Offset Enable
ACHOFFSET	QUANT	0	Ach Offset (V)
ACHFILTER	IQUANT	1	Ach Filter
SENSECABLEID	IQUANT	14	Sense Cable ID
PWRCABLEID	IQUANT	14	Power Cable ID
DCCALDATE	LABEL	1/24/2022	DC Calibration Date
ACCALDATE	LABEL	4/2/2018	AC Calibration Date
FRAMEWORKVERSION	QUANT	7.06	Framework Version
INSTRUMENTVERSION	LABEL	4.30	Instrument Version
CURVE	TABLE	98
	Pt	T	Vf	Im	Vu	Sig	Ach	IERange	Over	Temp
	#	s	V vs. Ref.	A	V	V	V	#	bits	deg C
	0	-0.4	-5.01468E-001	-1.36278E-004	0.00000E+000	-5.00017E-001	0.00000E+000	9	...........	1426.13
	1	-0.3	-5.00974E-001	-1.35962E-004	0.00000E+000	-5.00017E-001	0.00000E+000	9	...........	1426.13
	2	-0.2	-5.00972E-001	-1.35626E-004	0.00000E+000	-5.00017E-001	0.00000E+000	9	...........	1426.13
	3	-0.1	-5.00971E-001	-1.35249E-004	0.00000E+000	-5.00017E-001	0.00000E+000	9	...........	1426.13
	4	0	-5.00965E-001	-1.34869E-004	0.00000E+000	-5.00017E-001	0.00000E+000	9	...........	1426.13
	5	0.1	-6.00975E-001	-5.34102E-004	0.00000E+000	-6.00016E-001	0.00000E+000	9	...........	1426.13
	6	0.2	-6.00979E-001	-4.56565E-004	0.00000E+000	-6.00016E-001	0.00000E+000	9	...........	1426.13
	7	0.3	-6.00991E-001	-4.11185E-004	0.00000E+000	-6.00016E-001	0.00000E+000	9	...........	1426.13
	8	0.4	-6.00993E-001	-3.80489E-004	0.00000E+000	-6.00016E-001	0.00000E+000	9	...........	1426.13
	9	0.5	-6.00999E-001	-3.58065E-004	0.00000E+000	-6.00016E-001	0.00000E+000	9	...........	1425.69
	10	0.6	-6.00988E-001	-3.40733E-004	0.00000E+000	-6.00016E-001	0.00000E+000	9	...........	1425.69
	11	0.7	-6.00983E-001	-3.26907E-004	0.00000E+000	-6.00016E-001	0.00000E+000	9	...........	1425.69
	12	0.8	-6.00985E-001	-3.15428E-004	0.00000E+000	-6.00016E-001	0.00000E+000	9	...........	1425.69
	13	0.9	-6.00979E-001	-3.05697E-004	0.00000E+000	-6.00016E-001	0.00000E+000	9	...........	1425.69
	14	1	-6.00981E-001	-2.97222E-004	0.00000E+000	-6.00016E-001	0.00000E+000	9	...........	1425.69
	15	1.1	-6.00986E-001	-2.89888E-004	0.00000E+000	-6.00016E-001	0.00000E+000	9	...........	1425.69
	16	1.2	-6.00988E-001	-2.83256E-004	0.00000E+000	-6.00016E-001	0.00000E+000	9	...........	1425.69
	17	1.3	-6.00995E-001	-2.77397E-004	0.00000E+000	-6.00016E-001	0.00000E+000	9	...........	1425.69
	18	1.4	-6.00996E-001	-2.71971E-004	0.00000E+000	-6.00016E-001	0.00000E+000	9	...........	1425.69
	19	1.5	-6.00991E-001	-2.67078E-004	0.00000E+000	-6.00016E-001	0.00000E+000	9	...........	1426.04
	20	1.6	-6.00979E-001	-2.62501E-004	0.00000E+000	-6.00016E-001	0.00000E+000	9	...........	1426.04
	21	1.7	-6.00985E-001	-2.58368E-004	0.00000E+000	-6.00016E-001	0.00000E+000	9	...........	1426.04
	22	1.8	-6.00980E-001	-2.54440E-004	0.00000E+000	-6.00016E-001	0.00000E+000	9	...........	1426.04
	23	1.9	-6.00991E-001	-2.50888E-004	0.00000E+000	-6.00016E-001	0.00000E+000	9	...........	1426.04
	24	2	-6.00979E-001	-2.47381E-004	0.00000E+000	-6.00016E-001	0.00000E+000	9	...........	1426.04
	25	2.1	-6.00984E-001	-2.44228E-004	0.00000E+000	-6.00016E-001	0.00000E+000	9	...........	1426.04
	26	2.2	-6.00969E-001	-2.41161E-004	0.00000E+000	-6.00016E-001	0.00000E+000	9	...........	1426.04
	27	2.3	-6.00992E-001	-2.38384E-004	0.00000E+000	-6.00016E-001	0.00000E+000	9	...........	1426.04
	28	2.4	-6.01004E-001	-2.35656E-004	0.00000E+000	-6.00016E-001	0.00000E+000	9	...........	1426.04
	29	2.5	-6.01005E-001	-2.33104E-004	0.00000E+000	-6.00016E-001	0.00000E+000	9	...........	1426.04
	30	2.6	-6.00990E-001	-2.30617E-004	0.00000E+000	-6.00016E-001	0.00000E+000	9	...........	1426.04
	31	2.7	-6.00991E-001	-2.28289E-004	0.00000E+000	-6.00016E-001	0.00000E+000	9	...........	1426.04
	32	2.8	-6.00991E-001	-2.26068E-004	0.00000E+000	-6.00016E-001	0.00000E+000	9	...........	1426.04
	33	2.9	-6.00985E-001	-2.23871E-004	0.00000E+000	-6.00016E-001	0.00000E+000	9	...........	1426.04
	34	3	-6.00975E-001	-2.21860E-004	0.00000E+000	-6.00016E-001	0.00000E+000	9	...........	1426.04
	35	3.1	-6.00998E-001	-2.19940E-004	0.00000E+000	-6.00016E-001	0.00000E+000	9	...........	1426.04
	36	3.2	-6.00994E-001	-2.18078E-004	0.00000E+000	-6.00016E-001	0.00000E+000	9	...........	1426.04
	37	3.3	-6.00989E-001	-2.16186E-004	0.00000E+000	-6.00016E-001	0.00000E+000	9	...........	1426.04
	38	3.4	-6.00978E-001	-2.14481E-004	0.00000E+000	-6.00016E-001	0.00000E+000	9	...........	1426.04
	39	3.5	-6.00978E-001	-2.12802E-004	0.00000E+000	-6.00016E-001	0.00000E+000	9	...........	1425.60
	40	3.6	-6.00989E-001	-2.11236E-004	0.00000E+000	-6.00016E-001	0.00000E+000	9	...........	1425.60
	41	3.7	-6.00983E-001	-2.09631E-004	0.00000E+000	-6.00016E-001	0.00000E+000	9	...........	1425.60
	42	3.8	-6.00987E-001	-2.08145E-004	0.00000E+000	-6.00016E-001	0.00000E+000	9	...........	1425.60
	43	3.9	-6.00985E-001	-2.06696E-004	0.00000E+000	-6.00016E-001	0.00000E+000	9	...........	1425.60
	44	4	-6.00988E-001	-2.05236E-004	0.00000E+000	-6.00016E-001	0.00000E+000	9	...........	1425.60
	45	4.1	-6.00989E-001	-2.03888E-004	0.00000E+000	-6.00016E-001	0.00000E+000	9	...........	1425.60
	46	4.2	-6.00983E-001	-2.02609E-004	0.00000E+000	-6.00016E-001	0.00000E+000	9	...........	1425.60
	47	4.3	-6.00989E-001	-2.01343E-004	0.00000E+000	-6.00016E-001	0.00000E+000	9	...........	1425.60
	48	4.4	-6.00994E-001	-2.00100E-004	0.00000E+000	-6.00016E-001	0.00000E+000	9	...........	1425.60
	49	4.5	-6.00991E-001	-1.98868E-004	0.00000E+000	-6.00016E-001	0.00000E+000	9	...........	1426.04
	50	4.6	-6.00994E-001	-1.97688E-004	0.00000E+000	-6.00016E-001	0.00000E+000	9	...........	1426.04
	51	4.7	-6.00990E-001	-1.96585E-004	0.00000E+000	-6.00016E-001	0.00000E+000	9	...........	1426.04
	52	4.8	-6.00979E-001	-1.95494E-004	0.00000E+000	-6.00016E-001	0.00000E+000	9	...........	1426.04
	53	4.9	-6.00984E-001	-1.94400E-004	0.00000E+000	-6.00016E-001	0.00000E+000	9	...........	1426.04
	54	5	-6.00991E-001	-1.93335E-004	0.00000E+000	-6.00016E-001	0.00000E+000	9	...........	1426.04
	55	5.1	-6.00999E-001	-1.92331E-004	0.00000E+000	-6.00016E-001	0.00000E+000	9	...........	1426.04
	56	5.2	-6.00996E-001	-1.91347E-004	0.00000E+000	-6.00016E-001	0.00000E+000	9	...........	1426.04
	57	5.3	-6.00989E-001	-1.90383E-004	0.00000E+000	-6.00016E-001	0.00000E+000	9	...........	1426.04
	58	5.4	-6.00978E-001	-1.89361E-004	0.00000E+000	-6.00016E-001	0.00000E+000	9	...........	1426.04
	59	5.5	-6.00986E-001	-1.88537E-004	0.00000E+000	-6.00016E-001	0.00000E+000	9	...........	1426.04
	60	5.6	-6.00996E-001	-1.87627E-004	0.00000E+000	-6.00016E-001	0.00000E+000	9	...........	1426.04
	61	5.7	-6.00989E-001	-1.86754E-004	0.00000E+000	-6.00016E-001	0.00000E+000	9	...........	1426.04
	62	5.8	-6.00983E-001	-1.85908E-004	0.00000E+000	-6.00016E-001	0.00000E+000	9	...........	1426.04
	63	5.9	-6.00984E-001	-1.85074E-004	0.00000E+000	-6.00016E-001	0.00000E+000	9	...........	1426.04
	64	6	-6.00999E-001	-1.84224E-004	0.00000E+000	-6.00016E-001	0.00000E+000	9	...........	1426.04
	65	6.1	-6.00991E-001	-1.83466E-004	0.00000E+000	-6.00016E-001	0.00000E+000	9	...........	1426.04
	66	7.1	-6.00999E-001	-1.76347E-004	0.00000E+000	-6.00016E-001	0.00000E+000	9	...........	1426.04
	67	8.1	-6.00996E-001	-1.70498E-004	0.00000E+000	-6.00016E-001	0.00000E+000	9	...........	1426.04
	68	9.1	-6.00988E-001	-1.65533E-004	0.00000E+000	-6.00016E-001	0.00000E+000	9	...........	1426.04
	69	10.1	-6.00987E-001	-1.61380E-004	0.00000E+000	-6.00016E-001	0.00000E+000	9	...........	1426.04
	70	11.1	-6.00995E-001	-1.57689E-004	0.00000E+000	-6.00016E-001	0.00000E+000	9	...........	1426.04
	71	12.1	-6.00986E-001	-1.54457E-004	0.00000E+000	-6.00016E-001	0.00000E+000	9	...........	1426.04
	72	13.1	-6.00985E-001	-1.51600E-004	0.00000E+000	-6.00016E-001	0.00000E+000	9	...........	1426.04
	73	14.1	-6.00983E-001	-1.49010E-004	0.00000E+000	-6.00016E-001	0.00000E+000	9	...........	1426.04
	74	15.1	-6.00989E-001	-1.46782E-004	0.00000E+000	-6.00016E-001	0.00000E+000	9	...........	1426.04
	75	16.1	-6.00986E-001	-1.44719E-004	0.00000E+000	-6.00016E-001	0.00000E+000	9	...........	1426.04
	76	26.1	-6.00983E-001	-1.30686E-004	0.00000E+000	-6.00016E-001	0.00000E+000	9	...........	1426.13
	77	36.1	-6.01009E-001	-1.23732E-004	0.00000E+000	-6.00016E-001	0.00000E+000	9	...........	1426.13
	78	46.1	-6.01002E-001	-1.18456E-004	0.00000E+000	-6.00016E-001	0.00000E+000	9	...........	1426.04
	79	56.1	-6.00992E-001	-1.15128E-004	0.00000E+000	-6.00016E-001	0.00000E+000	9	...........	1425.95
	80	66.1	-6.00992E-001	-1.12987E-004	0.00000E+000	-6.00016E-001	0.00000E+000	9	...........	1426.04
	81	76.1	-6.00977E-001	-1.10741E-004	0.00000E+000	-6.00016E-001	0.00000E+000	9	...........	1426.04
	82	86.1	-6.00977E-001	-1.09382E-004	0.00000E+000	-6.00016E-001	0.00000E+000	9	...........	1426.04
	83	96.1	-6.00984E-001	-1.08517E-004	0.00000E+000	-6.00016E-001	0.00000E+000	9	...........	1426.13
	84	106.1	-6.00985E-001	-1.07331E-004	0.00000E+000	-6.00016E-001	0.00000E+000	9	...........	1426.04
	85	116.1	-6.00994E-001	-1.06439E-004	0.00000E+000	-6.00016E-001	0.00000E+000	9	...........	1426.13
	86	216.1	-6.00989E-001	-1.01703E-004	0.00000E+000	-6.00016E-001	0.00000E+000	9	...........	1426.04
	87	300	-6.00990E-001	-9.99579E-005	0.00000E+000	-6.00016E-001	0.00000E+000	9	...........	1426.04
	88	300.1	-7.00991E-001	-4.73929E-004	0.00000E+000	-7.00016E-001	0.00000E+000	9	...........	1426.04
	89	300.2	-7.00985E-001	-3.72080E-004	0.00000E+000	-7.00016E-001	0.00000E+000	9	...........	1426.04
	90	300.3	-7.00996E-001	-3.14916E-004	0.00000E+000	-7.00016E-001	0.00000E+000	9	...........	1426.04
	91	300.4	-7.00990E-001	-2.77904E-004	0.00000E+000	-7.00016E-001	0.00000E+000	9	...........	1426.04
	92	300.5	-7.00989E-001	-2.51974E-004	0.00000E+000	-7.00016E-001	0.00000E+000	9	...........	1426.04
	93	300.6	-7.00996E-001	-2.32827E-004	0.00000E+000	-7.00016E-001	0.00000E+000	9	...........	1426.04
	94	300.7	-7.00989E-001	-2.18136E-004	0.00000E+000	-7.00016E-001	0.00000E+000	9	...........	1426.04
	95	300.8	-7.00983E-001	-2.06624E-004	0.00000E+000	-7.00016E-001	0.00000E+000	9	...........	1426.04
	96	300.9	-7.00987E-001	-1.97504E-004	0.00000E+000	-7.00016E-001	0.00000E+000	9	...........	1426.04
	97	301	-7.00993E-001	-1.90023E-004	0.00000E+000	-7.00016E-001	0.00000E+000	9	...........	1426.04
