EXPLAIN
TAG	CHRONOA
TITLE	LABEL	Chronoamperometry Scan	Test Identifier
DATE	LABEL	17/2/2022	Date
TIME	LABEL	17:57:36	Time
NOTES	NOTES	1	Notes...
	
PSTAT	PSTAT	IFC1010-21051	Potentiostat
VPRESTEP	POTEN	1.00000E-001	F	Pre-step Voltage (V)
TPRESTEP	QUANT	5.00000E-001	Pre-step Delay Time (s)
VSTEP1	POTEN	2.00000E-001	F	Step 1 Voltage (V)
TSTEP1	QUANT	3.00000E+002	Step 1 Time (s)
VSTEP2	POTEN	3.00000E-001	F	Step 2 Voltage (V)
TSTEP2	QUANT	1.00000E+000	Step 2 Time (s)
SAMPLETIME	QUANT	1.00000E-001	Sample Period (s)
DECIMATE	TOGGLE	T	Decimate
ILIMIT	QUANT	1.00000E+000	Limit I (mA/cm^2)
IMODE	SELECTOR	1	I/E Range Mode
IRANGE	QUANT	3.00000E-001	Max Current (mA)
EQDELAY	QUANT	5.00000E+000	Equil. Time (s)
SAMPLINGMODE	SELECTOR	1	Sampling Mode
AREA	QUANT	1.00000E+000	Sample Area (cm^2)
IRCOMP	SELECTOR	0	IRComp
PFCOR	QUANT	5.00000E+001	PF Corr. (ohm)
SEQUENCER	TOGGLE	TRUE	Run as Sequence
PSTATMODEL	IQUANT	64	Pstat Model
PSTATSECTION	LABEL	IFC1010-21051	Pstat Section
PSTATSERIALNO	LABEL	21051	Pstat Serial Number
CTRLMODE	IQUANT	1	Control Mode
ELECTROMETER	IQUANT	0	RE=0 or CS=1
IESTAB	IQUANT	0	I/E Stability
CASPEED	IQUANT	4	Control Amp Speed
CONVENTION	IQUANT	1	Current Convention
ICHRANGE	IQUANT	2	Ich Range
ICHRANGEMODE	TOGGLE	T	Ich Auto Range
ICHOFFSETENABLE	TOGGLE	F	Ich Offset Enable
ICHOFFSET	QUANT	0	Ich Offset (V)
ICHFILTER	IQUANT	3	Ich Filter
VCHRANGE	IQUANT	3	Vch Range
VCHRANGEMODE	TOGGLE	T	Vch Auto Range
VCHOFFSETENABLE	TOGGLE	F	Vch Offset Enable
VCHOFFSET	QUANT	0	Vch Offset (V)
VCHFILTER	IQUANT	3	Vch Filter
IERANGELOWERLIMIT	IQUANT	4	I/E Range Lower Limit
IERANGEMODE	TOGGLE	F	I/E AutoRange
IERANGE	IQUANT	9	I/E Range
ACHSELECT	IQUANT	0	Ach Select
ACHRANGE	IQUANT	2	Ach Range
ACHOFFSETENABLE	TOGGLE	F	Ach Offset Enable
ACHOFFSET	QUANT	0	Ach Offset (V)
ACHFILTER	IQUANT	1	Ach Filter
SENSECABLEID	IQUANT	14	Sense Cable ID
PWRCABLEID	IQUANT	14	Power Cable ID
DCCALDATE	LABEL	1/24/2022	DC Calibration Date
ACCALDATE	LABEL	4/2/2018	AC Calibration Date
FRAMEWORKVERSION	QUANT	7.06	Framework Version
INSTRUMENTVERSION	LABEL	4.30	Instrument Version
CURVE	TABLE	98
	Pt	T	Vf	Im	Vu	Sig	Ach	IERange	Over	Temp
	#	s	V vs. Ref.	A	V	V	V	#	bits	deg C
	0	-0.4	9.93050E-002	2.11436E-006	0.00000E+000	1.00006E-001	0.00000E+000	9	...........	1426.22
	1	-0.3	1.00017E-001	2.06598E-006	0.00000E+000	1.00006E-001	0.00000E+000	9	...........	1426.22
	2	-0.2	1.00188E-001	2.00699E-006	0.00000E+000	1.00006E-001	0.00000E+000	9	...........	1426.22
	3	-0.1	1.00190E-001	1.97462E-006	0.00000E+000	1.00006E-001	0.00000E+000	9	...........	1426.22
	4	0	1.00189E-001	1.92173E-006	0.00000E+000	1.00006E-001	0.00000E+000	9	...........	1426.22
	5	0.1	2.00189E-001	1.49396E-004	0.00000E+000	2.00005E-001	0.00000E+000	9	...........	1426.22
	6	0.2	2.00187E-001	7.33358E-005	0.00000E+000	2.00005E-001	0.00000E+000	9	...........	1426.22
	7	0.3	2.00188E-001	5.04100E-005	0.00000E+000	2.00005E-001	0.00000E+000	9	...........	1426.22
	8	0.4	2.00189E-001	4.01652E-005	0.00000E+000	2.00005E-001	0.00000E+000	9	...........	1426.22
	9	0.5	2.00187E-001	3.42629E-005	0.00000E+000	2.00005E-001	0.00000E+000	9	...........	1426.22
	10	0.6	2.00189E-001	3.02591E-005	0.00000E+000	2.00005E-001	0.00000E+000	9	...........	1426.22
	11	0.7	2.00191E-001	2.73194E-005	0.00000E+000	2.00005E-001	0.00000E+000	9	...........	1426.22
	12	0.8	2.00186E-001	2.50275E-005	0.00000E+000	2.00005E-001	0.00000E+000	9	...........	1426.22
	13	0.9	2.00187E-001	2.31681E-005	0.00000E+000	2.00005E-001	0.00000E+000	9	...........	1426.22
	14	1	2.00188E-001	2.16051E-005	0.00000E+000	2.00005E-001	0.00000E+000	9	...........	1426.22
	15	1.1	2.00186E-001	2.02978E-005	0.00000E+000	2.00005E-001	0.00000E+000	9	...........	1426.22
	16	1.2	2.00186E-001	1.91748E-005	0.00000E+000	2.00005E-001	0.00000E+000	9	...........	1426.38
	17	1.3	2.00186E-001	1.81854E-005	0.00000E+000	2.00005E-001	0.00000E+000	9	...........	1426.40
	18	1.4	2.00186E-001	1.73143E-005	0.00000E+000	2.00005E-001	0.00000E+000	9	...........	1426.40
	19	1.5	2.00187E-001	1.65479E-005	0.00000E+000	2.00005E-001	0.00000E+000	9	...........	1426.40
	20	1.6	2.00185E-001	1.58480E-005	0.00000E+000	2.00005E-001	0.00000E+000	9	...........	1426.40
	21	1.7	2.00185E-001	1.52218E-005	0.00000E+000	2.00005E-001	0.00000E+000	9	...........	1426.40
	22	1.8	2.00186E-001	1.46660E-005	0.00000E+000	2.00005E-001	0.00000E+000	9	...........	1426.40
	23	1.9	2.00187E-001	1.41288E-005	0.00000E+000	2.00005E-001	0.00000E+000	9	...........	1426.40
	24	2	2.00187E-001	1.36476E-005	0.00000E+000	2.00005E-001	0.00000E+000	9	...........	1426.40
	25	2.1	2.00188E-001	1.31738E-005	0.00000E+000	2.00005E-001	0.00000E+000	9	...........	1426.40
	26	2.2	2.00188E-001	1.28023E-005	0.00000E+000	2.00005E-001	0.00000E+000	9	...........	1426.40
	27	2.3	2.00186E-001	1.24054E-005	0.00000E+000	2.00005E-001	0.00000E+000	9	...........	1426.40
	28	2.4	2.00185E-001	1.20372E-005	0.00000E+000	2.00005E-001	0.00000E+000	9	...........	1426.40
	29	2.5	2.00185E-001	1.17062E-005	0.00000E+000	2.00005E-001	0.00000E+000	9	...........	1426.40
	30	2.6	2.00186E-001	1.13892E-005	0.00000E+000	2.00005E-001	0.00000E+000	9	...........	1426.40
	31	2.7	2.00187E-001	1.10973E-005	0.00000E+000	2.00005E-001	0.00000E+000	9	...........	1426.40
	32	2.8	2.00187E-001	1.08192E-005	0.00000E+000	2.00005E-001	0.00000E+000	9	...........	1426.40
	33	2.9	2.00186E-001	1.05454E-005	0.00000E+000	2.00005E-001	0.00000E+000	9	...........	1426.40
	34	3	2.00185E-001	1.03011E-005	0.00000E+000	2.00005E-001	0.00000E+000	9	...........	1426.40
	35	3.1	2.00186E-001	1.00702E-005	0.00000E+000	2.00005E-001	0.00000E+000	9	...........	1426.40
	36	3.2	2.00186E-001	9.85041E-006	0.00000E+000	2.00005E-001	0.00000E+000	9	...........	1426.32
	37	3.3	2.00187E-001	9.62558E-006	0.00000E+000	2.00005E-001	0.00000E+000	9	...........	1426.31
	38	3.4	2.00186E-001	9.41510E-006	0.00000E+000	2.00005E-001	0.00000E+000	9	...........	1426.31
	39	3.5	2.00185E-001	9.24025E-006	0.00000E+000	2.00005E-001	0.00000E+000	9	...........	1426.31
	40	3.6	2.00187E-001	9.04268E-006	0.00000E+000	2.00005E-001	0.00000E+000	9	...........	1426.31
	41	3.7	2.00187E-001	8.86860E-006	0.00000E+000	2.00005E-001	0.00000E+000	9	...........	1426.31
	42	3.8	2.00187E-001	8.72111E-006	0.00000E+000	2.00005E-001	0.00000E+000	9	...........	1426.31
	43	3.9	2.00186E-001	8.54200E-006	0.00000E+000	2.00005E-001	0.00000E+000	9	...........	1426.31
	44	4	2.00185E-001	8.38310E-006	0.00000E+000	2.00005E-001	0.00000E+000	9	...........	1426.31
	45	4.1	2.00187E-001	8.24943E-006	0.00000E+000	2.00005E-001	0.00000E+000	9	...........	1426.31
	46	4.2	2.00186E-001	8.10358E-006	0.00000E+000	2.00005E-001	0.00000E+000	9	...........	1426.39
	47	4.3	2.00188E-001	7.95489E-006	0.00000E+000	2.00005E-001	0.00000E+000	9	...........	1426.40
	48	4.4	2.00187E-001	7.84388E-006	0.00000E+000	2.00005E-001	0.00000E+000	9	...........	1426.40
	49	4.5	2.00187E-001	7.70073E-006	0.00000E+000	2.00005E-001	0.00000E+000	9	...........	1426.40
	50	4.6	2.00188E-001	7.58508E-006	0.00000E+000	2.00005E-001	0.00000E+000	9	...........	1426.40
	51	4.7	2.00187E-001	7.47957E-006	0.00000E+000	2.00005E-001	0.00000E+000	9	...........	1426.40
	52	4.8	2.00187E-001	7.35794E-006	0.00000E+000	2.00005E-001	0.00000E+000	9	...........	1426.40
	53	4.9	2.00188E-001	7.23775E-006	0.00000E+000	2.00005E-001	0.00000E+000	9	...........	1426.40
	54	5	2.00189E-001	7.14102E-006	0.00000E+000	2.00005E-001	0.00000E+000	9	...........	1426.40
	55	5.1	2.00187E-001	7.04185E-006	0.00000E+000	2.00005E-001	0.00000E+000	9	...........	1426.40
	56	5.2	2.00188E-001	6.95496E-006	0.00000E+000	2.00005E-001	0.00000E+000	9	...........	1426.40
	57	5.3	2.00186E-001	6.84087E-006	0.00000E+000	2.00005E-001	0.00000E+000	9	...........	1426.40
	58	5.4	2.00188E-001	6.74818E-006	0.00000E+000	2.00005E-001	0.00000E+000	9	...........	1426.40
	59	5.5	2.00188E-001	6.66219E-006	0.00000E+000	2.00005E-001	0.00000E+000	9	...........	1426.40
	60	5.6	2.00186E-001	6.57610E-006	0.00000E+000	2.00005E-001	0.00000E+000	9	...........	1426.40
	61	5.7	2.00187E-001	6.49408E-006	0.00000E+000	2.00005E-001	0.00000E+000	9	...........	1426.40
	62	5.8	2.00185E-001	6.39371E-006	0.00000E+000	2.00005E-001	0.00000E+000	9	...........	1426.40
	63	5.9	2.00186E-001	6.32721E-006	0.00000E+000	2.00005E-001	0.00000E+000	9	...........	1426.40
	64	6	2.00187E-001	6.26278E-006	0.00000E+000	2.00005E-001	0.00000E+000	9	...........	1426.40
	65	6.1	2.00189E-001	6.17205E-006	0.00000E+000	2.00005E-001	0.00000E+000	9	...........	1426.40
	66	7.1	2.00186E-001	5.54277E-006	0.00000E+000	2.00005E-001	0.00000E+000	9	...........	1426.40
	67	8.1	2.00184E-001	5.01272E-006	0.00000E+000	2.00005E-001	0.00000E+000	9	...........	1426.40
	68	9.1	2.00184E-001	4.60333E-006	0.00000E+000	2.00005E-001	0.00000E+000	9	...........	1426.40
	69	10.1	2.00185E-001	4.24146E-006	0.00000E+000	2.00005E-001	0.00000E+000	9	...........	1426.40
	70	11.1	2.00183E-001	3.93441E-006	0.00000E+000	2.00005E-001	0.00000E+000	9	...........	1426.40
	71	12.1	2.00185E-001	3.68959E-006	0.00000E+000	2.00005E-001	0.00000E+000	9	...........	1426.40
	72	13.1	2.00185E-001	3.47043E-006	0.00000E+000	2.00005E-001	0.00000E+000	9	...........	1426.40
	73	14.1	2.00185E-001	3.27923E-006	0.00000E+000	2.00005E-001	0.00000E+000	9	...........	1426.40
	74	15.1	2.00186E-001	3.10085E-006	0.00000E+000	2.00005E-001	0.00000E+000	9	...........	1426.40
	75	16.1	2.00184E-001	2.95870E-006	0.00000E+000	2.00005E-001	0.00000E+000	9	...........	1426.40
	76	26.1	2.00185E-001	1.78129E-006	0.00000E+000	2.00005E-001	0.00000E+000	9	...........	1426.40
	77	36.1	2.00186E-001	1.26822E-006	0.00000E+000	2.00005E-001	0.00000E+000	9	...........	1426.40
	78	46.1	2.00188E-001	1.18067E-006	0.00000E+000	2.00005E-001	0.00000E+000	9	...........	1426.40
	79	56.1	2.00187E-001	1.15978E-006	0.00000E+000	2.00005E-001	0.00000E+000	9	...........	1426.40
	80	66.1	2.00187E-001	1.05077E-006	0.00000E+000	2.00005E-001	0.00000E+000	9	...........	1426.40
	81	76.1	2.00186E-001	9.66112E-007	0.00000E+000	2.00005E-001	0.00000E+000	9	...........	1426.40
	82	86.1	2.00185E-001	7.77618E-007	0.00000E+000	2.00005E-001	0.00000E+000	9	...........	1426.40
	83	96.1	2.00185E-001	6.35104E-007	0.00000E+000	2.00005E-001	0.00000E+000	9	...........	1426.49
	84	106.1	2.00189E-001	4.30393E-007	0.00000E+000	2.00005E-001	0.00000E+000	9	...........	1426.31
	85	116.1	2.00186E-001	5.88423E-007	0.00000E+000	2.00005E-001	0.00000E+000	9	...........	1426.40
	86	216.1	2.00190E-001	4.32395E-007	0.00000E+000	2.00005E-001	0.00000E+000	9	...........	1426.40
	87	300	2.00188E-001	2.28284E-007	0.00000E+000	2.00005E-001	0.00000E+000	9	...........	1426.40
	88	300.1	3.00205E-001	1.48722E-004	0.00000E+000	3.00005E-001	0.00000E+000	9	...........	1426.40
	89	300.2	3.00058E-001	8.11656E-005	0.00000E+000	3.00005E-001	0.00000E+000	9	...........	1426.40
	90	300.3	3.00060E-001	6.13325E-005	0.00000E+000	3.00005E-001	0.00000E+000	9	...........	1426.40
	91	300.4	3.00066E-001	5.20100E-005	0.00000E+000	3.00005E-001	0.00000E+000	9	...........	1426.40
	92	300.5	3.00073E-001	4.61369E-005	0.00000E+000	3.00005E-001	0.00000E+000	9	...........	1426.40
	93	300.6	3.00067E-001	4.18787E-005	0.00000E+000	3.00005E-001	0.00000E+000	9	...........	1426.40
	94	300.7	3.00066E-001	3.85348E-005	0.00000E+000	3.00005E-001	0.00000E+000	9	...........	1426.40
	95	300.8	3.00059E-001	3.58078E-005	0.00000E+000	3.00005E-001	0.00000E+000	9	...........	1426.40
	96	300.9	3.00070E-001	3.35367E-005	0.00000E+000	3.00005E-001	0.00000E+000	9	...........	1426.40
	97	301	3.00052E-001	3.16137E-005	0.00000E+000	3.00005E-001	0.00000E+000	9	...........	1426.40
