EXPLAIN
TAG	CHRONOA
TITLE	LABEL	Chronoamperometry Scan	Test Identifier
DATE	LABEL	17/2/2022	Date
TIME	LABEL	14:27:15	Time
NOTES	NOTES	1	Notes...
	
PSTAT	PSTAT	IFC1010-21051	Potentiostat
VPRESTEP	POTEN	0.00000E+000	F	Pre-step Voltage (V)
TPRESTEP	QUANT	5.00000E-001	Pre-step Delay Time (s)
VSTEP1	POTEN	-2.00000E-001	F	Step 1 Voltage (V)
TSTEP1	QUANT	3.00000E+002	Step 1 Time (s)
VSTEP2	POTEN	-3.00000E-001	F	Step 2 Voltage (V)
TSTEP2	QUANT	1.00000E+000	Step 2 Time (s)
SAMPLETIME	QUANT	1.00000E-001	Sample Period (s)
DECIMATE	TOGGLE	T	Decimate
ILIMIT	QUANT	1.00000E+000	Limit I (mA/cm^2)
IMODE	SELECTOR	1	I/E Range Mode
IRANGE	QUANT	3.00000E-001	Max Current (mA)
EQDELAY	QUANT	5.00000E+000	Equil. Time (s)
SAMPLINGMODE	SELECTOR	1	Sampling Mode
AREA	QUANT	1.00000E+000	Sample Area (cm^2)
IRCOMP	SELECTOR	0	IRComp
PFCOR	QUANT	5.00000E+001	PF Corr. (ohm)
SEQUENCER	TOGGLE	TRUE	Run as Sequence
PSTATMODEL	IQUANT	64	Pstat Model
PSTATSECTION	LABEL	IFC1010-21051	Pstat Section
PSTATSERIALNO	LABEL	21051	Pstat Serial Number
CTRLMODE	IQUANT	1	Control Mode
ELECTROMETER	IQUANT	0	RE=0 or CS=1
IESTAB	IQUANT	0	I/E Stability
CASPEED	IQUANT	4	Control Amp Speed
CONVENTION	IQUANT	1	Current Convention
ICHRANGE	IQUANT	2	Ich Range
ICHRANGEMODE	TOGGLE	T	Ich Auto Range
ICHOFFSETENABLE	TOGGLE	F	Ich Offset Enable
ICHOFFSET	QUANT	0	Ich Offset (V)
ICHFILTER	IQUANT	3	Ich Filter
VCHRANGE	IQUANT	3	Vch Range
VCHRANGEMODE	TOGGLE	T	Vch Auto Range
VCHOFFSETENABLE	TOGGLE	F	Vch Offset Enable
VCHOFFSET	QUANT	0	Vch Offset (V)
VCHFILTER	IQUANT	3	Vch Filter
IERANGELOWERLIMIT	IQUANT	4	I/E Range Lower Limit
IERANGEMODE	TOGGLE	F	I/E AutoRange
IERANGE	IQUANT	9	I/E Range
ACHSELECT	IQUANT	0	Ach Select
ACHRANGE	IQUANT	2	Ach Range
ACHOFFSETENABLE	TOGGLE	F	Ach Offset Enable
ACHOFFSET	QUANT	0	Ach Offset (V)
ACHFILTER	IQUANT	1	Ach Filter
SENSECABLEID	IQUANT	14	Sense Cable ID
PWRCABLEID	IQUANT	14	Power Cable ID
DCCALDATE	LABEL	1/24/2022	DC Calibration Date
ACCALDATE	LABEL	4/2/2018	AC Calibration Date
FRAMEWORKVERSION	QUANT	7.06	Framework Version
INSTRUMENTVERSION	LABEL	4.30	Instrument Version
CURVE	TABLE	98
	Pt	T	Vf	Im	Vu	Sig	Ach	IERange	Over	Temp
	#	s	V vs. Ref.	A	V	V	V	#	bits	deg C
	0	-0.4	-1.01226E-003	-1.23065E-005	0.00000E+000	-6.72489E-005	0.00000E+000	9	...........	1426.04
	1	-0.3	-3.80397E-004	-1.23035E-005	0.00000E+000	-6.72489E-005	0.00000E+000	9	...........	1426.04
	2	-0.2	-2.21672E-004	-1.22838E-005	0.00000E+000	-6.72489E-005	0.00000E+000	9	...........	1426.04
	3	-0.1	-2.06058E-004	-1.22608E-005	0.00000E+000	-6.72489E-005	0.00000E+000	9	...........	1426.04
	4	0	-2.07360E-004	-1.22545E-005	0.00000E+000	-6.72489E-005	0.00000E+000	9	...........	1426.04
	5	0.1	-3.29270E-002	-5.33354E-004	0.00000E+000	-2.00066E-001	0.00000E+000	9	.........v.	1426.04
	6	0.2	-2.00251E-001	-3.72739E-004	0.00000E+000	-2.00066E-001	0.00000E+000	9	...........	1426.04
	7	0.3	-2.00248E-001	-2.96877E-004	0.00000E+000	-2.00066E-001	0.00000E+000	9	...........	1426.04
	8	0.4	-2.00249E-001	-2.51888E-004	0.00000E+000	-2.00066E-001	0.00000E+000	9	...........	1426.04
	9	0.5	-2.00250E-001	-2.21223E-004	0.00000E+000	-2.00066E-001	0.00000E+000	9	...........	1425.60
	10	0.6	-2.00249E-001	-1.98568E-004	0.00000E+000	-2.00066E-001	0.00000E+000	9	...........	1425.60
	11	0.7	-2.00249E-001	-1.81004E-004	0.00000E+000	-2.00066E-001	0.00000E+000	9	...........	1425.60
	12	0.8	-2.00249E-001	-1.66906E-004	0.00000E+000	-2.00066E-001	0.00000E+000	9	...........	1425.60
	13	0.9	-2.00249E-001	-1.55346E-004	0.00000E+000	-2.00066E-001	0.00000E+000	9	...........	1425.60
	14	1	-2.00248E-001	-1.45680E-004	0.00000E+000	-2.00066E-001	0.00000E+000	9	...........	1425.60
	15	1.1	-2.00250E-001	-1.37493E-004	0.00000E+000	-2.00066E-001	0.00000E+000	9	...........	1425.60
	16	1.2	-2.00250E-001	-1.30466E-004	0.00000E+000	-2.00066E-001	0.00000E+000	9	...........	1425.60
	17	1.3	-2.00251E-001	-1.24371E-004	0.00000E+000	-2.00066E-001	0.00000E+000	9	...........	1425.60
	18	1.4	-2.00252E-001	-1.19030E-004	0.00000E+000	-2.00066E-001	0.00000E+000	9	...........	1425.60
	19	1.5	-2.00252E-001	-1.14330E-004	0.00000E+000	-2.00066E-001	0.00000E+000	9	...........	1426.13
	20	1.6	-2.00252E-001	-1.10154E-004	0.00000E+000	-2.00066E-001	0.00000E+000	9	...........	1426.13
	21	1.7	-2.00253E-001	-1.06428E-004	0.00000E+000	-2.00066E-001	0.00000E+000	9	...........	1426.13
	22	1.8	-2.00252E-001	-1.03077E-004	0.00000E+000	-2.00066E-001	0.00000E+000	9	...........	1426.13
	23	1.9	-2.00252E-001	-1.00057E-004	0.00000E+000	-2.00066E-001	0.00000E+000	9	...........	1426.13
	24	2	-2.00254E-001	-9.73306E-005	0.00000E+000	-2.00066E-001	0.00000E+000	9	...........	1426.13
	25	2.1	-2.00251E-001	-9.48290E-005	0.00000E+000	-2.00066E-001	0.00000E+000	9	...........	1426.13
	26	2.2	-2.00252E-001	-9.25561E-005	0.00000E+000	-2.00066E-001	0.00000E+000	9	...........	1426.13
	27	2.3	-2.00251E-001	-9.04629E-005	0.00000E+000	-2.00066E-001	0.00000E+000	9	...........	1426.13
	28	2.4	-2.00252E-001	-8.85203E-005	0.00000E+000	-2.00066E-001	0.00000E+000	9	...........	1426.13
	29	2.5	-2.00252E-001	-8.67337E-005	0.00000E+000	-2.00066E-001	0.00000E+000	9	...........	1426.04
	30	2.6	-2.00252E-001	-8.50917E-005	0.00000E+000	-2.00066E-001	0.00000E+000	9	...........	1426.04
	31	2.7	-2.00250E-001	-8.35323E-005	0.00000E+000	-2.00066E-001	0.00000E+000	9	...........	1426.04
	32	2.8	-2.00251E-001	-8.21010E-005	0.00000E+000	-2.00066E-001	0.00000E+000	9	...........	1426.04
	33	2.9	-2.00251E-001	-8.07398E-005	0.00000E+000	-2.00066E-001	0.00000E+000	9	...........	1426.04
	34	3	-2.00252E-001	-7.94862E-005	0.00000E+000	-2.00066E-001	0.00000E+000	9	...........	1426.04
	35	3.1	-2.00252E-001	-7.82908E-005	0.00000E+000	-2.00066E-001	0.00000E+000	9	...........	1426.04
	36	3.2	-2.00254E-001	-7.71887E-005	0.00000E+000	-2.00066E-001	0.00000E+000	9	...........	1426.04
	37	3.3	-2.00252E-001	-7.61327E-005	0.00000E+000	-2.00066E-001	0.00000E+000	9	...........	1426.04
	38	3.4	-2.00252E-001	-7.51516E-005	0.00000E+000	-2.00066E-001	0.00000E+000	9	...........	1426.04
	39	3.5	-2.00251E-001	-7.42104E-005	0.00000E+000	-2.00066E-001	0.00000E+000	9	...........	1425.78
	40	3.6	-2.00250E-001	-7.33204E-005	0.00000E+000	-2.00066E-001	0.00000E+000	9	...........	1425.78
	41	3.7	-2.00250E-001	-7.24790E-005	0.00000E+000	-2.00066E-001	0.00000E+000	9	...........	1425.78
	42	3.8	-2.00254E-001	-7.16865E-005	0.00000E+000	-2.00066E-001	0.00000E+000	9	...........	1425.78
	43	3.9	-2.00251E-001	-7.08890E-005	0.00000E+000	-2.00066E-001	0.00000E+000	9	...........	1425.78
	44	4	-2.00252E-001	-7.01436E-005	0.00000E+000	-2.00066E-001	0.00000E+000	9	...........	1425.78
	45	4.1	-2.00253E-001	-6.94474E-005	0.00000E+000	-2.00066E-001	0.00000E+000	9	...........	1425.78
	46	4.2	-2.00252E-001	-6.87622E-005	0.00000E+000	-2.00066E-001	0.00000E+000	9	...........	1425.78
	47	4.3	-2.00252E-001	-6.81119E-005	0.00000E+000	-2.00066E-001	0.00000E+000	9	...........	1425.78
	48	4.4	-2.00253E-001	-6.74878E-005	0.00000E+000	-2.00066E-001	0.00000E+000	9	...........	1425.78
	49	4.5	-2.00251E-001	-6.68787E-005	0.00000E+000	-2.00066E-001	0.00000E+000	9	...........	1426.13
	50	4.6	-2.00251E-001	-6.62964E-005	0.00000E+000	-2.00066E-001	0.00000E+000	9	...........	1426.13
	51	4.7	-2.00252E-001	-6.57624E-005	0.00000E+000	-2.00066E-001	0.00000E+000	9	...........	1426.13
	52	4.8	-2.00251E-001	-6.52135E-005	0.00000E+000	-2.00066E-001	0.00000E+000	9	...........	1426.13
	53	4.9	-2.00252E-001	-6.47018E-005	0.00000E+000	-2.00066E-001	0.00000E+000	9	...........	1426.13
	54	5	-2.00252E-001	-6.42220E-005	0.00000E+000	-2.00066E-001	0.00000E+000	9	...........	1426.13
	55	5.1	-2.00251E-001	-6.37260E-005	0.00000E+000	-2.00066E-001	0.00000E+000	9	...........	1426.13
	56	5.2	-2.00252E-001	-6.32518E-005	0.00000E+000	-2.00066E-001	0.00000E+000	9	...........	1426.13
	57	5.3	-2.00250E-001	-6.28133E-005	0.00000E+000	-2.00066E-001	0.00000E+000	9	...........	1426.13
	58	5.4	-2.00251E-001	-6.23677E-005	0.00000E+000	-2.00066E-001	0.00000E+000	9	...........	1426.13
	59	5.5	-2.00250E-001	-6.19277E-005	0.00000E+000	-2.00066E-001	0.00000E+000	9	...........	1426.04
	60	5.6	-2.00252E-001	-6.15280E-005	0.00000E+000	-2.00066E-001	0.00000E+000	9	...........	1426.04
	61	5.7	-2.00253E-001	-6.11282E-005	0.00000E+000	-2.00066E-001	0.00000E+000	9	...........	1426.04
	62	5.8	-2.00253E-001	-6.07441E-005	0.00000E+000	-2.00066E-001	0.00000E+000	9	...........	1426.04
	63	5.9	-2.00252E-001	-6.03811E-005	0.00000E+000	-2.00066E-001	0.00000E+000	9	...........	1426.04
	64	6	-2.00253E-001	-6.00539E-005	0.00000E+000	-2.00066E-001	0.00000E+000	9	...........	1426.04
	65	6.1	-2.00253E-001	-5.97101E-005	0.00000E+000	-2.00066E-001	0.00000E+000	9	...........	1426.04
	66	7.1	-2.00253E-001	-5.67667E-005	0.00000E+000	-2.00066E-001	0.00000E+000	9	...........	1426.22
	67	8.1	-2.00252E-001	-5.43666E-005	0.00000E+000	-2.00066E-001	0.00000E+000	9	...........	1426.22
	68	9.1	-2.00252E-001	-5.23716E-005	0.00000E+000	-2.00066E-001	0.00000E+000	9	...........	1426.22
	69	10.1	-2.00252E-001	-5.06856E-005	0.00000E+000	-2.00066E-001	0.00000E+000	9	...........	1426.22
	70	11.1	-2.00251E-001	-4.94171E-005	0.00000E+000	-2.00066E-001	0.00000E+000	9	...........	1426.22
	71	12.1	-2.00252E-001	-4.83624E-005	0.00000E+000	-2.00066E-001	0.00000E+000	9	...........	1426.22
	72	13.1	-2.00251E-001	-4.73757E-005	0.00000E+000	-2.00066E-001	0.00000E+000	9	...........	1426.22
	73	14.1	-2.00252E-001	-4.65227E-005	0.00000E+000	-2.00066E-001	0.00000E+000	9	...........	1426.22
	74	15.1	-2.00249E-001	-4.57550E-005	0.00000E+000	-2.00066E-001	0.00000E+000	9	...........	1426.22
	75	16.1	-2.00254E-001	-4.52228E-005	0.00000E+000	-2.00066E-001	0.00000E+000	9	...........	1426.22
	76	26.1	-2.00254E-001	-4.10304E-005	0.00000E+000	-2.00066E-001	0.00000E+000	9	...........	1426.22
	77	36.1	-2.00250E-001	-3.85127E-005	0.00000E+000	-2.00066E-001	0.00000E+000	9	...........	1426.22
	78	46.1	-2.00252E-001	-3.71615E-005	0.00000E+000	-2.00066E-001	0.00000E+000	9	...........	1426.22
	79	56.1	-2.00256E-001	-3.62691E-005	0.00000E+000	-2.00066E-001	0.00000E+000	9	...........	1426.22
	80	66.1	-2.00254E-001	-3.50871E-005	0.00000E+000	-2.00066E-001	0.00000E+000	9	...........	1426.22
	81	76.1	-2.00251E-001	-3.42474E-005	0.00000E+000	-2.00066E-001	0.00000E+000	9	...........	1426.22
	82	86.1	-2.00251E-001	-3.39088E-005	0.00000E+000	-2.00066E-001	0.00000E+000	9	...........	1426.22
	83	96.1	-2.00253E-001	-3.32318E-005	0.00000E+000	-2.00066E-001	0.00000E+000	9	...........	1426.22
	84	106.1	-2.00254E-001	-3.25057E-005	0.00000E+000	-2.00066E-001	0.00000E+000	9	...........	1426.22
	85	116.1	-2.00253E-001	-3.19063E-005	0.00000E+000	-2.00066E-001	0.00000E+000	9	...........	1426.22
	86	216.1	-2.00252E-001	-2.86349E-005	0.00000E+000	-2.00066E-001	0.00000E+000	9	...........	1426.22
	87	300	-2.00254E-001	-2.70441E-005	0.00000E+000	-2.00066E-001	0.00000E+000	9	...........	1426.22
	88	300.1	-3.00260E-001	-2.87595E-004	0.00000E+000	-3.00066E-001	0.00000E+000	9	...........	1426.22
	89	300.2	-3.00418E-001	-1.93770E-004	0.00000E+000	-3.00066E-001	0.00000E+000	9	...........	1426.22
	90	300.3	-3.00421E-001	-1.49299E-004	0.00000E+000	-3.00066E-001	0.00000E+000	9	...........	1426.22
	91	300.4	-3.00409E-001	-1.25658E-004	0.00000E+000	-3.00066E-001	0.00000E+000	9	...........	1426.22
	92	300.5	-3.00406E-001	-1.11959E-004	0.00000E+000	-3.00066E-001	0.00000E+000	9	...........	1426.22
	93	300.6	-3.00422E-001	-1.03525E-004	0.00000E+000	-3.00066E-001	0.00000E+000	9	...........	1426.22
	94	300.7	-3.00420E-001	-9.79454E-005	0.00000E+000	-3.00066E-001	0.00000E+000	9	...........	1426.22
	95	300.8	-3.00418E-001	-9.40957E-005	0.00000E+000	-3.00066E-001	0.00000E+000	9	...........	1426.22
	96	300.9	-3.00415E-001	-9.13379E-005	0.00000E+000	-3.00066E-001	0.00000E+000	9	...........	1426.22
	97	301	-3.00418E-001	-8.92693E-005	0.00000E+000	-3.00066E-001	0.00000E+000	9	...........	1426.22
