EXPLAIN
TAG	CHRONOA
TITLE	LABEL	Chronoamperometry Scan	Test Identifier
DATE	LABEL	17/2/2022	Date
TIME	LABEL	16:49:26	Time
NOTES	NOTES	1	Notes...
	
PSTAT	PSTAT	IFC1010-21051	Potentiostat
VPRESTEP	POTEN	1.00000E-001	F	Pre-step Voltage (V)
TPRESTEP	QUANT	5.00000E-001	Pre-step Delay Time (s)
VSTEP1	POTEN	0.00000E+000	F	Step 1 Voltage (V)
TSTEP1	QUANT	6.00000E+001	Step 1 Time (s)
VSTEP2	POTEN	1.00000E-001	F	Step 2 Voltage (V)
TSTEP2	QUANT	1.00000E+000	Step 2 Time (s)
SAMPLETIME	QUANT	1.00000E-002	Sample Period (s)
DECIMATE	TOGGLE	T	Decimate
ILIMIT	QUANT	1.00000E+000	Limit I (mA/cm^2)
IMODE	SELECTOR	1	I/E Range Mode
IRANGE	QUANT	3.00000E-001	Max Current (mA)
EQDELAY	QUANT	5.00000E+000	Equil. Time (s)
SAMPLINGMODE	SELECTOR	1	Sampling Mode
AREA	QUANT	1.00000E+000	Sample Area (cm^2)
IRCOMP	SELECTOR	0	IRComp
PFCOR	QUANT	5.00000E+001	PF Corr. (ohm)
SEQUENCER	TOGGLE	TRUE	Run as Sequence
PSTATMODEL	IQUANT	64	Pstat Model
PSTATSECTION	LABEL	IFC1010-21051	Pstat Section
PSTATSERIALNO	LABEL	21051	Pstat Serial Number
CTRLMODE	IQUANT	1	Control Mode
ELECTROMETER	IQUANT	0	RE=0 or CS=1
IESTAB	IQUANT	0	I/E Stability
CASPEED	IQUANT	4	Control Amp Speed
CONVENTION	IQUANT	1	Current Convention
ICHRANGE	IQUANT	2	Ich Range
ICHRANGEMODE	TOGGLE	T	Ich Auto Range
ICHOFFSETENABLE	TOGGLE	F	Ich Offset Enable
ICHOFFSET	QUANT	0	Ich Offset (V)
ICHFILTER	IQUANT	3	Ich Filter
VCHRANGE	IQUANT	3	Vch Range
VCHRANGEMODE	TOGGLE	T	Vch Auto Range
VCHOFFSETENABLE	TOGGLE	F	Vch Offset Enable
VCHOFFSET	QUANT	0	Vch Offset (V)
VCHFILTER	IQUANT	3	Vch Filter
IERANGELOWERLIMIT	IQUANT	4	I/E Range Lower Limit
IERANGEMODE	TOGGLE	F	I/E AutoRange
IERANGE	IQUANT	9	I/E Range
ACHSELECT	IQUANT	0	Ach Select
ACHRANGE	IQUANT	2	Ach Range
ACHOFFSETENABLE	TOGGLE	F	Ach Offset Enable
ACHOFFSET	QUANT	0	Ach Offset (V)
ACHFILTER	IQUANT	1	Ach Filter
SENSECABLEID	IQUANT	14	Sense Cable ID
PWRCABLEID	IQUANT	14	Power Cable ID
DCCALDATE	LABEL	1/24/2022	DC Calibration Date
ACCALDATE	LABEL	4/2/2018	AC Calibration Date
FRAMEWORKVERSION	QUANT	7.06	Framework Version
INSTRUMENTVERSION	LABEL	4.30	Instrument Version
CURVE	TABLE	201
	Pt	T	Vf	Im	Vu	Sig	Ach	IERange	Over	Temp
	#	s	V vs. Ref.	A	V	V	V	#	bits	deg C
	0	-0.49	9.91708E-002	-6.47764E-005	0.00000E+000	9.99387E-002	0.00000E+000	9	...........	1426.31
	1	-0.48	9.97852E-002	-6.56167E-005	0.00000E+000	9.99387E-002	0.00000E+000	9	...........	1426.31
	2	-0.47	9.99510E-002	-6.46685E-005	0.00000E+000	9.99387E-002	0.00000E+000	9	...........	1426.31
	3	-0.46	9.99535E-002	-6.54869E-005	0.00000E+000	9.99387E-002	0.00000E+000	9	...........	1426.31
	4	-0.45	9.99529E-002	-6.45470E-005	0.00000E+000	9.99387E-002	0.00000E+000	9	...........	1426.31
	5	-0.44	9.99519E-002	-6.53865E-005	0.00000E+000	9.99387E-002	0.00000E+000	9	...........	1426.31
	6	-0.43	9.99521E-002	-6.44383E-005	0.00000E+000	9.99387E-002	0.00000E+000	9	...........	1426.31
	7	-0.42	9.99507E-002	-6.52686E-005	0.00000E+000	9.99387E-002	0.00000E+000	9	...........	1426.31
	8	-0.41	9.99535E-002	-6.43076E-005	0.00000E+000	9.99387E-002	0.00000E+000	9	...........	1426.31
	9	-0.4	9.99496E-002	-6.51407E-005	0.00000E+000	9.99387E-002	0.00000E+000	9	...........	1426.31
	10	-0.39	9.99555E-002	-6.41900E-005	0.00000E+000	9.99387E-002	0.00000E+000	9	...........	1426.31
	11	-0.38	9.99510E-002	-6.50233E-005	0.00000E+000	9.99387E-002	0.00000E+000	9	...........	1426.31
	12	-0.37	9.99539E-002	-6.40840E-005	0.00000E+000	9.99387E-002	0.00000E+000	9	...........	1426.31
	13	-0.36	9.99541E-002	-6.48871E-005	0.00000E+000	9.99387E-002	0.00000E+000	9	...........	1426.31
	14	-0.35	9.99498E-002	-6.39792E-005	0.00000E+000	9.99387E-002	0.00000E+000	9	...........	1426.31
	15	-0.34	9.99530E-002	-6.47834E-005	0.00000E+000	9.99387E-002	0.00000E+000	9	...........	1426.31
	16	-0.33	9.99533E-002	-6.38432E-005	0.00000E+000	9.99387E-002	0.00000E+000	9	...........	1426.31
	17	-0.32	9.99498E-002	-6.46838E-005	0.00000E+000	9.99387E-002	0.00000E+000	9	...........	1426.31
	18	-0.31	9.99498E-002	-6.37378E-005	0.00000E+000	9.99387E-002	0.00000E+000	9	...........	1426.31
	19	-0.3	9.99507E-002	-6.45776E-005	0.00000E+000	9.99387E-002	0.00000E+000	9	...........	1426.31
	20	-0.29	9.99519E-002	-6.36344E-005	0.00000E+000	9.99387E-002	0.00000E+000	9	...........	1426.31
	21	-0.28	9.99512E-002	-6.44575E-005	0.00000E+000	9.99387E-002	0.00000E+000	9	...........	1426.31
	22	-0.27	9.99489E-002	-6.35462E-005	0.00000E+000	9.99387E-002	0.00000E+000	9	...........	1426.31
	23	-0.26	9.99504E-002	-6.43585E-005	0.00000E+000	9.99387E-002	0.00000E+000	9	...........	1426.31
	24	-0.25	9.99504E-002	-6.34239E-005	0.00000E+000	9.99387E-002	0.00000E+000	9	...........	1426.31
	25	-0.24	9.99494E-002	-6.42378E-005	0.00000E+000	9.99387E-002	0.00000E+000	9	...........	1426.31
	26	-0.23	9.99519E-002	-6.33104E-005	0.00000E+000	9.99387E-002	0.00000E+000	9	...........	1426.31
	27	-0.22	9.99524E-002	-6.41288E-005	0.00000E+000	9.99387E-002	0.00000E+000	9	...........	1426.31
	28	-0.21	9.99534E-002	-6.32112E-005	0.00000E+000	9.99387E-002	0.00000E+000	9	...........	1426.31
	29	-0.2	9.99510E-002	-6.40454E-005	0.00000E+000	9.99387E-002	0.00000E+000	9	...........	1426.31
	30	-0.19	9.99515E-002	-6.30949E-005	0.00000E+000	9.99387E-002	0.00000E+000	9	...........	1426.31
	31	-0.18	9.99499E-002	-6.39294E-005	0.00000E+000	9.99387E-002	0.00000E+000	9	...........	1426.31
	32	-0.17	9.99511E-002	-6.29973E-005	0.00000E+000	9.99387E-002	0.00000E+000	9	...........	1426.31
	33	-0.16	9.99494E-002	-6.38215E-005	0.00000E+000	9.99387E-002	0.00000E+000	9	...........	1426.31
	34	-0.15	9.99503E-002	-6.29028E-005	0.00000E+000	9.99387E-002	0.00000E+000	9	...........	1426.31
	35	-0.14	9.99542E-002	-6.37042E-005	0.00000E+000	9.99387E-002	0.00000E+000	9	...........	1426.31
	36	-0.13	9.99484E-002	-6.27977E-005	0.00000E+000	9.99387E-002	0.00000E+000	9	...........	1426.31
	37	-0.12	9.99494E-002	-6.36313E-005	0.00000E+000	9.99387E-002	0.00000E+000	9	...........	1426.31
	38	-0.11	9.99527E-002	-6.27009E-005	0.00000E+000	9.99387E-002	0.00000E+000	9	...........	1426.31
	39	-0.1	9.99486E-002	-6.35443E-005	0.00000E+000	9.99387E-002	0.00000E+000	9	...........	1426.31
	40	-0.09	9.99497E-002	-6.25989E-005	0.00000E+000	9.99387E-002	0.00000E+000	9	...........	1426.31
	41	-0.08	9.99534E-002	-6.34194E-005	0.00000E+000	9.99387E-002	0.00000E+000	9	...........	1426.31
	42	-0.07	9.99528E-002	-6.24882E-005	0.00000E+000	9.99387E-002	0.00000E+000	9	...........	1426.31
	43	-0.06	9.99501E-002	-6.33346E-005	0.00000E+000	9.99387E-002	0.00000E+000	9	...........	1426.31
	44	-0.05	9.99504E-002	-6.24001E-005	0.00000E+000	9.99387E-002	0.00000E+000	9	...........	1426.31
	45	-0.04	9.99486E-002	-6.32476E-005	0.00000E+000	9.99387E-002	0.00000E+000	9	...........	1426.31
	46	-0.03	9.99530E-002	-6.22911E-005	0.00000E+000	9.99387E-002	0.00000E+000	9	...........	1426.31
	47	-0.02	9.99498E-002	-6.31603E-005	0.00000E+000	9.99387E-002	0.00000E+000	9	...........	1426.31
	48	-0.01	9.99519E-002	-6.22021E-005	0.00000E+000	9.99387E-002	0.00000E+000	9	...........	1426.31
	49	0	9.99509E-002	-6.30488E-005	0.00000E+000	9.99387E-002	0.00000E+000	9	...........	1426.31
	50	0.01	-6.49500E-005	-4.90378E-004	0.00000E+000	-6.08154E-005	0.00000E+000	9	...........	1426.31
	51	0.02	-5.54036E-005	-4.39398E-004	0.00000E+000	-6.08154E-005	0.00000E+000	9	...........	1426.31
	52	0.03	-5.64298E-005	-4.00760E-004	0.00000E+000	-6.08154E-005	0.00000E+000	9	...........	1426.31
	53	0.04	-5.64465E-005	-3.71363E-004	0.00000E+000	-6.08154E-005	0.00000E+000	9	...........	1426.31
	54	0.05	-5.66885E-005	-3.45278E-004	0.00000E+000	-6.08154E-005	0.00000E+000	9	...........	1426.31
	55	0.06	-5.71724E-005	-3.24943E-004	0.00000E+000	-6.08154E-005	0.00000E+000	9	...........	1426.31
	56	0.07	-5.39518E-005	-3.05852E-004	0.00000E+000	-6.08154E-005	0.00000E+000	9	...........	1426.31
	57	0.08	-5.52617E-005	-2.91113E-004	0.00000E+000	-6.08154E-005	0.00000E+000	9	...........	1426.31
	58	0.09	-5.77731E-005	-2.76572E-004	0.00000E+000	-6.08154E-005	0.00000E+000	9	...........	1426.31
	59	0.1	-5.32593E-005	-2.65592E-004	0.00000E+000	-6.08154E-005	0.00000E+000	9	...........	1426.31
	60	0.11	-5.62963E-005	-2.54198E-004	0.00000E+000	-6.08154E-005	0.00000E+000	9	...........	1426.31
	61	0.12	-5.69054E-005	-2.45889E-004	0.00000E+000	-6.08154E-005	0.00000E+000	9	...........	1426.31
	62	0.13	-5.47611E-005	-2.36696E-004	0.00000E+000	-6.08154E-005	0.00000E+000	9	...........	1426.31
	63	0.14	-5.57290E-005	-2.30287E-004	0.00000E+000	-6.08154E-005	0.00000E+000	9	...........	1426.31
	64	0.15	-5.39351E-005	-2.22745E-004	0.00000E+000	-6.08154E-005	0.00000E+000	9	...........	1426.31
	65	0.16	-5.66885E-005	-2.17775E-004	0.00000E+000	-6.08154E-005	0.00000E+000	9	...........	1426.31
	66	0.17	-5.26001E-005	-2.11432E-004	0.00000E+000	-6.08154E-005	0.00000E+000	9	...........	1426.31
	67	0.18	-5.53201E-005	-2.07550E-004	0.00000E+000	-6.08154E-005	0.00000E+000	9	...........	1426.31
	68	0.19	-5.39267E-005	-2.02144E-004	0.00000E+000	-6.08154E-005	0.00000E+000	9	...........	1426.31
	69	0.2	-5.19326E-005	-1.99066E-004	0.00000E+000	-6.08154E-005	0.00000E+000	9	...........	1426.31
	70	0.21	-5.36848E-005	-1.94372E-004	0.00000E+000	-6.08154E-005	0.00000E+000	9	...........	1426.31
	71	0.22	-5.62296E-005	-1.91957E-004	0.00000E+000	-6.08154E-005	0.00000E+000	9	...........	1426.31
	72	0.23	-5.56122E-005	-1.87814E-004	0.00000E+000	-6.08154E-005	0.00000E+000	9	...........	1426.31
	73	0.24	-5.45859E-005	-1.85897E-004	0.00000E+000	-6.08154E-005	0.00000E+000	9	...........	1426.31
	74	0.25	-5.51366E-005	-1.82195E-004	0.00000E+000	-6.08154E-005	0.00000E+000	9	...........	1426.31
	75	0.26	-5.64882E-005	-1.80688E-004	0.00000E+000	-6.08154E-005	0.00000E+000	9	...........	1426.31
	76	0.27	-5.24750E-005	-1.77303E-004	0.00000E+000	-6.08154E-005	0.00000E+000	9	...........	1426.31
	77	0.28	-5.50948E-005	-1.76135E-004	0.00000E+000	-6.08154E-005	0.00000E+000	9	...........	1426.31
	78	0.29	-5.17991E-005	-1.73041E-004	0.00000E+000	-6.08154E-005	0.00000E+000	9	...........	1426.31
	79	0.3	-5.41604E-005	-1.72149E-004	0.00000E+000	-6.08154E-005	0.00000E+000	9	...........	1426.31
	80	0.31	-5.60794E-005	-1.69297E-004	0.00000E+000	-6.08154E-005	0.00000E+000	9	...........	1426.31
	81	0.32	-5.18325E-005	-1.68618E-004	0.00000E+000	-6.08154E-005	0.00000E+000	9	...........	1426.31
	82	0.33	-5.13986E-005	-1.65932E-004	0.00000E+000	-6.08154E-005	0.00000E+000	9	...........	1426.31
	83	0.34	-5.52367E-005	-1.65483E-004	0.00000E+000	-6.08154E-005	0.00000E+000	9	...........	1426.31
	84	0.35	-5.36180E-005	-1.62956E-004	0.00000E+000	-6.08154E-005	0.00000E+000	9	...........	1426.31
	85	0.36	-5.58875E-005	-1.62660E-004	0.00000E+000	-6.08154E-005	0.00000E+000	9	...........	1426.31
	86	0.37	-5.47194E-005	-1.60254E-004	0.00000E+000	-6.08154E-005	0.00000E+000	9	...........	1426.31
	87	0.38	-5.56789E-005	-1.60106E-004	0.00000E+000	-6.08154E-005	0.00000E+000	9	...........	1426.31
	88	0.39	-5.31508E-005	-1.57824E-004	0.00000E+000	-6.08154E-005	0.00000E+000	9	...........	1426.31
	89	0.4	-5.41520E-005	-1.57763E-004	0.00000E+000	-6.08154E-005	0.00000E+000	9	...........	1426.31
	90	0.41	-5.59125E-005	-1.55581E-004	0.00000E+000	-6.08154E-005	0.00000E+000	9	...........	1426.31
	91	0.42	-5.69304E-005	-1.55660E-004	0.00000E+000	-6.08154E-005	0.00000E+000	9	...........	1426.31
	92	0.43	-5.38183E-005	-1.53523E-004	0.00000E+000	-6.08154E-005	0.00000E+000	9	...........	1426.31
	93	0.44	-5.41353E-005	-1.53706E-004	0.00000E+000	-6.08154E-005	0.00000E+000	9	...........	1426.31
	94	0.45	-5.56205E-005	-1.51637E-004	0.00000E+000	-6.08154E-005	0.00000E+000	9	...........	1426.31
	95	0.46	-5.35847E-005	-1.51907E-004	0.00000E+000	-6.08154E-005	0.00000E+000	9	...........	1426.31
	96	0.47	-5.30256E-005	-1.49890E-004	0.00000E+000	-6.08154E-005	0.00000E+000	9	...........	1426.31
	97	0.48	-5.40686E-005	-1.50230E-004	0.00000E+000	-6.08154E-005	0.00000E+000	9	...........	1426.31
	98	0.49	-5.69471E-005	-1.48267E-004	0.00000E+000	-6.08154E-005	0.00000E+000	9	...........	1426.31
	99	0.5	-5.71390E-005	-1.48710E-004	0.00000E+000	-6.08154E-005	0.00000E+000	9	...........	1426.31
	100	0.51	-5.39351E-005	-1.46765E-004	0.00000E+000	-6.08154E-005	0.00000E+000	9	...........	1426.31
	101	0.52	-5.41437E-005	-1.47256E-004	0.00000E+000	-6.08154E-005	0.00000E+000	9	...........	1426.31
	102	0.53	-5.76396E-005	-1.45376E-004	0.00000E+000	-6.08154E-005	0.00000E+000	9	...........	1426.31
	103	0.54	-5.64298E-005	-1.45927E-004	0.00000E+000	-6.08154E-005	0.00000E+000	9	...........	1426.31
	104	0.55	-5.60043E-005	-1.44046E-004	0.00000E+000	-6.08154E-005	0.00000E+000	9	...........	1426.31
	105	0.56	-5.60043E-005	-1.44677E-004	0.00000E+000	-6.08154E-005	0.00000E+000	9	...........	1426.31
	106	0.57	-5.58124E-005	-1.42826E-004	0.00000E+000	-6.08154E-005	0.00000E+000	9	...........	1426.31
	107	0.58	-5.57957E-005	-1.43492E-004	0.00000E+000	-6.08154E-005	0.00000E+000	9	...........	1426.31
	108	0.59	-5.34845E-005	-1.41667E-004	0.00000E+000	-6.08154E-005	0.00000E+000	9	...........	1426.31
	109	0.6	-5.66050E-005	-1.42390E-004	0.00000E+000	-6.08154E-005	0.00000E+000	9	...........	1426.31
	110	0.61	-5.47528E-005	-1.40577E-004	0.00000E+000	-6.08154E-005	0.00000E+000	9	...........	1426.31
	111	0.71	-5.28087E-005	-1.35985E-004	0.00000E+000	-6.08154E-005	0.00000E+000	9	...........	1425.95
	112	0.81	-5.39434E-005	-1.32495E-004	0.00000E+000	-6.08154E-005	0.00000E+000	9	...........	1425.95
	113	0.91	-5.36013E-005	-1.29768E-004	0.00000E+000	-6.08154E-005	0.00000E+000	9	...........	1425.95
	114	1.01	-5.53452E-005	-1.27664E-004	0.00000E+000	-6.08154E-005	0.00000E+000	9	...........	1425.95
	115	1.11	-5.36013E-005	-1.25985E-004	0.00000E+000	-6.08154E-005	0.00000E+000	9	...........	1425.95
	116	1.21	-5.52200E-005	-1.24685E-004	0.00000E+000	-6.08154E-005	0.00000E+000	9	...........	1425.95
	117	1.31	-5.73560E-005	-1.23619E-004	0.00000E+000	-6.08154E-005	0.00000E+000	9	...........	1425.95
	118	1.41	-5.43773E-005	-1.22770E-004	0.00000E+000	-6.08154E-005	0.00000E+000	9	...........	1425.95
	119	1.51	-5.27586E-005	-1.22039E-004	0.00000E+000	-6.08154E-005	0.00000E+000	9	...........	1425.95
	120	1.61	-5.65633E-005	-1.21438E-004	0.00000E+000	-6.08154E-005	0.00000E+000	9	...........	1425.95
	121	2.61	-5.45942E-005	-1.12463E-004	0.00000E+000	-6.08154E-005	0.00000E+000	9	...........	1426.31
	122	3.61	-5.83655E-005	-9.59210E-005	0.00000E+000	-6.08154E-005	0.00000E+000	9	...........	1426.57
	123	4.61	-5.75979E-005	-7.86413E-005	0.00000E+000	-6.08154E-005	0.00000E+000	9	...........	1426.66
	124	5.61	-5.54036E-005	-6.45715E-005	0.00000E+000	-6.08154E-005	0.00000E+000	9	...........	1426.66
	125	6.61	-5.49530E-005	-5.36939E-005	0.00000E+000	-6.08154E-005	0.00000E+000	9	...........	1426.57
	126	7.61	-5.80485E-005	-4.59083E-005	0.00000E+000	-6.08154E-005	0.00000E+000	9	...........	1426.66
	127	8.61	-5.54703E-005	-4.05286E-005	0.00000E+000	-6.08154E-005	0.00000E+000	9	...........	1426.66
	128	9.61	-5.58374E-005	-3.62397E-005	0.00000E+000	-6.08154E-005	0.00000E+000	9	...........	1426.57
	129	10.61	-5.94836E-005	-3.31810E-005	0.00000E+000	-6.08154E-005	0.00000E+000	9	...........	1426.66
	130	11.61	-5.65466E-005	-2.98498E-005	0.00000E+000	-6.08154E-005	0.00000E+000	9	...........	1426.66
	131	21.61	-5.89246E-005	-1.62027E-005	0.00000E+000	-6.08154E-005	0.00000E+000	9	...........	1426.57
	132	31.61	-5.44274E-005	-1.34885E-005	0.00000E+000	-6.08154E-005	0.00000E+000	9	...........	1426.57
	133	41.61	-5.78733E-005	-1.02788E-005	0.00000E+000	-6.08154E-005	0.00000E+000	9	...........	1426.66
	134	51.61	-5.54536E-005	-1.00786E-005	0.00000E+000	-6.08154E-005	0.00000E+000	9	...........	1426.57
	135	60	-5.75896E-005	-1.00043E-005	0.00000E+000	-6.08154E-005	0.00000E+000	9	...........	1426.66
	136	60.01	3.26887E-002	4.20054E-004	0.00000E+000	9.99387E-002	0.00000E+000	9	.........v.	1426.66
	137	60.02	9.88095E-002	3.49578E-004	0.00000E+000	9.99387E-002	0.00000E+000	9	...........	1426.66
	138	60.03	9.97505E-002	3.01283E-004	0.00000E+000	9.99387E-002	0.00000E+000	9	...........	1426.66
	139	60.04	9.99031E-002	2.59459E-004	0.00000E+000	9.99387E-002	0.00000E+000	9	...........	1426.66
	140	60.05	9.99334E-002	2.27606E-004	0.00000E+000	9.99387E-002	0.00000E+000	9	...........	1426.66
	141	60.06	9.99424E-002	1.98044E-004	0.00000E+000	9.99387E-002	0.00000E+000	9	...........	1426.66
	142	60.07	9.99439E-002	1.75868E-004	0.00000E+000	9.99387E-002	0.00000E+000	9	...........	1426.66
	143	60.08	9.99446E-002	1.54167E-004	0.00000E+000	9.99387E-002	0.00000E+000	9	...........	1426.66
	144	60.09	9.99449E-002	1.38450E-004	0.00000E+000	9.99387E-002	0.00000E+000	9	...........	1426.66
	145	60.1	9.99424E-002	1.22110E-004	0.00000E+000	9.99387E-002	0.00000E+000	9	...........	1426.66
	146	60.11	9.99490E-002	1.10885E-004	0.00000E+000	9.99387E-002	0.00000E+000	9	...........	1426.66
	147	60.12	9.99473E-002	9.82971E-005	0.00000E+000	9.99387E-002	0.00000E+000	9	...........	1426.66
	148	60.13	9.99475E-002	9.02277E-005	0.00000E+000	9.99387E-002	0.00000E+000	9	...........	1426.66
	149	60.14	9.99484E-002	8.03494E-005	0.00000E+000	9.99387E-002	0.00000E+000	9	...........	1426.66
	150	60.15	9.99467E-002	7.45557E-005	0.00000E+000	9.99387E-002	0.00000E+000	9	...........	1426.66
	151	60.16	9.99470E-002	6.66217E-005	0.00000E+000	9.99387E-002	0.00000E+000	9	...........	1426.66
	152	60.17	9.99480E-002	6.24782E-005	0.00000E+000	9.99387E-002	0.00000E+000	9	...........	1426.66
	153	60.18	9.99500E-002	5.59815E-005	0.00000E+000	9.99387E-002	0.00000E+000	9	...........	1426.66
	154	60.19	9.99504E-002	5.30699E-005	0.00000E+000	9.99387E-002	0.00000E+000	9	...........	1426.66
	155	60.2	9.99498E-002	4.76363E-005	0.00000E+000	9.99387E-002	0.00000E+000	9	...........	1426.66
	156	60.21	9.99500E-002	4.56256E-005	0.00000E+000	9.99387E-002	0.00000E+000	9	...........	1426.66
	157	60.22	9.99482E-002	4.10141E-005	0.00000E+000	9.99387E-002	0.00000E+000	9	...........	1426.66
	158	60.23	9.99478E-002	3.96944E-005	0.00000E+000	9.99387E-002	0.00000E+000	9	...........	1426.66
	159	60.24	9.99526E-002	3.56895E-005	0.00000E+000	9.99387E-002	0.00000E+000	9	...........	1426.66
	160	60.25	9.99481E-002	3.49048E-005	0.00000E+000	9.99387E-002	0.00000E+000	9	...........	1426.66
	161	60.26	9.99528E-002	3.13725E-005	0.00000E+000	9.99387E-002	0.00000E+000	9	...........	1426.66
	162	60.27	9.99490E-002	3.09730E-005	0.00000E+000	9.99387E-002	0.00000E+000	9	...........	1426.66
	163	60.28	9.99499E-002	2.78127E-005	0.00000E+000	9.99387E-002	0.00000E+000	9	...........	1426.66
	164	60.29	9.99484E-002	2.77421E-005	0.00000E+000	9.99387E-002	0.00000E+000	9	...........	1426.66
	165	60.3	9.99505E-002	2.48669E-005	0.00000E+000	9.99387E-002	0.00000E+000	9	...........	1426.66
	166	60.31	9.99515E-002	2.50391E-005	0.00000E+000	9.99387E-002	0.00000E+000	9	...........	1426.66
	167	60.32	9.99521E-002	2.24069E-005	0.00000E+000	9.99387E-002	0.00000E+000	9	...........	1426.66
	168	60.33	9.99479E-002	2.27673E-005	0.00000E+000	9.99387E-002	0.00000E+000	9	...........	1426.66
	169	60.34	9.99500E-002	2.03133E-005	0.00000E+000	9.99387E-002	0.00000E+000	9	...........	1426.66
	170	60.35	9.99483E-002	2.08247E-005	0.00000E+000	9.99387E-002	0.00000E+000	9	...........	1426.66
	171	60.36	9.99506E-002	1.85307E-005	0.00000E+000	9.99387E-002	0.00000E+000	9	...........	1426.66
	172	60.37	9.99504E-002	1.91786E-005	0.00000E+000	9.99387E-002	0.00000E+000	9	...........	1426.66
	173	60.38	9.99539E-002	1.69810E-005	0.00000E+000	9.99387E-002	0.00000E+000	9	...........	1426.66
	174	60.39	9.99533E-002	1.77293E-005	0.00000E+000	9.99387E-002	0.00000E+000	9	...........	1426.66
	175	60.4	9.99501E-002	1.56282E-005	0.00000E+000	9.99387E-002	0.00000E+000	9	...........	1426.66
	176	60.41	9.99485E-002	1.64510E-005	0.00000E+000	9.99387E-002	0.00000E+000	9	...........	1426.66
	177	60.42	9.99504E-002	1.44623E-005	0.00000E+000	9.99387E-002	0.00000E+000	9	...........	1426.66
	178	60.43	9.99500E-002	1.53524E-005	0.00000E+000	9.99387E-002	0.00000E+000	9	...........	1426.66
	179	60.44	9.99504E-002	1.34104E-005	0.00000E+000	9.99387E-002	0.00000E+000	9	...........	1426.66
	180	60.45	9.99487E-002	1.43594E-005	0.00000E+000	9.99387E-002	0.00000E+000	9	...........	1426.66
	181	60.46	9.99468E-002	1.24997E-005	0.00000E+000	9.99387E-002	0.00000E+000	9	...........	1426.66
	182	60.47	9.99506E-002	1.34921E-005	0.00000E+000	9.99387E-002	0.00000E+000	9	...........	1426.66
	183	60.48	9.99517E-002	1.16705E-005	0.00000E+000	9.99387E-002	0.00000E+000	9	...........	1426.66
	184	60.49	9.99497E-002	1.26999E-005	0.00000E+000	9.99387E-002	0.00000E+000	9	...........	1426.66
	185	60.5	9.99498E-002	1.09387E-005	0.00000E+000	9.99387E-002	0.00000E+000	9	...........	1426.66
	186	60.51	9.99490E-002	1.19731E-005	0.00000E+000	9.99387E-002	0.00000E+000	9	...........	1426.66
	187	60.52	9.99519E-002	1.02577E-005	0.00000E+000	9.99387E-002	0.00000E+000	9	...........	1426.66
	188	60.53	9.99508E-002	1.13243E-005	0.00000E+000	9.99387E-002	0.00000E+000	9	...........	1426.66
	189	60.54	9.99483E-002	9.64595E-006	0.00000E+000	9.99387E-002	0.00000E+000	9	...........	1426.66
	190	60.55	9.99480E-002	1.07265E-005	0.00000E+000	9.99387E-002	0.00000E+000	9	...........	1426.66
	191	60.56	9.99544E-002	9.08676E-006	0.00000E+000	9.99387E-002	0.00000E+000	9	...........	1426.66
	192	60.57	9.99523E-002	1.01693E-005	0.00000E+000	9.99387E-002	0.00000E+000	9	...........	1426.66
	193	60.58	9.99486E-002	8.55760E-006	0.00000E+000	9.99387E-002	0.00000E+000	9	...........	1426.66
	194	60.59	9.99462E-002	9.66458E-006	0.00000E+000	9.99387E-002	0.00000E+000	9	...........	1426.66
	195	60.6	9.99502E-002	8.08406E-006	0.00000E+000	9.99387E-002	0.00000E+000	9	...........	1426.66
	196	60.61	9.99488E-002	9.19048E-006	0.00000E+000	9.99387E-002	0.00000E+000	9	...........	1426.66
	197	60.71	9.99455E-002	7.28963E-006	0.00000E+000	9.99387E-002	0.00000E+000	9	...........	1426.57
	198	60.81	9.99454E-002	5.85231E-006	0.00000E+000	9.99387E-002	0.00000E+000	9	...........	1426.57
	199	60.91	9.99472E-002	4.74144E-006	0.00000E+000	9.99387E-002	0.00000E+000	9	...........	1426.57
	200	61	9.99510E-002	2.91706E-006	0.00000E+000	9.99387E-002	0.00000E+000	9	...........	1426.57
