EXPLAIN
TAG	CHRONOA
TITLE	LABEL	Chronoamperometry Scan	Test Identifier
DATE	LABEL	17/2/2022	Date
TIME	LABEL	17:05:53	Time
NOTES	NOTES	1	Notes...
	
PSTAT	PSTAT	IFC1010-21051	Potentiostat
VPRESTEP	POTEN	-7.00000E-001	F	Pre-step Voltage (V)
TPRESTEP	QUANT	5.00000E-001	Pre-step Delay Time (s)
VSTEP1	POTEN	-8.00000E-001	F	Step 1 Voltage (V)
TSTEP1	QUANT	3.00000E+002	Step 1 Time (s)
VSTEP2	POTEN	-7.00000E-001	F	Step 2 Voltage (V)
TSTEP2	QUANT	1.00000E+000	Step 2 Time (s)
SAMPLETIME	QUANT	1.00000E-001	Sample Period (s)
DECIMATE	TOGGLE	T	Decimate
ILIMIT	QUANT	1.00000E+000	Limit I (mA/cm^2)
IMODE	SELECTOR	1	I/E Range Mode
IRANGE	QUANT	3.00000E-001	Max Current (mA)
EQDELAY	QUANT	5.00000E+000	Equil. Time (s)
SAMPLINGMODE	SELECTOR	1	Sampling Mode
AREA	QUANT	1.00000E+000	Sample Area (cm^2)
IRCOMP	SELECTOR	0	IRComp
PFCOR	QUANT	5.00000E+001	PF Corr. (ohm)
SEQUENCER	TOGGLE	TRUE	Run as Sequence
PSTATMODEL	IQUANT	64	Pstat Model
PSTATSECTION	LABEL	IFC1010-21051	Pstat Section
PSTATSERIALNO	LABEL	21051	Pstat Serial Number
CTRLMODE	IQUANT	1	Control Mode
ELECTROMETER	IQUANT	0	RE=0 or CS=1
IESTAB	IQUANT	0	I/E Stability
CASPEED	IQUANT	4	Control Amp Speed
CONVENTION	IQUANT	1	Current Convention
ICHRANGE	IQUANT	2	Ich Range
ICHRANGEMODE	TOGGLE	T	Ich Auto Range
ICHOFFSETENABLE	TOGGLE	F	Ich Offset Enable
ICHOFFSET	QUANT	0	Ich Offset (V)
ICHFILTER	IQUANT	3	Ich Filter
VCHRANGE	IQUANT	3	Vch Range
VCHRANGEMODE	TOGGLE	T	Vch Auto Range
VCHOFFSETENABLE	TOGGLE	F	Vch Offset Enable
VCHOFFSET	QUANT	0	Vch Offset (V)
VCHFILTER	IQUANT	3	Vch Filter
IERANGELOWERLIMIT	IQUANT	4	I/E Range Lower Limit
IERANGEMODE	TOGGLE	F	I/E AutoRange
IERANGE	IQUANT	9	I/E Range
ACHSELECT	IQUANT	0	Ach Select
ACHRANGE	IQUANT	2	Ach Range
ACHOFFSETENABLE	TOGGLE	F	Ach Offset Enable
ACHOFFSET	QUANT	0	Ach Offset (V)
ACHFILTER	IQUANT	1	Ach Filter
SENSECABLEID	IQUANT	14	Sense Cable ID
PWRCABLEID	IQUANT	14	Power Cable ID
DCCALDATE	LABEL	1/24/2022	DC Calibration Date
ACCALDATE	LABEL	4/2/2018	AC Calibration Date
FRAMEWORKVERSION	QUANT	7.06	Framework Version
INSTRUMENTVERSION	LABEL	4.30	Instrument Version
CURVE	TABLE	98
	Pt	T	Vf	Im	Vu	Sig	Ach	IERange	Over	Temp
	#	s	V vs. Ref.	A	V	V	V	#	bits	deg C
	0	-0.4	-7.01735E-001	-1.43608E-004	0.00000E+000	-7.00083E-001	0.00000E+000	9	...........	1426.40
	1	-0.3	-7.01245E-001	-1.43346E-004	0.00000E+000	-7.00083E-001	0.00000E+000	9	...........	1426.40
	2	-0.2	-7.01243E-001	-1.43011E-004	0.00000E+000	-7.00083E-001	0.00000E+000	9	...........	1426.40
	3	-0.1	-7.01262E-001	-1.42992E-004	0.00000E+000	-7.00083E-001	0.00000E+000	9	...........	1426.40
	4	0	-7.01265E-001	-1.42756E-004	0.00000E+000	-7.00083E-001	0.00000E+000	9	...........	1426.40
	5	0.1	-8.01281E-001	-5.59260E-004	0.00000E+000	-8.00083E-001	0.00000E+000	9	...........	1426.40
	6	0.2	-8.01275E-001	-4.62242E-004	0.00000E+000	-8.00083E-001	0.00000E+000	9	...........	1426.40
	7	0.3	-8.01267E-001	-4.08498E-004	0.00000E+000	-8.00083E-001	0.00000E+000	9	...........	1426.40
	8	0.4	-8.01269E-001	-3.72208E-004	0.00000E+000	-8.00083E-001	0.00000E+000	9	...........	1426.40
	9	0.5	-8.01281E-001	-3.45356E-004	0.00000E+000	-8.00083E-001	0.00000E+000	9	...........	1426.40
	10	0.6	-8.01281E-001	-3.24294E-004	0.00000E+000	-8.00083E-001	0.00000E+000	9	...........	1426.40
	11	0.7	-8.01275E-001	-3.07257E-004	0.00000E+000	-8.00083E-001	0.00000E+000	9	...........	1426.40
	12	0.8	-8.01273E-001	-2.93137E-004	0.00000E+000	-8.00083E-001	0.00000E+000	9	...........	1426.40
	13	0.9	-8.01270E-001	-2.81364E-004	0.00000E+000	-8.00083E-001	0.00000E+000	9	...........	1426.40
	14	1	-8.01276E-001	-2.71334E-004	0.00000E+000	-8.00083E-001	0.00000E+000	9	...........	1426.40
	15	1.1	-8.01272E-001	-2.62795E-004	0.00000E+000	-8.00083E-001	0.00000E+000	9	...........	1426.40
	16	1.2	-8.01260E-001	-2.55341E-004	0.00000E+000	-8.00083E-001	0.00000E+000	9	...........	1426.04
	17	1.3	-8.01265E-001	-2.48818E-004	0.00000E+000	-8.00083E-001	0.00000E+000	9	...........	1426.04
	18	1.4	-8.01269E-001	-2.43153E-004	0.00000E+000	-8.00083E-001	0.00000E+000	9	...........	1426.04
	19	1.5	-8.01281E-001	-2.38136E-004	0.00000E+000	-8.00083E-001	0.00000E+000	9	...........	1426.04
	20	1.6	-8.01294E-001	-2.33705E-004	0.00000E+000	-8.00083E-001	0.00000E+000	9	...........	1426.04
	21	1.7	-8.01285E-001	-2.29789E-004	0.00000E+000	-8.00083E-001	0.00000E+000	9	...........	1426.04
	22	1.8	-8.01276E-001	-2.26221E-004	0.00000E+000	-8.00083E-001	0.00000E+000	9	...........	1426.04
	23	1.9	-8.01272E-001	-2.22926E-004	0.00000E+000	-8.00083E-001	0.00000E+000	9	...........	1426.04
	24	2	-8.01267E-001	-2.20114E-004	0.00000E+000	-8.00083E-001	0.00000E+000	9	...........	1426.04
	25	2.1	-8.01281E-001	-2.17493E-004	0.00000E+000	-8.00083E-001	0.00000E+000	9	...........	1426.04
	26	2.2	-8.01264E-001	-2.15104E-004	0.00000E+000	-8.00083E-001	0.00000E+000	9	...........	1426.22
	27	2.3	-8.01264E-001	-2.12878E-004	0.00000E+000	-8.00083E-001	0.00000E+000	9	...........	1426.22
	28	2.4	-8.01272E-001	-2.10866E-004	0.00000E+000	-8.00083E-001	0.00000E+000	9	...........	1426.22
	29	2.5	-8.01276E-001	-2.09144E-004	0.00000E+000	-8.00083E-001	0.00000E+000	9	...........	1426.22
	30	2.6	-8.01283E-001	-2.07338E-004	0.00000E+000	-8.00083E-001	0.00000E+000	9	...........	1426.22
	31	2.7	-8.01276E-001	-2.05822E-004	0.00000E+000	-8.00083E-001	0.00000E+000	9	...........	1426.22
	32	2.8	-8.01278E-001	-2.04395E-004	0.00000E+000	-8.00083E-001	0.00000E+000	9	...........	1426.22
	33	2.9	-8.01272E-001	-2.03114E-004	0.00000E+000	-8.00083E-001	0.00000E+000	9	...........	1426.22
	34	3	-8.01262E-001	-2.01798E-004	0.00000E+000	-8.00083E-001	0.00000E+000	9	...........	1426.22
	35	3.1	-8.01267E-001	-2.00645E-004	0.00000E+000	-8.00083E-001	0.00000E+000	9	...........	1426.22
	36	3.2	-8.01275E-001	-1.99590E-004	0.00000E+000	-8.00083E-001	0.00000E+000	9	...........	1426.04
	37	3.3	-8.01277E-001	-1.98571E-004	0.00000E+000	-8.00083E-001	0.00000E+000	9	...........	1426.04
	38	3.4	-8.01271E-001	-1.97533E-004	0.00000E+000	-8.00083E-001	0.00000E+000	9	...........	1426.04
	39	3.5	-8.01269E-001	-1.96530E-004	0.00000E+000	-8.00083E-001	0.00000E+000	9	...........	1426.04
	40	3.6	-8.01272E-001	-1.95837E-004	0.00000E+000	-8.00083E-001	0.00000E+000	9	...........	1426.04
	41	3.7	-8.01273E-001	-1.94911E-004	0.00000E+000	-8.00083E-001	0.00000E+000	9	...........	1426.04
	42	3.8	-8.01273E-001	-1.94143E-004	0.00000E+000	-8.00083E-001	0.00000E+000	9	...........	1426.04
	43	3.9	-8.01274E-001	-1.93504E-004	0.00000E+000	-8.00083E-001	0.00000E+000	9	...........	1426.04
	44	4	-8.01268E-001	-1.92808E-004	0.00000E+000	-8.00083E-001	0.00000E+000	9	...........	1426.04
	45	4.1	-8.01270E-001	-1.92177E-004	0.00000E+000	-8.00083E-001	0.00000E+000	9	...........	1426.04
	46	4.2	-8.01274E-001	-1.91526E-004	0.00000E+000	-8.00083E-001	0.00000E+000	9	...........	1426.31
	47	4.3	-8.01282E-001	-1.90941E-004	0.00000E+000	-8.00083E-001	0.00000E+000	9	...........	1426.31
	48	4.4	-8.01268E-001	-1.90318E-004	0.00000E+000	-8.00083E-001	0.00000E+000	9	...........	1426.31
	49	4.5	-8.01282E-001	-1.89921E-004	0.00000E+000	-8.00083E-001	0.00000E+000	9	...........	1426.31
	50	4.6	-8.01273E-001	-1.89379E-004	0.00000E+000	-8.00083E-001	0.00000E+000	9	...........	1426.31
	51	4.7	-8.01275E-001	-1.88876E-004	0.00000E+000	-8.00083E-001	0.00000E+000	9	...........	1426.31
	52	4.8	-8.01286E-001	-1.88422E-004	0.00000E+000	-8.00083E-001	0.00000E+000	9	...........	1426.31
	53	4.9	-8.01269E-001	-1.87888E-004	0.00000E+000	-8.00083E-001	0.00000E+000	9	...........	1426.31
	54	5	-8.01284E-001	-1.87567E-004	0.00000E+000	-8.00083E-001	0.00000E+000	9	...........	1426.31
	55	5.1	-8.01280E-001	-1.87141E-004	0.00000E+000	-8.00083E-001	0.00000E+000	9	...........	1426.31
	56	5.2	-8.01277E-001	-1.86806E-004	0.00000E+000	-8.00083E-001	0.00000E+000	9	...........	1426.40
	57	5.3	-8.01262E-001	-1.86360E-004	0.00000E+000	-8.00083E-001	0.00000E+000	9	...........	1426.40
	58	5.4	-8.01283E-001	-1.86025E-004	0.00000E+000	-8.00083E-001	0.00000E+000	9	...........	1426.40
	59	5.5	-8.01277E-001	-1.85793E-004	0.00000E+000	-8.00083E-001	0.00000E+000	9	...........	1426.40
	60	5.6	-8.01276E-001	-1.85484E-004	0.00000E+000	-8.00083E-001	0.00000E+000	9	...........	1426.40
	61	5.7	-8.01269E-001	-1.85192E-004	0.00000E+000	-8.00083E-001	0.00000E+000	9	...........	1426.40
	62	5.8	-8.01276E-001	-1.84844E-004	0.00000E+000	-8.00083E-001	0.00000E+000	9	...........	1426.40
	63	5.9	-8.01268E-001	-1.84542E-004	0.00000E+000	-8.00083E-001	0.00000E+000	9	...........	1426.40
	64	6	-8.01274E-001	-1.84277E-004	0.00000E+000	-8.00083E-001	0.00000E+000	9	...........	1426.40
	65	6.1	-8.01277E-001	-1.83994E-004	0.00000E+000	-8.00083E-001	0.00000E+000	9	...........	1426.40
	66	7.1	-8.01278E-001	-1.81734E-004	0.00000E+000	-8.00083E-001	0.00000E+000	9	...........	1425.95
	67	8.1	-8.01275E-001	-1.79933E-004	0.00000E+000	-8.00083E-001	0.00000E+000	9	...........	1425.95
	68	9.1	-8.01276E-001	-1.78537E-004	0.00000E+000	-8.00083E-001	0.00000E+000	9	...........	1425.95
	69	10.1	-8.01274E-001	-1.77397E-004	0.00000E+000	-8.00083E-001	0.00000E+000	9	...........	1426.40
	70	11.1	-8.01287E-001	-1.76458E-004	0.00000E+000	-8.00083E-001	0.00000E+000	9	...........	1426.40
	71	12.1	-8.01273E-001	-1.75420E-004	0.00000E+000	-8.00083E-001	0.00000E+000	9	...........	1425.95
	72	13.1	-8.01283E-001	-1.74489E-004	0.00000E+000	-8.00083E-001	0.00000E+000	9	...........	1425.95
	73	14.1	-8.01265E-001	-1.73841E-004	0.00000E+000	-8.00083E-001	0.00000E+000	9	...........	1425.95
	74	15.1	-8.01280E-001	-1.73391E-004	0.00000E+000	-8.00083E-001	0.00000E+000	9	...........	1426.04
	75	16.1	-8.01285E-001	-1.72775E-004	0.00000E+000	-8.00083E-001	0.00000E+000	9	...........	1426.40
	76	26.1	-8.01274E-001	-1.70293E-004	0.00000E+000	-8.00083E-001	0.00000E+000	9	...........	1426.40
	77	36.1	-8.01274E-001	-1.69205E-004	0.00000E+000	-8.00083E-001	0.00000E+000	9	...........	1426.40
	78	46.1	-8.01279E-001	-1.68675E-004	0.00000E+000	-8.00083E-001	0.00000E+000	9	...........	1426.40
	79	56.1	-8.01269E-001	-1.68215E-004	0.00000E+000	-8.00083E-001	0.00000E+000	9	...........	1426.40
	80	66.1	-8.01280E-001	-1.67761E-004	0.00000E+000	-8.00083E-001	0.00000E+000	9	...........	1426.40
	81	76.1	-8.01286E-001	-1.67512E-004	0.00000E+000	-8.00083E-001	0.00000E+000	9	...........	1426.40
	82	86.1	-8.01269E-001	-1.67273E-004	0.00000E+000	-8.00083E-001	0.00000E+000	9	...........	1426.40
	83	96.1	-8.01267E-001	-1.67122E-004	0.00000E+000	-8.00083E-001	0.00000E+000	9	...........	1426.40
	84	106.1	-8.01292E-001	-1.67104E-004	0.00000E+000	-8.00083E-001	0.00000E+000	9	...........	1426.40
	85	116.1	-8.01279E-001	-1.67459E-004	0.00000E+000	-8.00083E-001	0.00000E+000	9	...........	1426.40
	86	216.1	-8.01273E-001	-1.68714E-004	0.00000E+000	-8.00083E-001	0.00000E+000	9	...........	1426.40
	87	300	-8.01276E-001	-1.70028E-004	0.00000E+000	-8.00083E-001	0.00000E+000	9	...........	1426.40
	88	300.1	-7.01248E-001	1.61733E-004	0.00000E+000	-7.00083E-001	0.00000E+000	9	...........	1426.40
	89	300.2	-7.01240E-001	4.29549E-005	0.00000E+000	-7.00083E-001	0.00000E+000	9	...........	1426.49
	90	300.3	-7.01245E-001	-1.61036E-005	0.00000E+000	-7.00083E-001	0.00000E+000	9	...........	1426.49
	91	300.4	-7.01250E-001	-4.92677E-005	0.00000E+000	-7.00083E-001	0.00000E+000	9	...........	1426.49
	92	300.5	-7.01248E-001	-6.96608E-005	0.00000E+000	-7.00083E-001	0.00000E+000	9	...........	1426.49
	93	300.6	-7.01255E-001	-8.28633E-005	0.00000E+000	-7.00083E-001	0.00000E+000	9	...........	1426.49
	94	300.7	-7.01244E-001	-9.18679E-005	0.00000E+000	-7.00083E-001	0.00000E+000	9	...........	1426.49
	95	300.8	-7.01243E-001	-9.83302E-005	0.00000E+000	-7.00083E-001	0.00000E+000	9	...........	1426.49
	96	300.9	-7.01260E-001	-1.03268E-004	0.00000E+000	-7.00083E-001	0.00000E+000	9	...........	1426.49
	97	301	-7.01262E-001	-1.06901E-004	0.00000E+000	-7.00083E-001	0.00000E+000	9	...........	1426.49
