EXPLAIN
TAG	CHRONOA
TITLE	LABEL	Chronoamperometry Scan	Test Identifier
DATE	LABEL	17/2/2022	Date
TIME	LABEL	14:15:55	Time
NOTES	NOTES	1	Notes...
	
PSTAT	PSTAT	IFC1010-21051	Potentiostat
VPRESTEP	POTEN	1.00000E-001	F	Pre-step Voltage (V)
TPRESTEP	QUANT	5.00000E-001	Pre-step Delay Time (s)
VSTEP1	POTEN	2.00000E-001	F	Step 1 Voltage (V)
TSTEP1	QUANT	3.00000E+002	Step 1 Time (s)
VSTEP2	POTEN	3.00000E-001	F	Step 2 Voltage (V)
TSTEP2	QUANT	1.00000E+000	Step 2 Time (s)
SAMPLETIME	QUANT	1.00000E-001	Sample Period (s)
DECIMATE	TOGGLE	T	Decimate
ILIMIT	QUANT	1.00000E+000	Limit I (mA/cm^2)
IMODE	SELECTOR	1	I/E Range Mode
IRANGE	QUANT	3.00000E-001	Max Current (mA)
EQDELAY	QUANT	5.00000E+000	Equil. Time (s)
SAMPLINGMODE	SELECTOR	1	Sampling Mode
AREA	QUANT	1.00000E+000	Sample Area (cm^2)
IRCOMP	SELECTOR	0	IRComp
PFCOR	QUANT	5.00000E+001	PF Corr. (ohm)
SEQUENCER	TOGGLE	TRUE	Run as Sequence
PSTATMODEL	IQUANT	64	Pstat Model
PSTATSECTION	LABEL	IFC1010-21051	Pstat Section
PSTATSERIALNO	LABEL	21051	Pstat Serial Number
CTRLMODE	IQUANT	1	Control Mode
ELECTROMETER	IQUANT	0	RE=0 or CS=1
IESTAB	IQUANT	0	I/E Stability
CASPEED	IQUANT	4	Control Amp Speed
CONVENTION	IQUANT	1	Current Convention
ICHRANGE	IQUANT	2	Ich Range
ICHRANGEMODE	TOGGLE	T	Ich Auto Range
ICHOFFSETENABLE	TOGGLE	F	Ich Offset Enable
ICHOFFSET	QUANT	0	Ich Offset (V)
ICHFILTER	IQUANT	3	Ich Filter
VCHRANGE	IQUANT	3	Vch Range
VCHRANGEMODE	TOGGLE	T	Vch Auto Range
VCHOFFSETENABLE	TOGGLE	F	Vch Offset Enable
VCHOFFSET	QUANT	0	Vch Offset (V)
VCHFILTER	IQUANT	3	Vch Filter
IERANGELOWERLIMIT	IQUANT	4	I/E Range Lower Limit
IERANGEMODE	TOGGLE	F	I/E AutoRange
IERANGE	IQUANT	9	I/E Range
ACHSELECT	IQUANT	0	Ach Select
ACHRANGE	IQUANT	2	Ach Range
ACHOFFSETENABLE	TOGGLE	F	Ach Offset Enable
ACHOFFSET	QUANT	0	Ach Offset (V)
ACHFILTER	IQUANT	1	Ach Filter
SENSECABLEID	IQUANT	14	Sense Cable ID
PWRCABLEID	IQUANT	14	Power Cable ID
DCCALDATE	LABEL	1/24/2022	DC Calibration Date
ACCALDATE	LABEL	4/2/2018	AC Calibration Date
FRAMEWORKVERSION	QUANT	7.06	Framework Version
INSTRUMENTVERSION	LABEL	4.30	Instrument Version
CURVE	TABLE	98
	Pt	T	Vf	Im	Vu	Sig	Ach	IERange	Over	Temp
	#	s	V vs. Ref.	A	V	V	V	#	bits	deg C
	0	-0.4	9.93318E-002	1.75419E-006	0.00000E+000	1.00006E-001	0.00000E+000	9	...........	1426.04
	1	-0.3	1.00024E-001	1.68188E-006	0.00000E+000	1.00006E-001	0.00000E+000	9	...........	1426.04
	2	-0.2	1.00193E-001	1.59877E-006	0.00000E+000	1.00006E-001	0.00000E+000	9	...........	1426.04
	3	-0.1	1.00193E-001	1.52536E-006	0.00000E+000	1.00006E-001	0.00000E+000	9	...........	1426.04
	4	0	1.00193E-001	1.45532E-006	0.00000E+000	1.00006E-001	0.00000E+000	9	...........	1426.04
	5	0.1	2.00189E-001	2.57388E-004	0.00000E+000	2.00005E-001	0.00000E+000	9	...........	1426.04
	6	0.2	2.00189E-001	1.51920E-004	0.00000E+000	2.00005E-001	0.00000E+000	9	...........	1426.04
	7	0.3	2.00190E-001	9.83711E-005	0.00000E+000	2.00005E-001	0.00000E+000	9	...........	1426.04
	8	0.4	2.00192E-001	6.90630E-005	0.00000E+000	2.00005E-001	0.00000E+000	9	...........	1426.04
	9	0.5	2.00191E-001	5.19876E-005	0.00000E+000	2.00005E-001	0.00000E+000	9	...........	1425.95
	10	0.6	2.00190E-001	4.14528E-005	0.00000E+000	2.00005E-001	0.00000E+000	9	...........	1425.95
	11	0.7	2.00188E-001	3.45680E-005	0.00000E+000	2.00005E-001	0.00000E+000	9	...........	1425.95
	12	0.8	2.00188E-001	2.98022E-005	0.00000E+000	2.00005E-001	0.00000E+000	9	...........	1425.95
	13	0.9	2.00188E-001	2.63701E-005	0.00000E+000	2.00005E-001	0.00000E+000	9	...........	1425.95
	14	1	2.00188E-001	2.37916E-005	0.00000E+000	2.00005E-001	0.00000E+000	9	...........	1425.95
	15	1.1	2.00191E-001	2.17996E-005	0.00000E+000	2.00005E-001	0.00000E+000	9	...........	1425.95
	16	1.2	2.00190E-001	2.01690E-005	0.00000E+000	2.00005E-001	0.00000E+000	9	...........	1425.95
	17	1.3	2.00189E-001	1.88188E-005	0.00000E+000	2.00005E-001	0.00000E+000	9	...........	1425.95
	18	1.4	2.00189E-001	1.76801E-005	0.00000E+000	2.00005E-001	0.00000E+000	9	...........	1425.95
	19	1.5	2.00189E-001	1.67170E-005	0.00000E+000	2.00005E-001	0.00000E+000	9	...........	1425.78
	20	1.6	2.00188E-001	1.58802E-005	0.00000E+000	2.00005E-001	0.00000E+000	9	...........	1425.78
	21	1.7	2.00187E-001	1.51304E-005	0.00000E+000	2.00005E-001	0.00000E+000	9	...........	1425.78
	22	1.8	2.00188E-001	1.44553E-005	0.00000E+000	2.00005E-001	0.00000E+000	9	...........	1425.78
	23	1.9	2.00188E-001	1.38733E-005	0.00000E+000	2.00005E-001	0.00000E+000	9	...........	1425.78
	24	2	2.00187E-001	1.33228E-005	0.00000E+000	2.00005E-001	0.00000E+000	9	...........	1425.78
	25	2.1	2.00188E-001	1.28335E-005	0.00000E+000	2.00005E-001	0.00000E+000	9	...........	1425.78
	26	2.2	2.00187E-001	1.23827E-005	0.00000E+000	2.00005E-001	0.00000E+000	9	...........	1425.78
	27	2.3	2.00189E-001	1.19821E-005	0.00000E+000	2.00005E-001	0.00000E+000	9	...........	1425.78
	28	2.4	2.00190E-001	1.15891E-005	0.00000E+000	2.00005E-001	0.00000E+000	9	...........	1425.78
	29	2.5	2.00188E-001	1.12091E-005	0.00000E+000	2.00005E-001	0.00000E+000	9	...........	1425.87
	30	2.6	2.00187E-001	1.08994E-005	0.00000E+000	2.00005E-001	0.00000E+000	9	...........	1425.87
	31	2.7	2.00188E-001	1.06009E-005	0.00000E+000	2.00005E-001	0.00000E+000	9	...........	1425.87
	32	2.8	2.00189E-001	1.02823E-005	0.00000E+000	2.00005E-001	0.00000E+000	9	...........	1425.87
	33	2.9	2.00188E-001	1.00354E-005	0.00000E+000	2.00005E-001	0.00000E+000	9	...........	1425.87
	34	3	2.00187E-001	9.76746E-006	0.00000E+000	2.00005E-001	0.00000E+000	9	...........	1425.87
	35	3.1	2.00189E-001	9.52691E-006	0.00000E+000	2.00005E-001	0.00000E+000	9	...........	1425.87
	36	3.2	2.00189E-001	9.27388E-006	0.00000E+000	2.00005E-001	0.00000E+000	9	...........	1425.87
	37	3.3	2.00188E-001	9.08042E-006	0.00000E+000	2.00005E-001	0.00000E+000	9	...........	1425.87
	38	3.4	2.00190E-001	8.87107E-006	0.00000E+000	2.00005E-001	0.00000E+000	9	...........	1425.87
	39	3.5	2.00187E-001	8.67443E-006	0.00000E+000	2.00005E-001	0.00000E+000	9	...........	1426.22
	40	3.6	2.00189E-001	8.50109E-006	0.00000E+000	2.00005E-001	0.00000E+000	9	...........	1426.22
	41	3.7	2.00189E-001	8.30862E-006	0.00000E+000	2.00005E-001	0.00000E+000	9	...........	1426.22
	42	3.8	2.00186E-001	8.12743E-006	0.00000E+000	2.00005E-001	0.00000E+000	9	...........	1426.22
	43	3.9	2.00187E-001	7.97017E-006	0.00000E+000	2.00005E-001	0.00000E+000	9	...........	1426.22
	44	4	2.00190E-001	7.81705E-006	0.00000E+000	2.00005E-001	0.00000E+000	9	...........	1426.22
	45	4.1	2.00189E-001	7.65128E-006	0.00000E+000	2.00005E-001	0.00000E+000	9	...........	1426.22
	46	4.2	2.00187E-001	7.51977E-006	0.00000E+000	2.00005E-001	0.00000E+000	9	...........	1426.22
	47	4.3	2.00186E-001	7.37916E-006	0.00000E+000	2.00005E-001	0.00000E+000	9	...........	1426.22
	48	4.4	2.00189E-001	7.24516E-006	0.00000E+000	2.00005E-001	0.00000E+000	9	...........	1426.22
	49	4.5	2.00191E-001	7.09834E-006	0.00000E+000	2.00005E-001	0.00000E+000	9	...........	1425.78
	50	4.6	2.00189E-001	6.99016E-006	0.00000E+000	2.00005E-001	0.00000E+000	9	...........	1425.78
	51	4.7	2.00188E-001	6.87104E-006	0.00000E+000	2.00005E-001	0.00000E+000	9	...........	1425.78
	52	4.8	2.00190E-001	6.75061E-006	0.00000E+000	2.00005E-001	0.00000E+000	9	...........	1425.78
	53	4.9	2.00190E-001	6.63339E-006	0.00000E+000	2.00005E-001	0.00000E+000	9	...........	1425.78
	54	5	2.00189E-001	6.52965E-006	0.00000E+000	2.00005E-001	0.00000E+000	9	...........	1425.78
	55	5.1	2.00190E-001	6.43128E-006	0.00000E+000	2.00005E-001	0.00000E+000	9	...........	1425.78
	56	5.2	2.00191E-001	6.33098E-006	0.00000E+000	2.00005E-001	0.00000E+000	9	...........	1425.78
	57	5.3	2.00189E-001	6.23195E-006	0.00000E+000	2.00005E-001	0.00000E+000	9	...........	1425.78
	58	5.4	2.00190E-001	6.15030E-006	0.00000E+000	2.00005E-001	0.00000E+000	9	...........	1425.78
	59	5.5	2.00190E-001	6.05426E-006	0.00000E+000	2.00005E-001	0.00000E+000	9	...........	1425.95
	60	5.6	2.00188E-001	5.95760E-006	0.00000E+000	2.00005E-001	0.00000E+000	9	...........	1425.95
	61	5.7	2.00189E-001	5.86580E-006	0.00000E+000	2.00005E-001	0.00000E+000	9	...........	1425.95
	62	5.8	2.00189E-001	5.79092E-006	0.00000E+000	2.00005E-001	0.00000E+000	9	...........	1425.95
	63	5.9	2.00189E-001	5.69376E-006	0.00000E+000	2.00005E-001	0.00000E+000	9	...........	1425.95
	64	6	2.00190E-001	5.61494E-006	0.00000E+000	2.00005E-001	0.00000E+000	9	...........	1425.95
	65	6.1	2.00188E-001	5.54007E-006	0.00000E+000	2.00005E-001	0.00000E+000	9	...........	1425.95
	66	7.1	2.00188E-001	4.85839E-006	0.00000E+000	2.00005E-001	0.00000E+000	9	...........	1425.78
	67	8.1	2.00188E-001	4.31607E-006	0.00000E+000	2.00005E-001	0.00000E+000	9	...........	1426.22
	68	9.1	2.00188E-001	3.87084E-006	0.00000E+000	2.00005E-001	0.00000E+000	9	...........	1426.31
	69	10.1	2.00190E-001	3.50099E-006	0.00000E+000	2.00005E-001	0.00000E+000	9	...........	1426.22
	70	11.1	2.00189E-001	3.16338E-006	0.00000E+000	2.00005E-001	0.00000E+000	9	...........	1426.22
	71	12.1	2.00190E-001	2.90545E-006	0.00000E+000	2.00005E-001	0.00000E+000	9	...........	1426.22
	72	13.1	2.00188E-001	2.66580E-006	0.00000E+000	2.00005E-001	0.00000E+000	9	...........	1426.31
	73	14.1	2.00190E-001	2.46409E-006	0.00000E+000	2.00005E-001	0.00000E+000	9	...........	1426.31
	74	15.1	2.00190E-001	2.29558E-006	0.00000E+000	2.00005E-001	0.00000E+000	9	...........	1426.31
	75	16.1	2.00189E-001	2.13892E-006	0.00000E+000	2.00005E-001	0.00000E+000	9	...........	1426.31
	76	26.1	2.00190E-001	1.19265E-006	0.00000E+000	2.00005E-001	0.00000E+000	9	...........	1426.31
	77	36.1	2.00189E-001	8.06481E-007	0.00000E+000	2.00005E-001	0.00000E+000	9	...........	1426.22
	78	46.1	2.00188E-001	3.46840E-007	0.00000E+000	2.00005E-001	0.00000E+000	9	...........	1426.31
	79	56.1	2.00190E-001	2.01857E-007	0.00000E+000	2.00005E-001	0.00000E+000	9	...........	1426.22
	80	66.1	2.00190E-001	1.57144E-007	0.00000E+000	2.00005E-001	0.00000E+000	9	...........	1426.22
	81	76.1	2.00190E-001	4.26089E-007	0.00000E+000	2.00005E-001	0.00000E+000	9	...........	1426.31
	82	86.1	2.00191E-001	2.95387E-007	0.00000E+000	2.00005E-001	0.00000E+000	9	...........	1426.31
	83	96.1	2.00190E-001	-3.42865E-008	0.00000E+000	2.00005E-001	0.00000E+000	9	...........	1426.31
	84	106.1	2.00190E-001	5.25437E-009	0.00000E+000	2.00005E-001	0.00000E+000	9	...........	1426.31
	85	116.1	2.00188E-001	2.57782E-007	0.00000E+000	2.00005E-001	0.00000E+000	9	...........	1426.31
	86	216.1	2.00189E-001	-1.81071E-007	0.00000E+000	2.00005E-001	0.00000E+000	9	...........	1426.31
	87	300	2.00190E-001	-1.52575E-007	0.00000E+000	2.00005E-001	0.00000E+000	9	...........	1426.31
	88	300.1	3.00206E-001	2.41875E-004	0.00000E+000	3.00005E-001	0.00000E+000	9	...........	1426.31
	89	300.2	3.00066E-001	1.40967E-004	0.00000E+000	3.00005E-001	0.00000E+000	9	...........	1426.31
	90	300.3	3.00071E-001	9.36301E-005	0.00000E+000	3.00005E-001	0.00000E+000	9	...........	1426.31
	91	300.4	3.00082E-001	6.87088E-005	0.00000E+000	3.00005E-001	0.00000E+000	9	...........	1426.31
	92	300.5	3.00064E-001	5.43396E-005	0.00000E+000	3.00005E-001	0.00000E+000	9	...........	1426.31
	93	300.6	3.00062E-001	4.53478E-005	0.00000E+000	3.00005E-001	0.00000E+000	9	...........	1426.31
	94	300.7	3.00072E-001	3.93123E-005	0.00000E+000	3.00005E-001	0.00000E+000	9	...........	1426.31
	95	300.8	3.00067E-001	3.50210E-005	0.00000E+000	3.00005E-001	0.00000E+000	9	...........	1426.31
	96	300.9	3.00061E-001	3.18249E-005	0.00000E+000	3.00005E-001	0.00000E+000	9	...........	1426.31
	97	301	3.00067E-001	2.92806E-005	0.00000E+000	3.00005E-001	0.00000E+000	9	...........	1426.31
