EXPLAIN
TAG	CHRONOA
TITLE	LABEL	Chronoamperometry Scan	Test Identifier
DATE	LABEL	17/2/2022	Date
TIME	LABEL	17:39:55	Time
NOTES	NOTES	1	Notes...
	
PSTAT	PSTAT	IFC1010-21051	Potentiostat
VPRESTEP	POTEN	-5.00000E-001	F	Pre-step Voltage (V)
TPRESTEP	QUANT	5.00000E-001	Pre-step Delay Time (s)
VSTEP1	POTEN	-6.00000E-001	F	Step 1 Voltage (V)
TSTEP1	QUANT	3.00000E+002	Step 1 Time (s)
VSTEP2	POTEN	-7.00000E-001	F	Step 2 Voltage (V)
TSTEP2	QUANT	1.00000E+000	Step 2 Time (s)
SAMPLETIME	QUANT	1.00000E-001	Sample Period (s)
DECIMATE	TOGGLE	T	Decimate
ILIMIT	QUANT	1.00000E+000	Limit I (mA/cm^2)
IMODE	SELECTOR	1	I/E Range Mode
IRANGE	QUANT	3.00000E-001	Max Current (mA)
EQDELAY	QUANT	5.00000E+000	Equil. Time (s)
SAMPLINGMODE	SELECTOR	1	Sampling Mode
AREA	QUANT	1.00000E+000	Sample Area (cm^2)
IRCOMP	SELECTOR	0	IRComp
PFCOR	QUANT	5.00000E+001	PF Corr. (ohm)
SEQUENCER	TOGGLE	TRUE	Run as Sequence
PSTATMODEL	IQUANT	64	Pstat Model
PSTATSECTION	LABEL	IFC1010-21051	Pstat Section
PSTATSERIALNO	LABEL	21051	Pstat Serial Number
CTRLMODE	IQUANT	1	Control Mode
ELECTROMETER	IQUANT	0	RE=0 or CS=1
IESTAB	IQUANT	0	I/E Stability
CASPEED	IQUANT	4	Control Amp Speed
CONVENTION	IQUANT	1	Current Convention
ICHRANGE	IQUANT	2	Ich Range
ICHRANGEMODE	TOGGLE	T	Ich Auto Range
ICHOFFSETENABLE	TOGGLE	F	Ich Offset Enable
ICHOFFSET	QUANT	0	Ich Offset (V)
ICHFILTER	IQUANT	3	Ich Filter
VCHRANGE	IQUANT	3	Vch Range
VCHRANGEMODE	TOGGLE	T	Vch Auto Range
VCHOFFSETENABLE	TOGGLE	F	Vch Offset Enable
VCHOFFSET	QUANT	0	Vch Offset (V)
VCHFILTER	IQUANT	3	Vch Filter
IERANGELOWERLIMIT	IQUANT	4	I/E Range Lower Limit
IERANGEMODE	TOGGLE	F	I/E AutoRange
IERANGE	IQUANT	9	I/E Range
ACHSELECT	IQUANT	0	Ach Select
ACHRANGE	IQUANT	2	Ach Range
ACHOFFSETENABLE	TOGGLE	F	Ach Offset Enable
ACHOFFSET	QUANT	0	Ach Offset (V)
ACHFILTER	IQUANT	1	Ach Filter
SENSECABLEID	IQUANT	14	Sense Cable ID
PWRCABLEID	IQUANT	14	Power Cable ID
DCCALDATE	LABEL	1/24/2022	DC Calibration Date
ACCALDATE	LABEL	4/2/2018	AC Calibration Date
FRAMEWORKVERSION	QUANT	7.06	Framework Version
INSTRUMENTVERSION	LABEL	4.30	Instrument Version
CURVE	TABLE	98
	Pt	T	Vf	Im	Vu	Sig	Ach	IERange	Over	Temp
	#	s	V vs. Ref.	A	V	V	V	#	bits	deg C
	0	-0.4	-5.01563E-001	-1.43136E-004	0.00000E+000	-5.00017E-001	0.00000E+000	9	...........	1426.22
	1	-0.3	-5.00985E-001	-1.42769E-004	0.00000E+000	-5.00017E-001	0.00000E+000	9	...........	1426.22
	2	-0.2	-5.00987E-001	-1.42321E-004	0.00000E+000	-5.00017E-001	0.00000E+000	9	...........	1426.22
	3	-0.1	-5.00994E-001	-1.41964E-004	0.00000E+000	-5.00017E-001	0.00000E+000	9	...........	1426.22
	4	0	-5.00984E-001	-1.41546E-004	0.00000E+000	-5.00017E-001	0.00000E+000	9	...........	1426.22
	5	0.1	-6.00997E-001	-4.78527E-004	0.00000E+000	-6.00016E-001	0.00000E+000	9	...........	1426.22
	6	0.2	-6.00998E-001	-4.01060E-004	0.00000E+000	-6.00016E-001	0.00000E+000	9	...........	1426.22
	7	0.3	-6.00982E-001	-3.65527E-004	0.00000E+000	-6.00016E-001	0.00000E+000	9	...........	1426.22
	8	0.4	-6.00989E-001	-3.43725E-004	0.00000E+000	-6.00016E-001	0.00000E+000	9	...........	1426.31
	9	0.5	-6.00998E-001	-3.28157E-004	0.00000E+000	-6.00016E-001	0.00000E+000	9	...........	1426.31
	10	0.6	-6.00996E-001	-3.16052E-004	0.00000E+000	-6.00016E-001	0.00000E+000	9	...........	1426.31
	11	0.7	-6.00984E-001	-3.06040E-004	0.00000E+000	-6.00016E-001	0.00000E+000	9	...........	1426.31
	12	0.8	-6.00989E-001	-2.97537E-004	0.00000E+000	-6.00016E-001	0.00000E+000	9	...........	1426.31
	13	0.9	-6.00987E-001	-2.90119E-004	0.00000E+000	-6.00016E-001	0.00000E+000	9	...........	1426.31
	14	1	-6.00993E-001	-2.83596E-004	0.00000E+000	-6.00016E-001	0.00000E+000	9	...........	1426.31
	15	1.1	-6.01002E-001	-2.77713E-004	0.00000E+000	-6.00016E-001	0.00000E+000	9	...........	1426.31
	16	1.2	-6.00996E-001	-2.72389E-004	0.00000E+000	-6.00016E-001	0.00000E+000	9	...........	1426.31
	17	1.3	-6.01003E-001	-2.67510E-004	0.00000E+000	-6.00016E-001	0.00000E+000	9	...........	1426.31
	18	1.4	-6.00986E-001	-2.62974E-004	0.00000E+000	-6.00016E-001	0.00000E+000	9	...........	1425.87
	19	1.5	-6.00993E-001	-2.58881E-004	0.00000E+000	-6.00016E-001	0.00000E+000	9	...........	1425.87
	20	1.6	-6.00982E-001	-2.54980E-004	0.00000E+000	-6.00016E-001	0.00000E+000	9	...........	1425.87
	21	1.7	-6.01004E-001	-2.51402E-004	0.00000E+000	-6.00016E-001	0.00000E+000	9	...........	1425.87
	22	1.8	-6.00984E-001	-2.47960E-004	0.00000E+000	-6.00016E-001	0.00000E+000	9	...........	1425.87
	23	1.9	-6.00993E-001	-2.44816E-004	0.00000E+000	-6.00016E-001	0.00000E+000	9	...........	1425.87
	24	2	-6.00992E-001	-2.41795E-004	0.00000E+000	-6.00016E-001	0.00000E+000	9	...........	1425.87
	25	2.1	-6.00986E-001	-2.38905E-004	0.00000E+000	-6.00016E-001	0.00000E+000	9	...........	1425.87
	26	2.2	-6.00994E-001	-2.36175E-004	0.00000E+000	-6.00016E-001	0.00000E+000	9	...........	1425.87
	27	2.3	-6.00995E-001	-2.33645E-004	0.00000E+000	-6.00016E-001	0.00000E+000	9	...........	1425.87
	28	2.4	-6.00988E-001	-2.31131E-004	0.00000E+000	-6.00016E-001	0.00000E+000	9	...........	1425.87
	29	2.5	-6.00994E-001	-2.28738E-004	0.00000E+000	-6.00016E-001	0.00000E+000	9	...........	1425.87
	30	2.6	-6.01000E-001	-2.26507E-004	0.00000E+000	-6.00016E-001	0.00000E+000	9	...........	1425.87
	31	2.7	-6.01003E-001	-2.24414E-004	0.00000E+000	-6.00016E-001	0.00000E+000	9	...........	1425.87
	32	2.8	-6.00997E-001	-2.22307E-004	0.00000E+000	-6.00016E-001	0.00000E+000	9	...........	1425.87
	33	2.9	-6.00988E-001	-2.20297E-004	0.00000E+000	-6.00016E-001	0.00000E+000	9	...........	1425.87
	34	3	-6.00994E-001	-2.18426E-004	0.00000E+000	-6.00016E-001	0.00000E+000	9	...........	1425.87
	35	3.1	-6.00985E-001	-2.16613E-004	0.00000E+000	-6.00016E-001	0.00000E+000	9	...........	1425.87
	36	3.2	-6.00994E-001	-2.14874E-004	0.00000E+000	-6.00016E-001	0.00000E+000	9	...........	1425.87
	37	3.3	-6.00987E-001	-2.13138E-004	0.00000E+000	-6.00016E-001	0.00000E+000	9	...........	1425.87
	38	3.4	-6.00979E-001	-2.11477E-004	0.00000E+000	-6.00016E-001	0.00000E+000	9	...........	1426.04
	39	3.5	-6.00991E-001	-2.09937E-004	0.00000E+000	-6.00016E-001	0.00000E+000	9	...........	1426.04
	40	3.6	-6.00998E-001	-2.08454E-004	0.00000E+000	-6.00016E-001	0.00000E+000	9	...........	1426.04
	41	3.7	-6.00994E-001	-2.06975E-004	0.00000E+000	-6.00016E-001	0.00000E+000	9	...........	1426.04
	42	3.8	-6.01004E-001	-2.05566E-004	0.00000E+000	-6.00016E-001	0.00000E+000	9	...........	1426.04
	43	3.9	-6.00986E-001	-2.04227E-004	0.00000E+000	-6.00016E-001	0.00000E+000	9	...........	1426.04
	44	4	-6.00990E-001	-2.02954E-004	0.00000E+000	-6.00016E-001	0.00000E+000	9	...........	1426.04
	45	4.1	-6.01000E-001	-2.01679E-004	0.00000E+000	-6.00016E-001	0.00000E+000	9	...........	1426.04
	46	4.2	-6.00981E-001	-2.00432E-004	0.00000E+000	-6.00016E-001	0.00000E+000	9	...........	1426.04
	47	4.3	-6.00995E-001	-1.99298E-004	0.00000E+000	-6.00016E-001	0.00000E+000	9	...........	1426.04
	48	4.4	-6.00994E-001	-1.98082E-004	0.00000E+000	-6.00016E-001	0.00000E+000	9	...........	1425.87
	49	4.5	-6.00994E-001	-1.97042E-004	0.00000E+000	-6.00016E-001	0.00000E+000	9	...........	1425.87
	50	4.6	-6.00985E-001	-1.95918E-004	0.00000E+000	-6.00016E-001	0.00000E+000	9	...........	1425.87
	51	4.7	-6.00990E-001	-1.94898E-004	0.00000E+000	-6.00016E-001	0.00000E+000	9	...........	1425.87
	52	4.8	-6.00995E-001	-1.93955E-004	0.00000E+000	-6.00016E-001	0.00000E+000	9	...........	1425.87
	53	4.9	-6.00988E-001	-1.92929E-004	0.00000E+000	-6.00016E-001	0.00000E+000	9	...........	1425.87
	54	5	-6.00993E-001	-1.91977E-004	0.00000E+000	-6.00016E-001	0.00000E+000	9	...........	1425.87
	55	5.1	-6.00999E-001	-1.91017E-004	0.00000E+000	-6.00016E-001	0.00000E+000	9	...........	1425.87
	56	5.2	-6.00996E-001	-1.90113E-004	0.00000E+000	-6.00016E-001	0.00000E+000	9	...........	1425.87
	57	5.3	-6.00992E-001	-1.89210E-004	0.00000E+000	-6.00016E-001	0.00000E+000	9	...........	1425.87
	58	5.4	-6.00990E-001	-1.88270E-004	0.00000E+000	-6.00016E-001	0.00000E+000	9	...........	1425.87
	59	5.5	-6.00995E-001	-1.87408E-004	0.00000E+000	-6.00016E-001	0.00000E+000	9	...........	1425.87
	60	5.6	-6.00987E-001	-1.86598E-004	0.00000E+000	-6.00016E-001	0.00000E+000	9	...........	1425.87
	61	5.7	-6.00986E-001	-1.85788E-004	0.00000E+000	-6.00016E-001	0.00000E+000	9	...........	1425.87
	62	5.8	-6.00987E-001	-1.84961E-004	0.00000E+000	-6.00016E-001	0.00000E+000	9	...........	1425.87
	63	5.9	-6.00997E-001	-1.84177E-004	0.00000E+000	-6.00016E-001	0.00000E+000	9	...........	1425.87
	64	6	-6.01001E-001	-1.83460E-004	0.00000E+000	-6.00016E-001	0.00000E+000	9	...........	1425.87
	65	6.1	-6.00998E-001	-1.82713E-004	0.00000E+000	-6.00016E-001	0.00000E+000	9	...........	1425.87
	66	7.1	-6.00979E-001	-1.76372E-004	0.00000E+000	-6.00016E-001	0.00000E+000	9	...........	1426.04
	67	8.1	-6.00993E-001	-1.71111E-004	0.00000E+000	-6.00016E-001	0.00000E+000	9	...........	1426.31
	68	9.1	-6.01002E-001	-1.66470E-004	0.00000E+000	-6.00016E-001	0.00000E+000	9	...........	1426.31
	69	10.1	-6.00992E-001	-1.62540E-004	0.00000E+000	-6.00016E-001	0.00000E+000	9	...........	1426.31
	70	11.1	-6.01002E-001	-1.58815E-004	0.00000E+000	-6.00016E-001	0.00000E+000	9	...........	1426.31
	71	12.1	-6.00988E-001	-1.55778E-004	0.00000E+000	-6.00016E-001	0.00000E+000	9	...........	1426.40
	72	13.1	-6.00982E-001	-1.53104E-004	0.00000E+000	-6.00016E-001	0.00000E+000	9	...........	1426.22
	73	14.1	-6.00993E-001	-1.50890E-004	0.00000E+000	-6.00016E-001	0.00000E+000	9	...........	1426.31
	74	15.1	-6.01000E-001	-1.49115E-004	0.00000E+000	-6.00016E-001	0.00000E+000	9	...........	1426.31
	75	16.1	-6.00991E-001	-1.47216E-004	0.00000E+000	-6.00016E-001	0.00000E+000	9	...........	1426.31
	76	26.1	-6.00995E-001	-1.34504E-004	0.00000E+000	-6.00016E-001	0.00000E+000	9	...........	1426.22
	77	36.1	-6.00992E-001	-1.27482E-004	0.00000E+000	-6.00016E-001	0.00000E+000	9	...........	1426.31
	78	46.1	-6.00973E-001	-1.22936E-004	0.00000E+000	-6.00016E-001	0.00000E+000	9	...........	1426.40
	79	56.1	-6.01001E-001	-1.19344E-004	0.00000E+000	-6.00016E-001	0.00000E+000	9	...........	1426.31
	80	66.1	-6.00989E-001	-1.16779E-004	0.00000E+000	-6.00016E-001	0.00000E+000	9	...........	1426.40
	81	76.1	-6.00974E-001	-1.15268E-004	0.00000E+000	-6.00016E-001	0.00000E+000	9	...........	1426.40
	82	86.1	-6.01010E-001	-1.13357E-004	0.00000E+000	-6.00016E-001	0.00000E+000	9	...........	1426.31
	83	96.1	-6.00989E-001	-1.12184E-004	0.00000E+000	-6.00016E-001	0.00000E+000	9	...........	1426.40
	84	106.1	-6.00987E-001	-1.11452E-004	0.00000E+000	-6.00016E-001	0.00000E+000	9	...........	1426.31
	85	116.1	-6.01019E-001	-1.10330E-004	0.00000E+000	-6.00016E-001	0.00000E+000	9	...........	1426.40
	86	216.1	-6.00995E-001	-1.04475E-004	0.00000E+000	-6.00016E-001	0.00000E+000	9	...........	1426.40
	87	300	-6.00993E-001	-1.02510E-004	0.00000E+000	-6.00016E-001	0.00000E+000	9	...........	1426.31
	88	300.1	-7.00997E-001	-4.59260E-004	0.00000E+000	-7.00016E-001	0.00000E+000	9	...........	1426.31
	89	300.2	-7.00995E-001	-3.53177E-004	0.00000E+000	-7.00016E-001	0.00000E+000	9	...........	1426.31
	90	300.3	-7.00988E-001	-3.01165E-004	0.00000E+000	-7.00016E-001	0.00000E+000	9	...........	1426.31
	91	300.4	-7.01000E-001	-2.69641E-004	0.00000E+000	-7.00016E-001	0.00000E+000	9	...........	1426.40
	92	300.5	-7.01002E-001	-2.48203E-004	0.00000E+000	-7.00016E-001	0.00000E+000	9	...........	1426.40
	93	300.6	-7.00996E-001	-2.32479E-004	0.00000E+000	-7.00016E-001	0.00000E+000	9	...........	1426.40
	94	300.7	-7.00984E-001	-2.20446E-004	0.00000E+000	-7.00016E-001	0.00000E+000	9	...........	1426.40
	95	300.8	-7.00978E-001	-2.10899E-004	0.00000E+000	-7.00016E-001	0.00000E+000	9	...........	1426.40
	96	300.9	-7.01003E-001	-2.03323E-004	0.00000E+000	-7.00016E-001	0.00000E+000	9	...........	1426.40
	97	301	-7.00996E-001	-1.96899E-004	0.00000E+000	-7.00016E-001	0.00000E+000	9	...........	1426.40
